0 0
1 1
2 2
3 3
4 4
5 5
6 6
7 7
8 8
9 9
10 10
11 11
12 11
13 12
14 13
15 13
16 0
17 14
18 15
19 12
20 8
21 16
22 16
23 17
24 18
25 19
26 20
27 21
28 22
29 11
30 23
31 21
32 24
33 25
34 26
35 27
36 9
37 13
38 2
39 28
40 29
41 30
42 31
43 32
44 33
45 34
46 35
47 36
48 2
49 24
50 6
51 9
52 5
53 0
54 37
55 2
56 30
57 38
58 30
59 39
60 40
61 32
62 24
63 36
64 41
65 42
66 8
67 43
68 36
69 37
70 44
71 36
72 23
73 6
74 45
75 37
76 34
77 46
78 47
79 9
80 48
81 32
82 49
83 11
84 50
85 51
86 5
87 29
88 15
89 26
90 32
91 43
92 5
93 7
94 10
95 30
96 52
97 11
98 6
99 27
100 11
101 53
102 50
103 51
104 5
105 5
106 41
107 32
108 48
109 6
110 32
111 54
112 38
113 55
114 19
115 7
116 56
117 26
118 9
119 43
120 50
121 35
122 9
123 57
124 4
125 58
126 20
127 30
128 31
129 0
130 19
131 23
132 36
133 55
134 3
135 35
136 37
137 27
138 9
139 29
140 59
141 48
142 60
143 61
144 62
145 43
146 45
147 19
148 63
149 64
150 33
151 20
152 24
153 64
154 65
155 66
156 2
157 28
158 48
159 67
160 9
161 5
162 20
163 68
164 47
165 67
166 5
167 48
168 5
169 69
170 70
171 51
172 26
173 63
174 51
175 71
176 32
177 72
178 5
179 24
180 13
181 27
182 73
183 50
184 43
185 45
186 22
187 69
188 24
189 33
190 73
191 60
192 37
193 13
194 40
195 5
196 26
197 7
198 74
199 61
200 9
201 64
202 54
203 3
204 75
205 5
206 62
207 9
208 73
209 45
210 76
211 55
212 55
213 69
214 51
215 5
216 64
217 73
218 63
219 46
220 68
221 63
222 24
223 64
224 8
225 40
226 64
227 69
228 26
229 51
230 51
231 38
232 57
233 77
234 6
235 77
236 63
237 3
238 54
239 61
240 68
241 19
242 32
243 5
244 42
245 64
246 68
247 70
248 78
249 79
250 16
251 42
252 68
253 15
254 8
255 48
256 64
257 29
258 42
259 64
260 80
261 23
262 24
263 10
264 8
265 51
266 3
267 81
268 82
269 64
270 77
271 25
272 32
273 32
274 6
275 4
276 82
277 47
278 23
279 2
280 54
281 8
282 68
283 83
284 8
285 16
286 50
287 12
288 30
289 42
290 68
291 61
292 6
293 84
294 63
295 5
296 25
297 9
298 18
299 35
300 18
301 78
302 70
303 46
304 34
305 21
306 3
307 7
308 25
309 66
310 15
311 42
312 84
313 18
314 73
315 9
316 66
317 64
318 24
319 73
320 0
321 16
322 17
323 6
324 49
325 63
326 16
327 4
328 5
329 83
330 61
331 35
332 64
333 62
334 85
335 82
336 66
337 37
338 70
339 63
340 51
341 86
342 62
343 87
344 64
345 64
346 24
347 5
348 5
349 25
350 8
351 73
352 75
353 0
354 53
355 51
356 30
357 63
358 63
359 20
360 33
361 8
362 19
363 18
364 69
365 42
366 59
367 7
368 12
369 6
370 67
371 63
372 7
373 37
374 32
375 26
376 73
377 77
378 24
379 62
380 64
381 42
382 2
383 3
384 12
385 73
386 50
387 70
388 86
389 24
390 75
391 50
392 87
393 4
394 57
395 7
396 20
397 34
398 54
399 36
400 23
401 48
402 1
403 55
404 50
405 16
406 42
407 66
408 88
409 66
410 47
411 5
412 54
413 42
414 8
415 36
416 54
417 1
418 12
419 69
420 51
421 2
422 25
423 25
424 22
425 77
426 83
427 36
428 36
429 66
430 89
431 37
432 16
433 19
434 82
435 30
436 90
437 29
438 54
439 39
440 78
441 91
442 48
443 55
444 42
445 39
446 42
447 36
448 67
449 26
450 50
451 31
452 32
453 91
454 31
455 36
456 72
457 18
458 68
459 84
460 5
461 51
462 73
463 8
464 61
465 77
466 47
467 42
468 2
469 22
470 24
471 2
472 33
473 23
474 27
475 22
476 40
477 73
478 84
479 79
480 87
481 41
482 48
483 32
484 46
485 82
486 78
487 2
488 43
489 72
490 31
491 72
492 50
493 32
494 72
495 88
496 24
497 92
498 23
499 43
500 37
501 15
502 58
503 36
504 80
505 48
506 2
507 50
508 19
509 42
510 50
511 79
512 13
513 36
514 33
515 36
516 37
517 70
518 68
519 12
520 36
521 41
522 72
523 26
524 68
525 33
526 48
527 8
528 9
529 52
530 54
531 24
532 38
533 77
534 26
535 50
536 73
537 5
538 30
539 87
540 66
541 34
542 31
543 34
544 66
545 93
546 78
547 41
548 62
549 81
550 50
551 21
552 43
553 2
554 43
555 81
556 62
557 11
558 33
559 68
560 65
561 85
562 12
563 21
564 85
565 57
566 1
567 12
568 85
569 0
570 19
571 73
572 36
573 35
574 71
575 37
576 92
577 2
578 7
579 45
580 50
581 17
582 68
583 48
584 36
585 27
586 8
587 2
588 85
589 12
590 5
591 47
592 29
593 23
594 59
595 31
596 80
597 4
598 51
599 9
600 43
601 7
602 67
603 7
604 5
605 10
606 3
607 37
608 27
609 68
610 68
611 32
612 4
613 93
614 9
615 48
616 75
617 0
618 23
619 5
620 62
621 52
622 63
623 18
624 4
625 53
626 72
627 10
628 80
629 50
630 79
631 28
632 19
633 68
634 41
635 33
636 13
637 36
638 5
639 32
640 7
641 74
642 31
643 82
644 27
645 10
646 18
647 27
648 13
649 41
650 8
651 5
652 8
653 55
654 24
655 50
656 56
657 15
658 15
659 43
660 93
661 29
662 54
663 36
664 37
665 36
666 15
667 55
668 30
669 68
670 6
671 73
672 9
673 22
674 78
675 68
676 24
677 91
678 29
679 61
680 20
681 93
682 89
683 81
684 21
685 21
686 0
687 55
688 9
689 2
690 32
691 89
692 29
693 30
694 92
695 0
696 24
697 37
698 91
699 53
700 9
701 8
702 36
703 36
704 41
705 43
706 47
707 5
708 35
709 2
710 55
711 0
712 36
713 25
714 73
715 29
716 64
717 32
718 24
719 2
720 3
721 5
722 78
723 2
724 6
725 75
726 55
727 29
728 68
729 13
730 34
731 9
732 64
733 37
734 55
735 62
736 22
737 50
738 78
739 42
740 68
741 20
742 78
743 5
744 5
745 18
746 32
747 24
748 63
749 73
750 68
751 86
752 63
753 5
754 5
755 54
756 80
757 3
758 11
759 7
760 37
761 65
762 4
763 2
764 36
765 2
766 3
767 32
768 39
769 15
770 29
771 77
772 13
773 12
774 41
775 36
776 36
777 40
778 46
779 32
780 91
781 77
782 85
783 41
784 73
785 94
786 15
787 85
788 12
789 32
790 8
791 5
792 78
793 68
794 32
795 30
796 18
797 0
798 59
799 86
800 77
801 41
802 32
803 73
804 25
805 73
806 29
807 79
808 78
809 5
810 32
811 66
812 16
813 46
814 12
815 35
816 68
817 84
818 29
819 36
820 82
821 41
822 73
823 76
824 41
825 50
826 10
827 73
828 53
829 62
830 12
831 42
832 73
833 79
834 5
835 36
836 0
837 37
838 31
839 5
840 11
841 33
842 50
843 11
844 78
845 0
846 47
847 46
848 24
849 2
850 4
851 6
852 29
853 66
854 5
855 63
856 23
857 31
858 62
859 82
860 37
861 30
862 31
863 12
864 42
865 9
866 68
867 8
868 29
869 82
870 73
871 37
872 42
873 18
874 32
875 27
876 21
877 6
878 24
879 48
880 69
881 36
882 10
883 47
884 33
885 77
886 54
887 27
888 24
889 29
890 24
891 2
892 53
893 32
894 68
895 69
896 61
897 37
898 5
899 23
900 83
901 78
902 83
903 11
904 19
905 54
906 37
907 2
908 32
909 26
910 23
911 32
912 6
913 36
914 54
915 32
916 36
917 79
918 23
919 48
920 61
921 50
922 77
923 12
924 81
925 72
926 32
927 68
928 5
929 4
930 34
931 20
932 31
933 20
934 31
935 54
936 33
937 21
938 63
939 5
940 42
941 30
942 84
943 41
944 53
945 24
946 53
947 50
948 72
949 81
950 67
951 71
952 24
953 68
954 5
955 26
956 41
957 26
958 72
959 21
960 40
961 32
962 39
963 5
964 37
965 11
966 25
967 31
968 42
969 66
970 66
971 66
972 63
973 93
974 31
975 6
976 22
977 81
978 27
979 21
980 2
981 23
982 13
983 64
984 55
985 46
986 32
987 37
988 81
989 68
990 32
991 20
992 2
993 3
994 18
995 91
996 68
997 9
998 36
999 82
1000 43
1001 29
1002 32
1003 77
1004 47
1005 5
1006 85
1007 12
1008 41
1009 21
1010 16
1011 73
1012 24
1013 21
1014 27
1015 68
1016 5
1017 21
1018 20
1019 5
1020 29
1021 16
1022 27
1023 43
1024 32
1025 67
1026 42
1027 41
1028 24
1029 6
1030 12
1031 27
1032 0
1033 76
1034 43
1035 21
1036 43
1037 0
1038 82
1039 41
1040 73
1041 85
1042 73
1043 37
1044 2
1045 42
1046 0
1047 69
1048 26
1049 72
1050 9
1051 68
1052 4
1053 24
1054 21
1055 0
1056 20
1057 5
1058 20
1059 51
1060 10
1061 73
1062 61
1063 27
1064 85
1065 32
1066 92
1067 23
1068 63
1069 47
1070 34
1071 84
1072 5
1073 2
1074 20
1075 68
1076 66
1077 2
1078 38
1079 43
1080 91
1081 12
1082 95
1083 84
1084 84
1085 50
1086 51
1087 12
1088 11
1089 9
1090 12
1091 43
1092 33
1093 85
1094 32
1095 31
1096 31
1097 32
1098 11
1099 75
1100 17
1101 2
1102 48
1103 77
1104 21
1105 51
1106 16
1107 32
1108 28
1109 37
1110 1
1111 21
1112 62
1113 18
1114 33
1115 5
1116 15
1117 37
1118 32
1119 65
1120 69
1121 70
1122 33
1123 36
1124 20
1125 85
1126 6
1127 0
1128 32
1129 21
1130 67
1131 25
1132 72
1133 79
1134 5
1135 93
1136 35
1137 82
1138 29
1139 20
1140 49
1141 51
1142 8
1143 45
1144 20
1145 2
1146 45
1147 51
1148 11
1149 63
1150 48
1151 63
1152 51
1153 21
1154 32
1155 1
1156 62
1157 73
1158 82
1159 21
1160 6
1161 2
1162 2
1163 41
1164 15
1165 15
1166 55
1167 12
1168 32
1169 2
1170 5
1171 24
1172 55
1173 6
1174 8
1175 64
1176 49
1177 8
1178 51
1179 94
1180 68
1181 61
1182 64
1183 39
1184 63
1185 32
1186 33
1187 72
1188 68
1189 81
1190 0
1191 63
1192 36
1193 51
1194 51
1195 12
1196 83
1197 33
1198 48
1199 3
1200 34
1201 8
1202 43
1203 0
1204 32
1205 5
1206 79
1207 82
1208 81
1209 61
1210 20
1211 55
1212 23
1213 5
1214 32
1215 24
1216 7
1217 3
1218 63
1219 8
1220 1
1221 63
1222 21
1223 68
1224 12
1225 23
1226 82
1227 64
1228 8
1229 19
1230 88
1231 8
1232 32
1233 8
1234 8
1235 63
1236 27
1237 89
1238 25
1239 83
1240 32
1241 12
1242 5
1243 77
1244 77
1245 88
1246 5
1247 77
1248 12
1249 22
1250 44
1251 12
1252 32
1253 61
1254 82
1255 50
1256 10
1257 41
1258 63
1259 6
1260 46
1261 67
1262 68
1263 11
1264 68
1265 57
1266 11
1267 69
1268 78
1269 80
1270 77
1271 32
1272 93
1273 63
1274 42
1275 54
1276 67
1277 8
1278 54
1279 32
1280 68
1281 63
1282 12
1283 27
1284 2
1285 5
1286 59
1287 4
1288 15
1289 68
1290 5
1291 10
1292 54
1293 7
1294 12
1295 68
1296 2
1297 18
1298 63
1299 32
1300 2
1301 25
1302 66
1303 4
1304 8
1305 55
1306 5
1307 82
1308 5
1309 42
1310 78
1311 15
1312 46
1313 46
1314 91
1315 85
1316 15
1317 82
1318 32
1319 42
1320 88
1321 67
1322 78
1323 12
1324 66
1325 28
1326 30
1327 52
1328 26
1329 85
1330 79
1331 66
1332 32
1333 68
1334 35
1335 5
1336 32
1337 73
1338 33
1339 32
1340 8
1341 68
1342 2
1343 0
1344 66
1345 56
1346 5
1347 16
1348 12
1349 10
1350 2
1351 4
1352 15
1353 15
1354 37
1355 64
1356 68
1357 27
1358 73
1359 79
1360 63
1361 88
1362 32
1363 33
1364 51
1365 64
1366 73
1367 13
1368 24
1369 42
1370 5
1371 66
1372 18
1373 42
1374 85
1375 0
1376 32
1377 12
1378 5
1379 27
1380 51
1381 43
1382 78
1383 49
1384 64
1385 68
1386 43
1387 73
1388 29
1389 85
1390 5
1391 48
1392 61
1393 30
1394 32
1395 29
1396 2
1397 12
1398 55
1399 27
1400 0
1401 5
1402 12
1403 11
1404 5
1405 29
1406 5
1407 62
1408 50
1409 83
1410 66
1411 3
1412 20
1413 62
1414 5
1415 72
1416 18
1417 93
1418 73
1419 18
1420 48
1421 32
1422 28
1423 73
1424 64
1425 7
1426 26
1427 84
1428 46
1429 68
1430 29
1431 68
1432 69
1433 2
1434 67
1435 76
1436 45
1437 35
1438 45
1439 89
1440 39
1441 79
1442 0
1443 18
1444 79
1445 77
1446 5
1447 12
1448 12
1449 6
1450 16
1451 37
1452 66
1453 0
1454 47
1455 39
1456 32
1457 93
1458 5
1459 41
1460 73
1461 48
1462 5
1463 77
1464 63
1465 50
1466 25
1467 7
1468 66
1469 42
1470 7
1471 73
1472 40
1473 42
1474 81
1475 20
1476 50
1477 16
1478 55
1479 37
1480 29
1481 82
1482 55
1483 10
1484 18
1485 5
1486 63
1487 68
1488 18
1489 49
1490 68
1491 51
1492 12
1493 79
1494 50
1495 56
1496 1
1497 15
1498 67
1499 32
1500 93
1501 32
1502 33
1503 28
1504 22
1505 32
1506 82
1507 68
1508 74
1509 33
1510 34
1511 12
1512 22
1513 54
1514 32
1515 29
1516 37
1517 32
1518 0
1519 21
1520 43
1521 41
1522 41
1523 5
1524 37
1525 37
1526 50
1527 6
1528 39
1529 26
1530 46
1531 92
1532 12
1533 7
1534 1
1535 87
1536 70
1537 15
1538 72
1539 11
1540 41
1541 0
1542 9
1543 1
1544 85
1545 27
1546 6
1547 24
1548 16
1549 30
1550 68
1551 82
1552 12
1553 18
1554 30
1555 32
1556 23
1557 69
1558 32
1559 73
1560 40
1561 93
1562 34
1563 87
1564 81
1565 37
1566 26
1567 61
1568 63
1569 29
1570 50
1571 55
1572 65
1573 41
1574 32
1575 32
1576 32
1577 2
1578 54
1579 83
1580 5
1581 73
1582 43
1583 5
1584 43
1585 2
1586 25
1587 82
1588 82
1589 68
1590 15
1591 12
1592 4
1593 5
1594 82
1595 18
1596 18
1597 72
1598 14
1599 81
1600 90
1601 10
1602 41
1603 18
1604 38
1605 56
1606 0
1607 35
1608 33
1609 18
1610 73
1611 27
1612 20
1613 1
1614 12
1615 56
1616 5
1617 27
1618 14
1619 33
1620 0
1621 7
1622 68
1623 49
1624 24
1625 70
1626 18
1627 68
1628 18
1629 5
1630 36
1631 68
1632 43
1633 0
1634 69
1635 37
1636 4
1637 69
1638 64
1639 32
1640 73
1641 18
1642 33
1643 8
1644 57
1645 33
1646 68
1647 29
1648 33
1649 16
1650 5
1651 30
1652 20
1653 32
1654 24
1655 30
1656 32
1657 37
1658 43
1659 5
1660 63
1661 55
1662 5
1663 87
1664 36
1665 49
1666 0
1667 19
1668 36
1669 2
1670 41
1671 34
1672 0
1673 9
1674 36
1675 8
1676 76
1677 92
1678 32
1679 32
1680 6
1681 27
1682 87
1683 68
1684 61
1685 11
1686 0
1687 64
1688 73
1689 6
1690 64
1691 33
1692 24
1693 36
1694 15
1695 33
1696 29
1697 93
1698 31
1699 2
1700 73
1701 32
1702 21
1703 30
1704 73
1705 18
1706 5
1707 44
1708 36
1709 18
1710 30
1711 8
1712 78
1713 50
1714 12
1715 65
1716 5
1717 12
1718 32
1719 12
1720 62
1721 23
1722 50
1723 68
1724 15
1725 32
1726 16
1727 18
1728 83
1729 63
1730 90
1731 73
1732 41
1733 73
1734 84
1735 37
1736 36
1737 18
1738 30
1739 1
1740 14
1741 5
1742 39
1743 5
1744 18
1745 36
1746 11
1747 40
1748 8
1749 64
1750 8
1751 8
1752 41
1753 20
1754 5
1755 0
1756 68
1757 12
1758 78
1759 32
1760 39
1761 36
1762 91
1763 13
1764 68
1765 50
1766 27
1767 29
1768 53
1769 68
1770 8
1771 26
1772 32
1773 12
1774 79
1775 12
1776 30
1777 73
1778 68
1779 5
1780 82
1781 64
1782 46
1783 8
1784 78
1785 2
1786 15
1787 32
1788 13
1789 84
1790 12
1791 18
1792 16
1793 92
1794 92
1795 79
1796 33
1797 25
1798 12
1799 68
1800 41
1801 18
1802 50
1803 68
1804 50
1805 34
1806 84
1807 2
1808 32
1809 5
1810 36
1811 5
1812 41
1813 77
1814 73
1815 34
1816 5
1817 32
1818 54
1819 73
1820 32
1821 18
1822 29
1823 84
1824 54
1825 73
1826 29
1827 46
1828 84
1829 78
1830 32
1831 29
1832 5
1833 37
1834 33
1835 41
1836 24
1837 21
1838 65
1839 8
1840 6
1841 5
1842 6
1843 10
1844 63
1845 22
1846 41
1847 5
1848 68
1849 0
1850 33
1851 0
1852 0
1853 33
1854 41
1855 32
1856 39
1857 42
1858 12
1859 0
1860 36
1861 41
1862 85
1863 18
1864 27
1865 84
1866 29
1867 16
1868 47
1869 7
1870 68
1871 2
1872 20
1873 78
1874 86
1875 24
1876 41
1877 36
1878 23
1879 6
1880 18
1881 46
1882 15
1883 30
1884 31
1885 8
1886 73
1887 12
1888 6
1889 36
1890 45
1891 27
1892 32
1893 86
1894 21
1895 63
1896 5
1897 18
1898 24
1899 18
1900 32
1901 60
1902 2
1903 48
1904 42
1905 24
1906 73
1907 25
1908 15
1909 18
1910 16
1911 59
1912 35
1913 66
1914 18
1915 83
1916 92
1917 87
1918 68
1919 59
1920 48
1921 33
1922 66
1923 43
1924 21
1925 5
1926 18
1927 73
1928 68
1929 32
1930 27
1931 32
1932 24
1933 12
1934 2
1935 24
1936 63
1937 87
1938 32
1939 32
1940 68
1941 16
1942 79
1943 95
1944 36
1945 32
1946 18
1947 0
1948 21
1949 33
1950 73
1951 5
1952 29
1953 32
1954 92
1955 19
1956 44
1957 21
1958 54
1959 32
1960 47
1961 26
1962 32
1963 69
1964 41
1965 89
1966 69
1967 3
1968 5
1969 73
1970 12
1971 5
1972 60
1973 18
1974 41
1975 1
1976 27
1977 37
1978 27
1979 29
1980 60
1981 79
1982 51
1983 93
1984 94
1985 68
1986 32
1987 32
1988 26
1989 36
1990 73
1991 31
1992 50
1993 24
1994 2
1995 91
1996 21
1997 27
1998 5
1999 21
2000 72
2001 32
2002 5
2003 63
2004 26
2005 12
2006 0
2007 8
2008 33
2009 48
2010 72
2011 69
2012 50
2013 84
2014 36
2015 37
2016 2
2017 54
2018 83
2019 68
2020 9
2021 50
2022 5
2023 20
2024 41
2025 0
2026 68
2027 32
2028 12
2029 41
2030 48
2031 32
2032 33
2033 32
2034 29
2035 10
2036 5
2037 32
2038 72
2039 12
2040 2
2041 73
2042 32
2043 46
2044 36
2045 16
2046 66
2047 32
2048 21
2049 81
2050 61
2051 77
2052 11
2053 68
2054 27
2055 29
2056 78
2057 62
2058 82
2059 65
2060 21
2061 61
2062 6
2063 20
2064 45
2065 2
2066 6
2067 21
2068 43
2069 93
2070 73
2071 72
2072 67
2073 31
2074 52
2075 33
2076 22
2077 63
2078 51
2079 48
2080 24
2081 41
2082 32
2083 10
2084 4
2085 8
2086 13
2087 24
2088 29
2089 6
2090 18
2091 43
2092 27
2093 48
2094 1
2095 61
2096 35
2097 20
2098 6
2099 80
2100 66
2101 9
2102 27
2103 4
2104 13
2105 37
2106 88
2107 3
2108 5
2109 32
2110 20
2111 50
2112 32
2113 2
2114 85
2115 20
2116 12
2117 43
2118 13
2119 9
2120 46
2121 12
2122 56
2123 92
2124 5
2125 68
2126 75
2127 6
2128 27
2129 68
2130 8
2131 71
2132 50
2133 82
2134 22
2135 23
2136 16
2137 0
2138 83
2139 77
2140 72
2141 35
2142 68
2143 57
2144 26
2145 58
2146 56
2147 70
2148 50
2149 69
2150 29
2151 36
2152 32
2153 7
2154 26
2155 16
2156 0
2157 59
2158 5
2159 0
2160 19
2161 47
2162 64
2163 82
2164 2
2165 27
2166 80
2167 46
2168 65
2169 43
2170 64
2171 3
2172 24
2173 32
2174 41
2175 67
2176 41
2177 55
2178 2
2179 83
2180 37
2181 8
2182 27
2183 79
2184 35
2185 56
2186 77
2187 43
2188 55
2189 12
2190 64
2191 95
2192 6
2193 81
2194 50
2195 22
2196 2
2197 22
2198 18
2199 55
2200 35
2201 1
2202 22
2203 14
2204 3
2205 60
2206 26
2207 63
2208 39
2209 89
2210 15
2211 32
2212 68
2213 19
2214 73
2215 92
2216 47
2217 27
2218 68
2219 91
2220 32
2221 1
2222 73
2223 86
2224 45
2225 5
2226 60
2227 27
2228 68
2229 1
2230 15
2231 48
2232 73
2233 79
2234 67
2235 21
2236 64
2237 64
2238 43
2239 5
2240 20
2241 91
2242 70
2243 5
2244 8
2245 60
2246 9
2247 91
2248 50
2249 8
2250 70
2251 45
2252 41
2253 51
2254 64
2255 36
2256 62
2257 7
2258 15
2259 28
2260 75
2261 70
2262 73
2263 36
2264 11
2265 32
2266 48
2267 61
2268 61
2269 75
2270 84
2271 43
2272 51
2273 11
2274 39
2275 75
2276 10
2277 19
2278 55
2279 0
2280 16
2281 23
2282 33
2283 39
2284 5
2285 78
2286 36
2287 77
2288 68
2289 67
2290 23
2291 32
2292 4
2293 24
2294 6
2295 27
2296 3
2297 68
2298 68
2299 70
2300 24
2301 21
2302 10
2303 7
2304 55
2305 40
2306 23
2307 23
2308 41
2309 8
2310 54
2311 45
2312 10
2313 81
2314 78
2315 6
2316 42
2317 3
2318 23
2319 7
2320 63
2321 61
2322 51
2323 66
2324 42
2325 49
2326 18
2327 16
2328 64
2329 32
2330 77
2331 12
2332 51
2333 53
2334 21
2335 61
2336 23
2337 79
2338 36
2339 42
2340 68
2341 68
2342 26
2343 62
2344 32
2345 12
2346 64
2347 73
2348 64
2349 32
2350 78
2351 42
2352 21
2353 18
2354 12
2355 58
2356 66
2357 60
2358 30
2359 2
2360 44
2361 35
2362 32
2363 7
2364 9
2365 36
2366 29
2367 74
2368 37
2369 78
2370 8
2371 20
2372 18
2373 68
2374 34
2375 9
2376 73
2377 48
2378 85
2379 73
2380 86
2381 23
2382 66
2383 0
2384 37
2385 20
2386 73
2387 79
2388 32
2389 76
2390 84
2391 12
2392 18
2393 45
2394 83
2395 23
2396 15
2397 73
2398 85
2399 12
2400 54
2401 8
2402 32
2403 12
2404 32
2405 64
2406 32
2407 0
2408 32
2409 37
2410 16
2411 41
2412 6
2413 68
2414 32
2415 18
2416 55
2417 63
2418 11
2419 34
2420 33
2421 6
2422 30
2423 49
2424 26
2425 32
2426 10
2427 0
2428 68
2429 95
2430 36
2431 46
2432 42
2433 46
2434 91
2435 66
2436 54
2437 10
2438 36
2439 15
2440 1
2441 29
2442 8
2443 73
2444 37
2445 29
2446 18
2447 12
2448 18
2449 73
2450 68
2451 18
2452 20
2453 69
2454 50
2455 34
2456 93
2457 29
2458 58
2459 6
2460 45
2461 67
2462 67
2463 42
2464 37
2465 32
2466 32
2467 36
2468 82
2469 50
2470 5
2471 39
2472 10
2473 32
2474 50
2475 29
2476 51
2477 12
2478 78
2479 45
2480 68
2481 33
2482 50
2483 68
2484 43
2485 36
2486 12
2487 36
2488 32
2489 73
2490 32
2491 26
2492 18
2493 77
2494 51
2495 36
2496 74
2497 26
2498 7
2499 37
2500 82
2501 76
2502 20
2503 8
2504 51
2505 83
2506 18
2507 18
2508 72
2509 61
2510 37
2511 72
2512 50
2513 25
2514 20
2515 0
2516 73
2517 34
2518 5
2519 12
2520 11
2521 1
2522 31
2523 5
2524 68
2525 41
2526 78
2527 1
2528 37
2529 29
2530 32
2531 69
2532 24
2533 40
2534 72
2535 28
2536 5
2537 16
2538 72
2539 38
2540 32
2541 9
2542 12
2543 0
2544 0
2545 33
2546 32
2547 12
2548 33
2549 84
2550 26
2551 5
2552 0
2553 10
2554 32
2555 33
2556 0
2557 34
2558 1
2559 50
2560 11
2561 43
2562 10
2563 53
2564 66
2565 3
2566 87
2567 47
2568 58
2569 2
2570 37
2571 69
2572 30
2573 68
2574 20
2575 66
2576 68
2577 34
2578 34
2579 46
2580 65
2581 33
2582 2
2583 4
2584 18
2585 8
2586 69
2587 33
2588 32
2589 26
2590 63
2591 50
2592 20
2593 69
2594 33
2595 73
2596 5
2597 42
2598 8
2599 3
2600 72
2601 5
2602 40
2603 44
2604 26
2605 50
2606 41
2607 20
2608 6
2609 5
2610 32
2611 68
2612 29
2613 33
2614 5
2615 15
2616 73
2617 32
2618 73
2619 50
2620 2
2621 48
2622 18
2623 5
2624 12
2625 92
2626 3
2627 59
2628 61
2629 82
2630 60
2631 5
2632 50
2633 68
2634 33
2635 5
2636 73
2637 2
2638 13
2639 5
2640 51
2641 73
2642 11
2643 65
2644 69
2645 0
2646 20
2647 13
2648 5
2649 33
2650 11
2651 27
2652 2
2653 3
2654 53
2655 29
2656 27
2657 18
2658 69
2659 18
2660 2
2661 85
2662 33
2663 75
2664 27
2665 30
2666 73
2667 79
2668 0
2669 68
2670 62
2671 70
2672 19
2673 32
2674 24
2675 55
2676 40
2677 27
2678 61
2679 11
2680 18
2681 75
2682 5
2683 33
2684 70
2685 5
2686 71
2687 5
2688 32
2689 16
2690 45
2691 51
2692 32
2693 5
2694 51
2695 30
2696 68
2697 36
2698 72
2699 32
2700 55
2701 53
2702 27
2703 12
2704 29
2705 5
2706 51
2707 63
2708 5
2709 29
2710 14
2711 29
2712 51
2713 10
2714 0
2715 51
2716 68
2717 64
2718 2
2719 15
2720 85
2721 6
2722 26
2723 25
2724 23
2725 64
2726 76
2727 83
2728 18
2729 75
2730 12
2731 8
2732 5
2733 15
2734 26
2735 5
2736 2
2737 63
2738 36
2739 85
2740 18
2741 12
2742 0
2743 50
2744 78
2745 47
2746 8
2747 32
2748 32
2749 15
2750 18
2751 12
2752 6
2753 36
2754 32
2755 32
2756 55
2757 33
2758 22
2759 45
2760 0
2761 36
2762 73
2763 89
2764 2
2765 90
2766 68
2767 47
2768 32
2769 29
2770 68
2771 77
2772 50
2773 18
2774 84
2775 18
2776 4
2777 5
2778 14
2779 36
2780 8
2781 92
2782 12
2783 23
2784 68
2785 78
2786 36
2787 7
2788 42
2789 64
2790 28
2791 51
2792 36
2793 5
2794 37
2795 36
2796 16
2797 5
2798 18
2799 8
2800 5
2801 41
2802 5
2803 77
2804 0
2805 36
2806 51
2807 2
2808 81
2809 73
2810 5
2811 8
2812 50
2813 44
2814 46
2815 37
2816 32
2817 2
2818 6
2819 82
2820 32
2821 29
2822 5
2823 41
2824 42
2825 37
2826 32
2827 32
2828 26
2829 33
2830 61
2831 18
2832 84
2833 5
2834 12
2835 88
2836 50
2837 54
2838 42
2839 50
2840 8
2841 6
2842 6
2843 68
2844 36
2845 32
2846 5
2847 5
2848 68
2849 54
2850 27
2851 58
2852 36
2853 5
2854 32
2855 50
2856 73
2857 11
2858 13
2859 45
2860 16
2861 36
2862 32
2863 27
2864 77
2865 32
2866 35
2867 36
2868 92
2869 37
2870 59
2871 16
2872 15
2873 33
2874 27
2875 26
2876 29
2877 6
2878 68
2879 2
2880 15
2881 77
2882 33
2883 73
2884 83
2885 2
2886 5
2887 33
2888 6
2889 12
2890 79
2891 78
2892 50
2893 27
2894 33
2895 60
2896 32
2897 34
2898 83
2899 7
2900 92
2901 50
2902 73
2903 18
2904 33
2905 68
2906 18
2907 73
2908 6
2909 77
2910 0
2911 66
2912 41
2913 18
2914 33
2915 66
2916 18
2917 68
2918 47
2919 5
2920 15
2921 68
2922 32
2923 15
2924 32
2925 63
2926 8
2927 32
2928 5
2929 50
2930 27
2931 23
2932 32
2933 54
2934 43
2935 8
2936 48
2937 73
2938 36
2939 25
2940 29
2941 0
2942 43
2943 30
2944 29
2945 36
2946 46
2947 0
2948 36
2949 68
2950 27
2951 50
2952 5
2953 62
2954 62
2955 55
2956 50
2957 32
2958 32
2959 8
2960 32
2961 21
2962 86
2963 5
2964 24
2965 24
2966 21
2967 25
2968 50
2969 18
2970 5
2971 29
2972 32
2973 54
2974 12
2975 10
2976 68
2977 32
2978 39
2979 27
2980 12
2981 51
2982 35
2983 27
2984 5
2985 51
2986 18
2987 50
2988 15
2989 12
2990 29
2991 33
2992 7
2993 35
2994 20
2995 2
2996 5
2997 23
2998 37
2999 18
3000 33
3001 81
3002 41
3003 68
3004 29
3005 27
3006 21
3007 50
3008 8
3009 0
3010 6
3011 26
3012 82
3013 41
3014 37
3015 0
3016 26
3017 12
3018 84
3019 50
3020 48
3021 68
3022 8
3023 37
3024 20
3025 24
3026 87
3027 33
3028 18
3029 20
3030 68
3031 0
3032 27
3033 36
3034 6
3035 24
3036 21
3037 18
3038 42
3039 26
3040 89
3041 57
3042 68
3043 51
3044 66
3045 21
3046 95
3047 44
3048 29
3049 31
3050 41
3051 73
3052 32
3053 2
3054 72
3055 88
3056 42
3057 26
3058 61
3059 41
3060 32
3061 9
3062 73
3063 50
3064 0
3065 23
3066 27
3067 26
3068 85
3069 12
3070 73
3071 26
3072 64
3073 18
3074 50
3075 9
3076 50
3077 2
3078 73
3079 27
3080 85
3081 42
3082 30
3083 48
3084 94
3085 82
3086 20
3087 4
3088 5
3089 41
3090 42
3091 32
3092 41
3093 50
3094 51
3095 27
3096 37
3097 48
3098 68
3099 33
3100 65
3101 16
3102 65
3103 3
3104 9
3105 11
3106 12
3107 29
3108 19
3109 5
3110 36
3111 17
3112 41
3113 21
3114 4
3115 29
3116 5
3117 72
3118 43
3119 24
3120 87
3121 75
3122 5
3123 72
3124 43
3125 3
3126 81
3127 39
3128 66
3129 43
3130 12
3131 12
3132 79
3133 78
3134 33
3135 29
3136 32
3137 12
3138 5
3139 32
3140 12
3141 25
3142 21
3143 27
3144 64
3145 32
3146 6
3147 26
3148 65
3149 54
3150 88
3151 28
3152 20
3153 84
3154 52
3155 32
3156 18
3157 18
3158 28
3159 49
3160 18
3161 38
3162 49
3163 8
3164 19
3165 83
3166 78
3167 12
3168 68
3169 84
3170 48
3171 23
3172 85
3173 33
3174 51
3175 64
3176 18
3177 36
3178 33
3179 24
3180 8
3181 85
3182 79
3183 8
3184 12
3185 18
3186 21
3187 44
3188 32
3189 85
3190 32
3191 47
3192 44
3193 55
3194 41
3195 67
3196 5
3197 53
3198 4
3199 2
3200 73
3201 87
3202 82
3203 63
3204 18
3205 0
3206 5
3207 5
3208 42
3209 5
3210 37
3211 91
3212 5
3213 2
3214 73
3215 8
3216 0
3217 94
3218 68
3219 35
3220 67
3221 32
3222 24
3223 73
3224 0
3225 37
3226 72
3227 5
3228 0
3229 73
3230 89
3231 5
3232 13
3233 68
3234 36
3235 21
3236 14
3237 5
3238 18
3239 72
3240 32
3241 12
3242 2
3243 64
3244 64
3245 50
3246 85
3247 29
3248 0
3249 34
3250 20
3251 5
3252 5
3253 50
3254 40
3255 51
3256 32
3257 73
3258 93
3259 59
3260 12
3261 15
3262 12
3263 15
3264 79
3265 18
3266 50
3267 22
3268 88
3269 66
3270 2
3271 23
3272 27
3273 56
3274 50
3275 8
3276 18
3277 73
3278 65
3279 62
3280 40
3281 41
3282 66
3283 8
3284 91
3285 73
3286 68
3287 36
3288 27
3289 18
3290 85
3291 58
3292 73
3293 2
3294 64
3295 2
3296 8
3297 11
3298 8
3299 27
3300 8
3301 32
3302 2
3303 95
3304 32
3305 51
3306 1
3307 5
3308 68
3309 8
3310 47
3311 55
3312 82
3313 55
3314 3
3315 6
3316 78
3317 68
3318 73
3319 86
3320 55
3321 13
3322 73
3323 73
3324 8
3325 15
3326 0
3327 5
3328 32
3329 42
3330 61
3331 87
3332 6
3333 21
3334 49
3335 47
3336 48
3337 61
3338 0
3339 13
3340 2
3341 90
3342 78
3343 8
3344 18
3345 61
3346 61
3347 5
3348 63
3349 46
3350 0
3351 36
3352 0
3353 85
3354 18
3355 15
3356 30
3357 2
3358 6
3359 42
3360 32
3361 0
3362 77
3363 27
3364 10
3365 32
3366 5
3367 0
3368 14
3369 76
3370 25
3371 29
3372 47
3373 88
3374 32
3375 5
3376 5
3377 27
3378 73
3379 2
3380 8
3381 32
3382 12
3383 5
3384 6
3385 91
3386 69
3387 30
3388 65
3389 68
3390 40
3391 41
3392 25
3393 2
3394 5
3395 54
3396 14
3397 21
3398 46
3399 35
3400 5
3401 78
3402 5
3403 68
3404 32
3405 47
3406 82
3407 66
3408 63
3409 3
3410 73
3411 51
3412 18
3413 18
3414 68
3415 68
3416 53
3417 85
3418 5
3419 47
3420 5
3421 77
3422 6
3423 2
3424 12
3425 65
3426 9
3427 12
3428 8
3429 16
3430 8
3431 32
3432 51
3433 5
3434 73
3435 12
3436 29
3437 21
3438 92
3439 29
3440 82
3441 32
3442 79
3443 37
3444 2
3445 68
3446 48
3447 3
3448 63
3449 46
3450 32
3451 18
3452 37
3453 78
3454 42
3455 37
3456 32
3457 2
3458 64
3459 88
3460 15
3461 77
3462 62
3463 32
3464 23
3465 5
3466 29
3467 50
3468 68
3469 63
3470 29
3471 36
3472 11
3473 36
3474 5
3475 5
3476 63
3477 5
3478 50
3479 67
3480 21
3481 32
3482 51
3483 8
3484 73
3485 85
3486 64
3487 15
3488 44
3489 5
3490 68
3491 32
3492 51
3493 36
3494 81
3495 32
3496 32
3497 29
3498 12
3499 6
3500 56
3501 42
3502 5
3503 89
3504 51
3505 5
3506 63
3507 41
3508 33
3509 22
3510 42
3511 73
3512 33
3513 60
3514 31
3515 92
3516 12
3517 12
3518 70
3519 32
3520 50
3521 68
3522 5
3523 17
3524 91
3525 29
3526 73
3527 50
3528 41
3529 40
3530 32
3531 0
3532 5
3533 61
3534 68
3535 27
3536 8
3537 8
3538 72
3539 16
3540 47
3541 56
3542 12
3543 7
3544 36
3545 37
3546 8
3547 24
3548 26
3549 84
3550 36
3551 32
3552 69
3553 28
3554 26
3555 73
3556 50
3557 10
3558 51
3559 50
3560 43
3561 68
3562 0
3563 72
3564 18
3565 5
3566 33
3567 11
3568 8
3569 20
3570 13
3571 24
3572 18
3573 36
3574 69
3575 59
3576 18
3577 2
3578 33
3579 24
3580 48
3581 2
3582 0
3583 62
3584 73
3585 36
3586 26
3587 70
3588 32
3589 29
3590 42
3591 2
3592 37
3593 51
3594 24
3595 61
3596 24
3597 21
3598 73
3599 9
3600 3
3601 33
3602 30
3603 43
3604 26
3605 11
3606 32
3607 20
3608 33
3609 65
3610 46
3611 31
3612 39
3613 60
3614 5
3615 23
3616 12
3617 16
3618 3
3619 0
3620 64
3621 36
3622 69
3623 5
3624 42
3625 15
3626 4
3627 33
3628 20
3629 50
3630 82
3631 31
3632 78
3633 92
3634 2
3635 2
3636 46
3637 5
3638 12
3639 68
3640 80
3641 4
3642 18
3643 54
3644 18
3645 84
3646 16
3647 32
3648 78
3649 32
3650 12
3651 41
3652 32
3653 29
3654 12
3655 41
3656 68
3657 8
3658 33
3659 75
3660 31
3661 77
3662 5
3663 18
3664 20
3665 29
3666 12
3667 34
3668 5
3669 42
3670 13
3671 28
3672 27
3673 42
3674 78
3675 54
3676 10
3677 73
3678 68
3679 3
3680 34
3681 41
3682 63
3683 18
3684 69
3685 68
3686 32
3687 5
3688 62
3689 0
3690 80
3691 73
3692 33
3693 73
3694 29
3695 47
3696 5
3697 43
3698 47
3699 21
3700 44
3701 39
3702 73
3703 48
3704 29
3705 45
3706 16
3707 51
3708 8
3709 2
3710 24
3711 67
3712 61
3713 5
3714 67
3715 29
3716 83
3717 0
3718 12
3719 36
3720 27
3721 32
3722 32
3723 5
3724 32
3725 28
3726 67
3727 5
3728 13
3729 0
3730 27
3731 18
3732 12
3733 25
3734 0
3735 2
3736 67
3737 38
3738 63
3739 73
3740 68
3741 29
3742 15
3743 29
3744 19
3745 51
3746 51
3747 34
3748 41
3749 83
3750 78
3751 43
3752 18
3753 2
3754 75
3755 32
3756 8
3757 12
3758 15
3759 0
3760 5
3761 67
3762 0
3763 15
3764 29
3765 1
3766 40
3767 24
3768 18
3769 85
3770 43
3771 36
3772 68
3773 29
3774 26
3775 84
3776 36
3777 5
3778 68
3779 32
3780 18
3781 73
3782 22
3783 55
3784 68
3785 32
3786 84
3787 8
3788 18
3789 55
3790 32
3791 53
3792 22
3793 50
3794 12
3795 24
3796 79
3797 48
3798 12
3799 15
3800 85
3801 73
3802 78
3803 73
3804 23
3805 82
3806 32
3807 68
3808 32
3809 12
3810 12
3811 63
3812 29
3813 42
3814 2
3815 37
3816 37
3817 55
3818 16
3819 92
3820 37
3821 91
3822 84
3823 20
3824 81
3825 25
3826 68
3827 41
3828 22
3829 2
3830 12
3831 12
3832 42
3833 6
3834 68
3835 42
3836 33
3837 37
3838 32
3839 25
3840 55
3841 93
3842 5
3843 29
3844 50
3845 20
3846 68
3847 81
3848 73
3849 15
3850 12
3851 37
3852 73
3853 41
3854 32
3855 32
3856 15
3857 21
3858 32
3859 61
3860 2
3861 50
3862 41
3863 61
3864 5
3865 30
3866 55
3867 41
3868 6
3869 40
3870 24
3871 82
3872 86
3873 27
3874 41
3875 33
3876 77
3877 41
3878 36
3879 68
3880 18
3881 21
3882 0
3883 36
3884 36
3885 41
3886 6
3887 5
3888 18
3889 6
3890 73
3891 5
3892 8
3893 81
3894 37
3895 36
3896 42
3897 2
3898 32
3899 59
3900 29
3901 92
3902 32
3903 36
3904 29
3905 70
3906 10
3907 32
3908 18
3909 64
3910 50
3911 64
3912 30
3913 5
3914 5
3915 41
3916 77
3917 4
3918 27
3919 0
3920 32
3921 51
3922 3
3923 24
3924 68
3925 16
3926 41
3927 33
3928 37
3929 2
3930 36
3931 5
3932 0
3933 5
3934 84
3935 32
3936 5
3937 68
3938 24
3939 41
3940 73
3941 0
3942 33
3943 42
3944 29
3945 50
3946 29
3947 27
3948 50
3949 27
3950 26
3951 0
3952 5
3953 29
3954 5
3955 5
3956 36
3957 5
3958 73
3959 73
3960 54
3961 24
3962 85
3963 32
3964 18
3965 12
3966 26
3967 73
3968 5
3969 42
3970 37
3971 45
3972 5
3973 6
3974 68
3975 16
3976 32
3977 3
3978 50
3979 2
3980 23
3981 33
3982 29
3983 27
3984 41
3985 28
3986 63
3987 3
3988 73
3989 33
3990 42
3991 27
3992 0
3993 73
3994 33
3995 33
3996 15
3997 18
3998 5
3999 73
4000 78
4001 29
4002 26
4003 5
4004 54
4005 21
4006 5
4007 73
4008 6
4009 49
4010 6
4011 55
4012 6
4013 27
4014 68
4015 32
4016 86
4017 24
4018 81
4019 68
4020 27
4021 25
4022 82
4023 33
4024 24
4025 32
4026 1
4027 32
4028 12
4029 80
4030 73
4031 29
4032 77
4033 27
4034 2
4035 73
4036 50
4037 80
4038 5
4039 29
4040 32
4041 36
4042 30
4043 66
4044 18
4045 2
4046 73
4047 33
4048 29
4049 7
4050 26
4051 32
4052 67
4053 27
4054 18
4055 27
4056 36
4057 70
4058 12
4059 27
4060 6
4061 6
4062 33
4063 50
4064 24
4065 33
4066 6
4067 2
4068 32
4069 29
4070 12
4071 21
4072 3
4073 27
4074 0
4075 32
4076 9
4077 15
4078 32
4079 78
4080 27
4081 82
4082 68
4083 36
4084 5
4085 5
4086 26
4087 54
4088 26
4089 31
4090 12
4091 29
4092 64
4093 37
4094 21
4095 19
4096 9
4097 38
4098 78
4099 43
4100 17
4101 5
4102 45
4103 0
4104 6
4105 78
4106 68
4107 10
4108 51
4109 65
4110 42
4111 42
4112 54
4113 77
4114 12
4115 28
4116 48
4117 63
4118 5
4119 32
4120 26
4121 68
4122 43
4123 6
4124 40
4125 20
4126 7
4127 77
4128 61
4129 9
4130 10
4131 5
4132 61
4133 69
4134 30
4135 47
4136 0
4137 63
4138 33
4139 27
4140 83
4141 61
4142 2
4143 85
4144 6
4145 31
4146 29
4147 47
4148 10
4149 62
4150 34
4151 5
4152 33
4153 1
4154 27
4155 5
4156 40
4157 68
4158 43
4159 57
4160 36
4161 35
4162 84
4163 85
4164 5
4165 73
4166 6
4167 68
4168 5
4169 47
4170 86
4171 56
4172 33
4173 27
4174 27
4175 38
4176 60
4177 85
4178 23
4179 33
4180 5
4181 6
4182 41
4183 88
4184 36
4185 68
4186 29
4187 43
4188 46
4189 24
4190 5
4191 13
4192 72
4193 48
4194 68
4195 40
4196 68
4197 13
4198 18
4199 2
4200 11
4201 32
4202 29
4203 2
4204 62
4205 21
4206 24
4207 58
4208 21
4209 70
4210 37
4211 32
4212 82
4213 85
4214 63
4215 29
4216 10
4217 23
4218 7
4219 9
4220 47
4221 55
4222 20
4223 95
4224 18
4225 68
4226 46
4227 47
4228 63
4229 49
4230 22
4231 6
4232 61
4233 47
4234 72
4235 17
4236 85
4237 62
4238 50
4239 68
4240 3
4241 24
4242 79
4243 21
4244 68
4245 53
4246 9
4247 55
4248 68
4249 51
4250 32
4251 63
4252 34
4253 34
4254 32
4255 88
4256 55
4257 36
4258 21
4259 50
4260 45
4261 5
4262 68
4263 1
4264 9
4265 60
4266 43
4267 64
4268 15
4269 41
4270 85
4271 51
4272 55
4273 68
4274 67
4275 16
4276 73
4277 33
4278 5
4279 83
4280 19
4281 2
4282 68
4283 24
4284 56
4285 47
4286 63
4287 69
4288 55
4289 34
4290 61
4291 68
4292 24
4293 81
4294 29
4295 63
4296 68
4297 7
4298 70
4299 27
4300 63
4301 73
4302 24
4303 6
4304 73
4305 62
4306 73
4307 48
4308 15
4309 33
4310 93
4311 5
4312 5
4313 31
4314 10
4315 25
4316 8
4317 13
4318 88
4319 41
4320 68
4321 91
4322 21
4323 4
4324 11
4325 46
4326 68
4327 39
4328 42
4329 32
4330 52
4331 62
4332 41
4333 77
4334 61
4335 63
4336 78
4337 91
4338 39
4339 3
4340 72
4341 5
4342 42
4343 73
4344 65
4345 5
4346 42
4347 77
4348 19
4349 85
4350 61
4351 54
4352 16
4353 42
4354 42
4355 63
4356 13
4357 91
4358 4
4359 75
4360 88
4361 12
4362 3
4363 10
4364 29
4365 1
4366 13
4367 59
4368 21
4369 28
4370 61
4371 13
4372 72
4373 66
4374 10
4375 79
4376 9
4377 3
4378 90
4379 32
4380 12
4381 54
4382 76
4383 55
4384 47
4385 23
4386 18
4387 11
4388 72
4389 66
4390 59
4391 32
4392 4
4393 73
4394 79
4395 8
4396 24
4397 79
4398 12
4399 77
4400 71
4401 14
4402 32
4403 41
4404 77
4405 65
4406 77
4407 92
4408 23
4409 32
4410 0
4411 54
4412 27
4413 16
4414 32
4415 32
4416 51
4417 23
4418 66
4419 4
4420 68
4421 64
4422 65
4423 67
4424 77
4425 0
4426 63
4427 23
4428 25
4429 32
4430 78
4431 83
4432 18
4433 10
4434 86
4435 5
4436 37
4437 23
4438 11
4439 16
4440 26
4441 13
4442 21
4443 36
4444 67
4445 22
4446 68
4447 11
4448 27
4449 42
4450 81
4451 0
4452 0
4453 73
4454 33
4455 49
4456 56
4457 0
4458 73
4459 0
4460 68
4461 29
4462 18
4463 58
4464 70
4465 30
4466 29
4467 30
4468 93
4469 54
4470 40
4471 25
4472 12
4473 28
4474 73
4475 15
4476 18
4477 92
4478 47
4479 32
4480 64
4481 50
4482 32
4483 36
4484 19
4485 63
4486 62
4487 32
4488 3
4489 29
4490 5
4491 36
4492 37
4493 73
4494 50
4495 37
4496 50
4497 3
4498 0
4499 61
4500 87
4501 73
4502 32
4503 78
4504 0
4505 20
4506 19
4507 30
4508 18
4509 50
4510 36
4511 32
4512 4
4513 83
4514 5
4515 8
4516 68
4517 68
4518 20
4519 23
4520 28
4521 12
4522 42
4523 51
4524 73
4525 2
4526 32
4527 47
4528 28
4529 18
4530 41
4531 29
4532 2
4533 73
4534 2
4535 68
4536 68
4537 20
4538 20
4539 2
4540 51
4541 0
4542 88
4543 54
4544 18
4545 37
4546 76
4547 12
4548 36
4549 41
4550 72
4551 91
4552 72
4553 26
4554 65
4555 82
4556 12
4557 5
4558 36
4559 8
4560 36
4561 64
4562 29
4563 92
4564 29
4565 16
4566 20
4567 68
4568 16
4569 37
4570 63
4571 67
4572 0
4573 73
4574 29
4575 62
4576 2
4577 33
4578 23
4579 16
4580 0
4581 80
4582 1
4583 73
4584 45
4585 31
4586 5
4587 89
4588 2
4589 11
4590 32
4591 68
4592 48
4593 2
4594 46
4595 12
4596 77
4597 68
4598 29
4599 50
4600 33
4601 79
4602 1
4603 41
4604 46
4605 5
4606 18
4607 36
4608 15
4609 42
4610 24
4611 3
4612 9
4613 8
4614 73
4615 10
4616 11
4617 2
4618 43
4619 13
4620 20
4621 65
4622 39
4623 2
4624 66
4625 78
4626 37
4627 51
4628 68
4629 41
4630 68
4631 66
4632 51
4633 68
4634 61
4635 18
4636 32
4637 32
4638 82
4639 68
4640 33
4641 41
4642 9
4643 37
4644 48
4645 66
4646 79
4647 38
4648 73
4649 38
4650 68
4651 68
4652 43
4653 52
4654 92
4655 33
4656 70
4657 5
4658 66
4659 79
4660 80
4661 41
4662 28
4663 60
4664 87
4665 73
4666 12
4667 48
4668 68
4669 10
4670 48
4671 18
4672 18
4673 92
4674 13
4675 0
4676 23
4677 24
4678 25
4679 16
4680 5
4681 68
4682 43
4683 48
4684 5
4685 13
4686 5
4687 32
4688 5
4689 12
4690 8
4691 23
4692 92
4693 26
4694 42
4695 68
4696 0
4697 37
4698 24
4699 70
4700 26
4701 41
4702 86
4703 5
4704 26
4705 13
4706 5
4707 86
4708 68
4709 0
4710 3
4711 33
4712 43
4713 8
4714 61
4715 73
4716 27
4717 4
4718 85
4719 5
4720 92
4721 21
4722 32
4723 68
4724 6
4725 2
4726 26
4727 68
4728 63
4729 27
4730 64
4731 73
4732 43
4733 0
4734 73
4735 92
4736 32
4737 32
4738 51
4739 18
4740 12
4741 36
4742 12
4743 4
4744 18
4745 18
4746 22
4747 0
4748 5
4749 68
4750 61
4751 15
4752 26
4753 2
4754 18
4755 55
4756 50
4757 36
4758 51
4759 83
4760 15
4761 32
4762 64
4763 47
4764 12
4765 5
4766 5
4767 27
4768 61
4769 41
4770 40
4771 68
4772 2
4773 64
4774 26
4775 36
4776 50
4777 63
4778 68
4779 68
4780 2
4781 74
4782 12
4783 51
4784 68
4785 15
4786 14
4787 55
4788 18
4789 81
4790 32
4791 68
4792 23
4793 32
4794 73
4795 18
4796 93
4797 5
4798 63
4799 32
4800 33
4801 16
4802 26
4803 68
4804 0
4805 51
4806 5
4807 0
4808 2
4809 37
4810 29
4811 16
4812 73
4813 75
4814 32
4815 24
4816 15
4817 32
4818 58
4819 23
4820 18
4821 37
4822 68
4823 11
4824 9
4825 23
4826 89
4827 32
4828 50
4829 73
4830 10
4831 32
4832 18
4833 73
4834 8
4835 20
4836 5
4837 68
4838 68
4839 46
4840 21
4841 63
4842 32
4843 52
4844 9
4845 2
4846 32
4847 7
4848 50
4849 42
4850 82
4851 15
4852 32
4853 37
4854 73
4855 32
4856 32
4857 18
4858 8
4859 12
4860 37
4861 3
4862 41
4863 8
4864 1
4865 77
4866 32
4867 55
4868 36
4869 33
4870 82
4871 18
4872 4
4873 18
4874 51
4875 47
4876 68
4877 12
4878 0
4879 64
4880 50
4881 66
4882 41
4883 67
4884 8
4885 37
4886 63
4887 5
4888 18
4889 8
4890 32
4891 85
4892 37
4893 64
4894 2
4895 5
4896 32
4897 9
4898 29
4899 63
4900 88
4901 5
4902 2
4903 33
4904 41
4905 9
4906 18
4907 50
4908 64
4909 73
4910 36
4911 73
4912 29
4913 4
4914 36
4915 32
4916 41
4917 5
4918 12
4919 30
4920 12
4921 27
4922 32
4923 7
4924 21
4925 5
4926 3
4927 27
4928 2
4929 29
4930 33
4931 11
4932 32
4933 33
4934 6
4935 37
4936 29
4937 8
4938 82
4939 32
4940 73
4941 12
4942 78
4943 27
4944 5
4945 47
4946 42
4947 18
4948 23
4949 8
4950 32
4951 5
4952 33
4953 94
4954 73
4955 4
4956 2
4957 77
4958 69
4959 9
4960 12
4961 36
4962 18
4963 13
4964 5
4965 3
4966 36
4967 33
4968 26
4969 29
4970 21
4971 36
4972 37
4973 37
4974 33
4975 8
4976 5
4977 31
4978 3
4979 18
4980 3
4981 5
4982 7
4983 50
4984 32
4985 24
4986 2
4987 24
4988 78
4989 5
4990 24
4991 36
4992 32
4993 27
4994 6
4995 63
4996 8
4997 26
4998 29
4999 5
5000 37
5001 41
5002 33
5003 93
5004 41
5005 6
5006 37
5007 6
5008 73
5009 47
5010 63
5011 24
5012 27
5013 32
5014 0
5015 32
5016 36
5017 32
5018 41
5019 2
5020 6
5021 12
5022 46
5023 33
5024 29
5025 5
5026 77
5027 68
5028 2
5029 68
5030 18
5031 82
5032 48
5033 33
5034 26
5035 6
5036 34
5037 27
5038 34
5039 21
5040 67
5041 0
5042 61
5043 91
5044 24
5045 27
5046 2
5047 32
5048 32
5049 0
5050 41
5051 68
5052 20
5053 18
5054 5
5055 5
5056 5
5057 73
5058 50
5059 85
5060 62
5061 68
5062 5
5063 12
5064 61
5065 66
5066 5
5067 33
5068 26
5069 20
5070 36
5071 68
5072 34
5073 73
5074 50
5075 0
5076 36
5077 48
5078 33
5079 2
5080 25
5081 6
5082 0
5083 5
5084 31
5085 73
5086 25
5087 36
5088 6
5089 73
5090 0
5091 33
5092 50
5093 39
5094 10
5095 24
5096 27
5097 0
5098 5
5099 5
5100 28
5101 12
5102 78
5103 26
5104 21
5105 29
5106 37
5107 32
5108 32
5109 41
5110 27
5111 32
5112 38
5113 27
5114 18
5115 73
5116 9
5117 21
5118 43
5119 24
5120 40
5121 68
5122 40
5123 87
5124 31
5125 33
5126 29
5127 2
5128 59
5129 18
5130 44
5131 55
5132 5
5133 31
5134 68
5135 73
5136 84
5137 36
5138 48
5139 43
5140 29
5141 5
5142 90
5143 41
5144 73
5145 4
5146 50
5147 14
5148 10
5149 51
5150 60
5151 2
5152 25
5153 64
5154 24
5155 72
5156 30
5157 68
5158 73
5159 3
5160 5
5161 5
5162 85
5163 84
5164 6
5165 57
5166 5
5167 77
5168 40
5169 10
5170 21
5171 33
5172 73
5173 81
5174 6
5175 26
5176 14
5177 2
5178 19
5179 6
5180 56
5181 34
5182 44
5183 2
5184 16
5185 12
5186 40
5187 71
5188 20
5189 26
5190 40
5191 68
5192 37
5193 26
5194 36
5195 23
5196 68
5197 86
5198 4
5199 24
5200 29
5201 29
5202 42
5203 12
5204 32
5205 18
5206 5
5207 15
5208 20
5209 68
5210 12
5211 6
5212 68
5213 12
5214 18
5215 27
5216 89
5217 62
5218 79
5219 34
5220 57
5221 37
5222 29
5223 92
5224 83
5225 50
5226 26
5227 27
5228 48
5229 32
5230 63
5231 28
5232 12
5233 51
5234 18
5235 82
5236 53
5237 92
5238 2
5239 93
5240 72
5241 18
5242 85
5243 5
5244 53
5245 12
5246 73
5247 5
5248 5
5249 5
5250 45
5251 24
5252 47
5253 27
5254 0
5255 18
5256 6
5257 41
5258 64
5259 73
5260 2
5261 49
5262 37
5263 0
5264 73
5265 5
5266 38
5267 15
5268 19
5269 2
5270 83
5271 5
5272 82
5273 27
5274 10
5275 64
5276 22
5277 85
5278 32
5279 13
5280 85
5281 0
5282 8
5283 63
5284 73
5285 73
5286 66
5287 22
5288 36
5289 81
5290 72
5291 73
5292 35
5293 5
5294 12
5295 3
5296 18
5297 5
5298 5
5299 73
5300 8
5301 20
5302 5
5303 6
5304 18
5305 73
5306 41
5307 32
5308 5
5309 81
5310 18
5311 91
5312 51
5313 48
5314 2
5315 49
5316 26
5317 37
5318 81
5319 2
5320 78
5321 2
5322 0
5323 55
5324 11
5325 51
5326 68
5327 15
5328 66
5329 15
5330 24
5331 18
5332 39
5333 47
5334 2
5335 68
5336 5
5337 2
5338 63
5339 5
5340 79
5341 53
5342 12
5343 13
5344 62
5345 5
5346 2
5347 16
5348 42
5349 41
5350 5
5351 54
5352 73
5353 81
5354 85
5355 3
5356 5
5357 23
5358 32
5359 64
5360 31
5361 92
5362 18
5363 59
5364 5
5365 69
5366 5
5367 82
5368 72
5369 81
5370 38
5371 18
5372 64
5373 8
5374 91
5375 16
5376 5
5377 73
5378 8
5379 73
5380 68
5381 76
5382 20
5383 77
5384 27
5385 46
5386 2
5387 26
5388 73
5389 40
5390 7
5391 59
5392 18
5393 82
5394 28
5395 5
5396 2
5397 32
5398 2
5399 32
5400 55
5401 6
5402 33
5403 5
5404 64
5405 18
5406 73
5407 0
5408 12
5409 5
5410 0
5411 36
5412 20
5413 42
5414 55
5415 68
5416 1
5417 36
5418 8
5419 47
5420 68
5421 93
5422 27
5423 5
5424 45
5425 12
5426 45
5427 71
5428 81
5429 32
5430 73
5431 65
5432 18
5433 76
5434 42
5435 36
5436 72
5437 32
5438 78
5439 12
5440 12
5441 63
5442 55
5443 6
5444 15
5445 68
5446 0
5447 15
5448 53
5449 68
5450 2
5451 32
5452 81
5453 5
5454 37
5455 8
5456 23
5457 37
5458 37
5459 49
5460 12
5461 0
5462 37
5463 32
5464 82
5465 32
5466 18
5467 13
5468 11
5469 18
5470 2
5471 8
5472 15
5473 31
5474 73
5475 53
5476 66
5477 32
5478 33
5479 18
5480 73
5481 11
5482 95
5483 29
5484 82
5485 72
5486 48
5487 32
5488 45
5489 37
5490 68
5491 12
5492 32
5493 32
5494 5
5495 48
5496 0
5497 2
5498 2
5499 69
5500 31
5501 15
5502 68
5503 72
5504 12
5505 5
5506 29
5507 2
5508 92
5509 68
5510 42
5511 36
5512 18
5513 5
5514 12
5515 18
5516 37
5517 49
5518 73
5519 24
5520 68
5521 50
5522 32
5523 65
5524 94
5525 5
5526 15
5527 38
5528 0
5529 69
5530 54
5531 18
5532 18
5533 37
5534 50
5535 20
5536 32
5537 4
5538 40
5539 32
5540 76
5541 12
5542 68
5543 68
5544 12
5545 60
5546 6
5547 5
5548 47
5549 89
5550 0
5551 36
5552 69
5553 5
5554 29
5555 29
5556 50
5557 66
5558 33
5559 32
5560 19
5561 12
5562 33
5563 0
5564 88
5565 84
5566 40
5567 5
5568 22
5569 5
5570 74
5571 63
5572 66
5573 82
5574 29
5575 84
5576 33
5577 54
5578 54
5579 36
5580 32
5581 89
5582 73
5583 33
5584 4
5585 79
5586 31
5587 40
5588 41
5589 0
5590 16
5591 2
5592 79
5593 12
5594 55
5595 29
5596 5
5597 26
5598 67
5599 61
5600 15
5601 73
5602 61
5603 2
5604 26
5605 92
5606 71
5607 19
5608 66
5609 93
5610 89
5611 0
5612 73
5613 50
5614 51
5615 23
5616 31
5617 32
5618 5
5619 29
5620 38
5621 12
5622 72
5623 16
5624 5
5625 50
5626 5
5627 29
5628 31
5629 5
5630 65
5631 5
5632 20
5633 33
5634 13
5635 62
5636 72
5637 84
5638 19
5639 61
5640 73
5641 72
5642 63
5643 51
5644 73
5645 77
5646 26
5647 17
5648 37
5649 46
5650 50
5651 35
5652 19
5653 36
5654 77
5655 4
5656 23
5657 3
5658 22
5659 43
5660 68
5661 48
5662 2
5663 63
5664 5
5665 36
5666 2
5667 39
5668 37
5669 24
5670 84
5671 2
5672 14
5673 32
5674 48
5675 73
5676 36
5677 41
5678 69
5679 68
5680 68
5681 61
5682 85
5683 24
5684 50
5685 92
5686 48
5687 11
5688 41
5689 36
5690 33
5691 66
5692 41
5693 3
5694 68
5695 24
5696 36
5697 6
5698 5
5699 73
5700 62
5701 68
5702 50
5703 16
5704 32
5705 56
5706 68
5707 2
5708 43
5709 32
5710 12
5711 68
5712 32
5713 18
5714 0
5715 67
5716 13
5717 72
5718 68
5719 48
5720 0
5721 33
5722 51
5723 56
5724 57
5725 23
5726 33
5727 36
5728 26
5729 73
5730 50
5731 12
5732 5
5733 3
5734 18
5735 9
5736 32
5737 3
5738 32
5739 18
5740 73
5741 33
5742 73
5743 73
5744 63
5745 24
5746 9
5747 5
5748 68
5749 48
5750 92
5751 5
5752 68
5753 47
5754 6
5755 8
5756 32
5757 2
5758 5
5759 33
5760 35
5761 79
5762 12
5763 32
5764 36
5765 32
5766 72
5767 20
5768 68
5769 5
5770 32
5771 47
5772 0
5773 61
5774 29
5775 36
5776 2
5777 73
5778 23
5779 16
5780 24
5781 68
5782 19
5783 47
5784 51
5785 68
5786 0
5787 5
5788 19
5789 89
5790 12
5791 68
5792 64
5793 39
5794 42
5795 5
5796 68
5797 32
5798 12
5799 25
5800 68
5801 12
5802 51
5803 32
5804 50
5805 23
5806 12
5807 43
5808 26
5809 31
5810 42
5811 18
5812 2
5813 37
5814 50
5815 29
5816 29
5817 5
5818 2
5819 50
5820 32
5821 32
5822 12
5823 0
5824 18
5825 78
5826 21
5827 32
5828 50
5829 85
5830 29
5831 24
5832 5
5833 33
5834 35
5835 37
5836 29
5837 73
5838 9
5839 9
5840 8
5841 15
5842 15
5843 25
5844 5
5845 25
5846 29
5847 12
5848 73
5849 32
5850 81
5851 78
5852 5
5853 0
5854 12
5855 5
5856 51
5857 50
5858 13
5859 50
5860 5
5861 41
5862 41
5863 32
5864 55
5865 0
5866 50
5867 68
5868 89
5869 26
5870 36
5871 3
5872 2
5873 32
5874 18
5875 0
5876 73
5877 86
5878 32
5879 18
5880 5
5881 15
5882 32
5883 32
5884 32
5885 11
5886 22
5887 41
5888 33
5889 5
5890 41
5891 2
5892 36
5893 3
5894 73
5895 84
5896 12
5897 5
5898 5
5899 27
5900 91
5901 0
5902 29
5903 80
5904 76
5905 18
5906 14
5907 5
5908 8
5909 19
5910 33
5911 36
5912 32
5913 5
5914 5
5915 32
5916 24
5917 29
5918 0
5919 60
5920 87
5921 32
5922 18
5923 27
5924 27
5925 42
5926 76
5927 41
5928 29
5929 18
5930 33
5931 68
5932 82
5933 27
5934 33
5935 27
5936 50
5937 19
5938 5
5939 29
5940 27
5941 12
5942 41
5943 1
5944 33
5945 33
5946 3
5947 5
5948 66
5949 7
5950 29
5951 92
5952 50
5953 29
5954 82
5955 5
5956 18
5957 6
5958 37
5959 29
5960 63
5961 50
5962 41
5963 68
5964 78
5965 86
5966 53
5967 18
5968 2
5969 6
5970 37
5971 5
5972 36
5973 27
5974 5
5975 32
5976 3
5977 73
5978 32
5979 0
5980 3
5981 2
5982 12
5983 6
5984 12
5985 29
5986 29
5987 83
5988 41
5989 82
5990 29
5991 29
5992 73
5993 0
5994 29
5995 5
5996 50
5997 73
5998 33
5999 18
6000 50
6001 5
6002 37
6003 36
6004 0
6005 41
6006 41
6007 13
6008 21
6009 37
6010 29
6011 71
6012 73
6013 32
6014 18
6015 36
6016 15
6017 6
6018 68
6019 2
6020 68
6021 42
6022 2
6023 26
6024 32
6025 56
6026 73
6027 5
6028 2
6029 48
6030 50
6031 23
6032 29
6033 24
6034 34
6035 27
6036 16
6037 21
6038 37
6039 73
6040 50
6041 2
6042 2
6043 5
6044 35
6045 50
6046 3
6047 32
6048 2
6049 0
6050 5
6051 54
6052 1
6053 83
6054 21
6055 68
6056 27
6057 50
6058 1
6059 29
6060 12
6061 88
6062 18
6063 26
6064 55
6065 83
6066 64
6067 24
6068 81
6069 24
6070 84
6071 2
6072 68
6073 36
6074 12
6075 33
6076 27
6077 73
6078 32
6079 11
6080 16
6081 78
6082 12
6083 32
6084 15
6085 18
6086 27
6087 32
6088 50
6089 37
6090 29
6091 6
6092 40
6093 1
6094 23
6095 24
6096 6
6097 68
6098 36
6099 32
6100 35
6101 5
6102 33
6103 5
6104 11
6105 17
6106 37
6107 3
6108 0
6109 81
6110 82
6111 32
6112 24
6113 18
6114 29
6115 32
6116 50
6117 73
6118 29
6119 53
6120 34
6121 5
6122 21
6123 91
6124 18
6125 27
6126 36
6127 2
6128 5
6129 66
6130 24
6131 5
6132 32
6133 50
6134 12
6135 32
6136 32
6137 37
6138 5
6139 5
6140 39
6141 21
6142 41
6143 18
6144 18
6145 41
6146 34
6147 18
6148 20
6149 72
6150 41
6151 29
6152 33
6153 20
6154 21
6155 16
6156 19
6157 91
6158 93
6159 83
6160 27
6161 5
6162 24
6163 8
6164 88
6165 66
6166 26
6167 24
6168 48
6169 85
6170 62
6171 21
6172 26
6173 11
6174 11
6175 68
6176 37
6177 36
6178 32
6179 4
6180 78
6181 68
6182 8
6183 9
6184 72
6185 25
6186 32
6187 26
6188 18
6189 12
6190 50
6191 1
6192 68
6193 8
6194 43
6195 16
6196 54
6197 10
6198 16
6199 9
6200 85
6201 47
6202 9
6203 45
6204 92
6205 44
6206 84
6207 35
6208 5
6209 24
6210 47
6211 0
6212 49
6213 20
6214 9
6215 68
6216 27
6217 4
6218 47
6219 12
6220 92
6221 92
6222 38
6223 37
6224 47
6225 50
6226 29
6227 4
6228 16
6229 68
6230 81
6231 21
6232 13
6233 68
6234 33
6235 68
6236 66
6237 2
6238 82
6239 0
6240 77
6241 23
6242 36
6243 79
6244 6
6245 24
6246 46
6247 24
6248 68
6249 26
6250 4
6251 28
6252 8
6253 64
6254 29
6255 55
6256 6
6257 92
6258 26
6259 29
6260 69
6261 6
6262 43
6263 86
6264 85
6265 64
6266 0
6267 32
6268 60
6269 72
6270 52
6271 29
6272 21
6273 4
6274 35
6275 29
6276 6
6277 12
6278 2
6279 30
6280 64
6281 19
6282 83
6283 36
6284 32
6285 26
6286 48
6287 68
6288 66
6289 68
6290 33
6291 19
6292 64
6293 76
6294 23
6295 28
6296 83
6297 62
6298 66
6299 8
6300 48
6301 23
6302 49
6303 68
6304 43
6305 28
6306 5
6307 21
6308 61
6309 41
6310 64
6311 64
6312 47
6313 90
6314 62
6315 25
6316 28
6317 61
6318 47
6319 51
6320 55
6321 47
6322 1
6323 10
6324 15
6325 94
6326 45
6327 8
6328 78
6329 53
6330 15
6331 73
6332 82
6333 84
6334 68
6335 78
6336 5
6337 24
6338 24
6339 81
6340 90
6341 78
6342 20
6343 45
6344 41
6345 64
6346 8
6347 36
6348 49
6349 90
6350 73
6351 48
6352 68
6353 7
6354 13
6355 81
6356 41
6357 36
6358 0
6359 89
6360 25
6361 6
6362 34
6363 47
6364 88
6365 8
6366 64
6367 28
6368 5
6369 68
6370 77
6371 67
6372 68
6373 45
6374 24
6375 21
6376 79
6377 48
6378 73
6379 23
6380 20
6381 36
6382 24
6383 82
6384 33
6385 42
6386 73
6387 8
6388 25
6389 86
6390 68
6391 83
6392 36
6393 67
6394 21
6395 46
6396 89
6397 8
6398 39
6399 3
6400 62
6401 46
6402 78
6403 63
6404 54
6405 68
6406 71
6407 3
6408 25
6409 81
6410 63
6411 86
6412 5
6413 26
6414 27
6415 66
6416 3
6417 42
6418 51
6419 32
6420 55
6421 90
6422 32
6423 34
6424 88
6425 12
6426 1
6427 65
6428 29
6429 76
6430 83
6431 23
6432 41
6433 78
6434 12
6435 16
6436 16
6437 13
6438 68
6439 27
6440 57
6441 3
6442 10
6443 25
6444 55
6445 38
6446 19
6447 54
6448 5
6449 4
6450 12
6451 32
6452 16
6453 8
6454 78
6455 12
6456 47
6457 60
6458 66
6459 36
6460 1
6461 4
6462 26
6463 36
6464 56
6465 65
6466 32
6467 0
6468 0
6469 49
6470 81
6471 19
6472 12
6473 64
6474 18
6475 45
6476 68
6477 7
6478 6
6479 10
6480 12
6481 18
6482 51
6483 15
6484 92
6485 4
6486 10
6487 49
6488 32
6489 12
6490 21
6491 5
6492 6
6493 32
6494 12
6495 83
6496 78
6497 4
6498 32
6499 93
6500 12
6501 34
6502 32
6503 26
6504 49
6505 53
6506 33
6507 31
6508 6
6509 9
6510 6
6511 19
6512 64
6513 59
6514 48
6515 63
6516 23
6517 21
6518 3
6519 68
6520 54
6521 13
6522 37
6523 0
6524 23
6525 50
6526 62
6527 73
6528 5
6529 7
6530 42
6531 66
6532 36
6533 29
6534 70
6535 60
6536 86
6537 23
6538 31
6539 12
6540 64
6541 0
6542 91
6543 32
6544 3
6545 94
6546 68
6547 77
6548 76
6549 12
6550 46
6551 3
6552 8
6553 36
6554 12
6555 24
6556 47
6557 12
6558 12
6559 22
6560 91
6561 18
6562 36
6563 42
6564 15
6565 81
6566 37
6567 27
6568 0
6569 73
6570 1
6571 73
6572 77
6573 50
6574 68
6575 77
6576 15
6577 29
6578 15
6579 39
6580 18
6581 12
6582 33
6583 68
6584 50
6585 73
6586 23
6587 73
6588 14
6589 32
6590 36
6591 0
6592 18
6593 81
6594 50
6595 92
6596 3
6597 29
6598 2
6599 5
6600 71
6601 26
6602 29
6603 68
6604 32
6605 73
6606 2
6607 86
6608 12
6609 33
6610 36
6611 31
6612 54
6613 36
6614 18
6615 35
6616 13
6617 66
6618 5
6619 47
6620 86
6621 35
6622 5
6623 13
6624 24
6625 69
6626 5
6627 12
6628 26
6629 50
6630 8
6631 2
6632 29
6633 23
6634 51
6635 81
6636 73
6637 9
6638 20
6639 11
6640 24
6641 2
6642 0
6643 1
6644 2
6645 41
6646 36
6647 95
6648 0
6649 33
6650 50
6651 42
6652 25
6653 85
6654 36
6655 22
6656 89
6657 82
6658 83
6659 68
6660 69
6661 67
6662 72
6663 37
6664 0
6665 15
6666 37
6667 4
6668 5
6669 68
6670 0
6671 73
6672 2
6673 24
6674 73
6675 18
6676 28
6677 72
6678 68
6679 5
6680 26
6681 25
6682 2
6683 6
6684 13
6685 67
6686 4
6687 80
6688 68
6689 68
6690 5
6691 13
6692 41
6693 51
6694 32
6695 5
6696 73
6697 61
6698 33
6699 68
6700 26
6701 78
6702 5
6703 42
6704 73
6705 77
6706 59
6707 73
6708 7
6709 88
6710 87
6711 38
6712 73
6713 37
6714 39
6715 8
6716 68
6717 2
6718 43
6719 47
6720 0
6721 75
6722 2
6723 43
6724 68
6725 5
6726 2
6727 33
6728 62
6729 54
6730 86
6731 12
6732 43
6733 18
6734 42
6735 9
6736 0
6737 53
6738 43
6739 1
6740 8
6741 47
6742 73
6743 18
6744 87
6745 18
6746 29
6747 16
6748 37
6749 18
6750 18
6751 79
6752 43
6753 6
6754 16
6755 51
6756 40
6757 24
6758 42
6759 93
6760 18
6761 46
6762 18
6763 0
6764 5
6765 68
6766 21
6767 68
6768 55
6769 32
6770 18
6771 39
6772 12
6773 5
6774 16
6775 73
6776 18
6777 8
6778 29
6779 20
6780 82
6781 12
6782 68
6783 41
6784 7
6785 79
6786 73
6787 69
6788 43
6789 5
6790 75
6791 32
6792 63
6793 32
6794 92
6795 63
6796 5
6797 32
6798 63
6799 8
6800 5
6801 68
6802 10
6803 21
6804 1
6805 36
6806 36
6807 66
6808 2
6809 49
6810 37
6811 5
6812 5
6813 6
6814 9
6815 8
6816 73
6817 72
6818 47
6819 59
6820 5
6821 29
6822 18
6823 33
6824 50
6825 5
6826 21
6827 0
6828 5
6829 61
6830 37
6831 12
6832 78
6833 47
6834 36
6835 55
6836 73
6837 41
6838 18
6839 73
6840 79
6841 78
6842 8
6843 21
6844 32
6845 64
6846 36
6847 66
6848 36
6849 37
6850 79
6851 55
6852 36
6853 0
6854 15
6855 32
6856 73
6857 11
6858 5
6859 29
6860 2
6861 36
6862 84
6863 29
6864 47
6865 72
6866 37
6867 19
6868 24
6869 81
6870 15
6871 5
6872 48
6873 73
6874 61
6875 78
6876 24
6877 13
6878 47
6879 67
6880 37
6881 0
6882 68
6883 26
6884 5
6885 81
6886 72
6887 27
6888 42
6889 0
6890 36
6891 18
6892 50
6893 41
6894 62
6895 37
6896 91
6897 8
6898 82
6899 77
6900 24
6901 86
6902 64
6903 50
6904 73
6905 36
6906 1
6907 77
6908 68
6909 29
6910 32
6911 22
6912 32
6913 73
6914 32
6915 31
6916 68
6917 36
6918 29
6919 41
6920 32
6921 37
6922 73
6923 36
6924 73
6925 24
6926 32
6927 25
6928 68
6929 6
6930 38
6931 41
6932 5
6933 73
6934 32
6935 73
6936 19
6937 18
6938 32
6939 30
6940 5
6941 15
6942 32
6943 41
6944 32
6945 63
6946 20
6947 32
6948 41
6949 81
6950 88
6951 68
6952 64
6953 32
6954 37
6955 32
6956 12
6957 66
6958 32
6959 84
6960 36
6961 5
6962 32
6963 73
6964 0
6965 41
6966 29
6967 27
6968 11
6969 5
6970 29
6971 12
6972 24
6973 8
6974 12
6975 5
6976 50
6977 55
6978 53
6979 37
6980 27
6981 50
6982 73
6983 41
6984 8
6985 50
6986 2
6987 18
6988 36
6989 6
6990 29
6991 29
6992 10
6993 33
6994 18
6995 12
6996 6
6997 27
6998 37
6999 65
7000 68
7001 42
7002 37
7003 79
7004 29
7005 18
7006 5
7007 27
7008 78
7009 36
7010 36
7011 37
7012 27
7013 29
7014 48
7015 0
7016 48
7017 40
7018 42
7019 11
7020 41
7021 5
7022 12
7023 77
7024 5
7025 40
7026 24
7027 12
7028 18
7029 68
7030 0
7031 0
7032 5
7033 12
7034 92
7035 68
7036 29
7037 6
7038 32
7039 32
7040 26
7041 27
7042 5
7043 92
7044 29
7045 3
7046 11
7047 12
7048 33
7049 33
7050 0
7051 27
7052 12
7053 6
7054 50
7055 53
7056 32
7057 78
7058 37
7059 32
7060 21
7061 2
7062 36
7063 76
7064 2
7065 3
7066 5
7067 18
7068 29
7069 88
7070 1
7071 82
7072 27
7073 88
7074 5
7075 6
7076 32
7077 36
7078 12
7079 7
7080 69
7081 79
7082 59
7083 24
7084 73
7085 16
7086 62
7087 39
7088 0
7089 17
7090 8
7091 73
7092 73
7093 2
7094 26
7095 25
7096 2
7097 0
7098 48
7099 32
7100 41
7101 21
7102 2
7103 32
7104 41
7105 32
7106 32
7107 5
7108 84
7109 33
7110 5
7111 33
7112 18
7113 6
7114 72
7115 39
7116 89
7117 6
7118 29
7119 6
7120 12
7121 2
7122 32
7123 24
7124 0
7125 41
7126 2
7127 31
7128 36
7129 6
7130 2
7131 39
7132 29
7133 36
7134 21
7135 81
7136 29
7137 28
7138 77
7139 6
7140 5
7141 77
7142 5
7143 73
7144 32
7145 18
7146 36
7147 88
7148 68
7149 6
7150 36
7151 5
7152 70
7153 12
7154 6
7155 9
7156 23
7157 8
7158 32
7159 69
7160 6
7161 51
7162 63
7163 27
7164 26
7165 85
7166 0
7167 33
7168 82
7169 5
7170 38
7171 19
7172 33
7173 63
7174 72
7175 4
7176 61
7177 17
7178 40
7179 43
7180 5
7181 18
7182 55
7183 39
7184 76
7185 5
7186 50
7187 2
7188 62
7189 21
7190 37
7191 11
7192 67
7193 84
7194 36
7195 16
7196 65
7197 52
7198 12
7199 6
7200 32
7201 75
7202 23
7203 18
7204 75
7205 73
7206 85
7207 37
7208 72
7209 61
7210 4
7211 78
7212 43
7213 92
7214 6
7215 33
7216 43
7217 76
7218 82
7219 24
7220 18
7221 20
7222 36
7223 26
7224 64
7225 34
7226 18
7227 12
7228 18
7229 12
7230 29
7231 21
7232 44
7233 18
7234 27
7235 0
7236 18
7237 32
7238 37
7239 0
7240 69
7241 12
7242 73
7243 49
7244 39
7245 3
7246 73
7247 18
7248 88
7249 6
7250 5
7251 85
7252 66
7253 5
7254 2
7255 68
7256 0
7257 65
7258 13
7259 47
7260 41
7261 45
7262 33
7263 5
7264 12
7265 93
7266 2
7267 13
7268 0
7269 5
7270 27
7271 47
7272 29
7273 92
7274 72
7275 37
7276 12
7277 43
7278 88
7279 32
7280 68
7281 21
7282 73
7283 18
7284 18
7285 45
7286 12
7287 32
7288 70
7289 32
7290 63
7291 51
7292 35
7293 32
7294 5
7295 64
7296 63
7297 63
7298 5
7299 6
7300 5
7301 5
7302 68
7303 18
7304 82
7305 21
7306 59
7307 6
7308 33
7309 56
7310 32
7311 73
7312 18
7313 21
7314 88
7315 39
7316 37
7317 5
7318 5
7319 52
7320 27
7321 1
7322 64
7323 32
7324 72
7325 15
7326 73
7327 56
7328 26
7329 27
7330 67
7331 5
7332 40
7333 68
7334 18
7335 10
7336 0
7337 68
7338 51
7339 27
7340 8
7341 78
7342 2
7343 88
7344 78
7345 7
7346 10
7347 64
7348 24
7349 44
7350 0
7351 0
7352 5
7353 33
7354 15
7355 0
7356 41
7357 31
7358 56
7359 5
7360 72
7361 44
7362 54
7363 70
7364 12
7365 18
7366 71
7367 92
7368 54
7369 67
7370 18
7371 24
7372 0
7373 13
7374 27
7375 63
7376 18
7377 12
7378 21
7379 72
7380 33
7381 6
7382 5
7383 15
7384 48
7385 6
7386 5
7387 0
7388 13
7389 79
7390 5
7391 15
7392 29
7393 20
7394 10
7395 32
7396 36
7397 4
7398 68
7399 63
7400 73
7401 69
7402 63
7403 84
7404 52
7405 38
7406 77
7407 73
7408 18
7409 63
7410 12
7411 13
7412 2
7413 78
7414 0
7415 39
7416 5
7417 69
7418 25
7419 5
7420 32
7421 18
7422 39
7423 35
7424 50
7425 24
7426 73
7427 86
7428 64
7429 42
7430 91
7431 73
7432 32
7433 46
7434 68
7435 82
7436 39
7437 42
7438 8
7439 69
7440 43
7441 27
7442 32
7443 34
7444 84
7445 38
7446 55
7447 65
7448 42
7449 55
7450 37
7451 34
7452 59
7453 5
7454 73
7455 73
7456 18
7457 13
7458 0
7459 8
7460 82
7461 18
7462 24
7463 23
7464 5
7465 61
7466 61
7467 27
7468 32
7469 11
7470 43
7471 77
7472 5
7473 32
7474 5
7475 5
7476 18
7477 66
7478 0
7479 47
7480 84
7481 79
7482 14
7483 0
7484 56
7485 12
7486 9
7487 5
7488 2
7489 79
7490 37
7491 82
7492 31
7493 38
7494 32
7495 3
7496 72
7497 47
7498 32
7499 4
7500 67
7501 5
7502 36
7503 61
7504 7
7505 48
7506 49
7507 53
7508 21
7509 69
7510 81
7511 50
7512 18
7513 5
7514 32
7515 43
7516 11
7517 68
7518 56
7519 37
7520 37
7521 68
7522 55
7523 93
7524 66
7525 66
7526 12
7527 68
7528 15
7529 11
7530 95
7531 32
7532 5
7533 92
7534 2
7535 33
7536 3
7537 51
7538 37
7539 12
7540 51
7541 50
7542 52
7543 32
7544 88
7545 94
7546 36
7547 82
7548 25
7549 30
7550 80
7551 54
7552 50
7553 5
7554 36
7555 55
7556 5
7557 42
7558 51
7559 69
7560 5
7561 12
7562 5
7563 54
7564 29
7565 42
7566 67
7567 5
7568 12
7569 77
7570 5
7571 2
7572 36
7573 48
7574 2
7575 51
7576 42
7577 91
7578 50
7579 48
7580 5
7581 2
7582 20
7583 5
7584 37
7585 32
7586 34
7587 34
7588 29
7589 40
7590 50
7591 89
7592 12
7593 40
7594 15
7595 32
7596 2
7597 77
7598 33
7599 0
7600 12
7601 15
7602 7
7603 23
7604 5
7605 36
7606 36
7607 16
7608 0
7609 93
7610 5
7611 61
7612 5
7613 73
7614 29
7615 73
7616 69
7617 4
7618 12
7619 33
7620 42
7621 91
7622 41
7623 25
7624 39
7625 25
7626 92
7627 68
7628 51
7629 41
7630 29
7631 8
7632 4
7633 37
7634 37
7635 42
7636 41
7637 63
7638 82
7639 42
7640 12
7641 81
7642 32
7643 51
7644 37
7645 29
7646 47
7647 36
7648 18
7649 39
7650 73
7651 3
7652 37
7653 8
7654 73
7655 36
7656 5
7657 10
7658 24
7659 40
7660 32
7661 48
7662 37
7663 32
7664 41
7665 29
7666 32
7667 88
7668 32
7669 36
7670 33
7671 1
7672 36
7673 41
7674 89
7675 34
7676 22
7677 88
7678 68
7679 93
7680 32
7681 43
7682 29
7683 78
7684 50
7685 73
7686 73
7687 12
7688 65
7689 94
7690 29
7691 85
7692 20
7693 5
7694 79
7695 73
7696 16
7697 3
7698 37
7699 30
7700 68
7701 2
7702 43
7703 63
7704 30
7705 23
7706 41
7707 25
7708 29
7709 32
7710 2
7711 3
7712 57
7713 73
7714 30
7715 9
7716 4
7717 92
7718 69
7719 50
7720 1
7721 28
7722 30
7723 9
7724 48
7725 1
7726 32
7727 5
7728 29
7729 43
7730 82
7731 85
7732 20
7733 50
7734 50
7735 5
7736 24
7737 26
7738 73
7739 54
7740 43
7741 5
7742 85
7743 9
7744 12
7745 5
7746 73
7747 59
7748 11
7749 58
7750 5
7751 24
7752 73
7753 9
7754 5
7755 89
7756 4
7757 18
7758 68
7759 58
7760 42
7761 32
7762 44
7763 47
7764 83
7765 5
7766 27
7767 0
7768 2
7769 43
7770 5
7771 72
7772 39
7773 0
7774 12
7775 33
7776 68
7777 12
7778 72
7779 25
7780 5
7781 9
7782 16
7783 32
7784 83
7785 5
7786 48
7787 3
7788 2
7789 8
7790 92
7791 16
7792 5
7793 0
7794 68
7795 72
7796 18
7797 32
7798 51
7799 40
7800 32
7801 68
7802 2
7803 5
7804 8
7805 54
7806 27
7807 55
7808 73
7809 6
7810 74
7811 5
7812 32
7813 30
7814 73
7815 61
7816 32
7817 12
7818 82
7819 42
7820 51
7821 54
7822 16
7823 12
7824 51
7825 73
7826 81
7827 49
7828 73
7829 72
7830 85
7831 68
7832 32
7833 19
7834 91
7835 73
7836 32
7837 8
7838 81
7839 36
7840 32
7841 79
7842 12
7843 29
7844 5
7845 32
7846 48
7847 61
7848 67
7849 32
7850 23
7851 20
7852 29
7853 0
7854 78
7855 36
7856 55
7857 53
7858 73
7859 60
7860 73
7861 78
7862 79
7863 73
7864 40
7865 2
7866 73
7867 32
7868 1
7869 68
7870 32
7871 88
7872 68
7873 19
7874 61
7875 73
7876 73
7877 50
7878 32
7879 6
7880 37
7881 68
7882 60
7883 15
7884 5
7885 5
7886 50
7887 0
7888 36
7889 78
7890 0
7891 73
7892 5
7893 32
7894 85
7895 32
7896 36
7897 5
7898 8
7899 5
7900 82
7901 32
7902 32
7903 34
7904 12
7905 95
7906 37
7907 43
7908 68
7909 0
7910 0
7911 32
7912 82
7913 77
7914 41
7915 20
7916 18
7917 68
7918 41
7919 32
7920 41
7921 12
7922 24
7923 73
7924 33
7925 32
7926 2
7927 42
7928 29
7929 55
7930 33
7931 68
7932 5
7933 29
7934 32
7935 82
7936 41
7937 32
7938 37
7939 64
7940 50
7941 8
7942 33
7943 37
7944 5
7945 48
7946 8
7947 68
7948 50
7949 5
7950 68
7951 36
7952 23
7953 5
7954 18
7955 32
7956 41
7957 2
7958 37
7959 27
7960 50
7961 73
7962 43
7963 73
7964 5
7965 65
7966 54
7967 36
7968 67
7969 2
7970 84
7971 48
7972 50
7973 75
7974 5
7975 50
7976 32
7977 55
7978 64
7979 5
7980 36
7981 73
7982 68
7983 29
7984 20
7985 12
7986 12
7987 5
7988 8
7989 8
7990 73
7991 66
7992 6
7993 8
7994 18
7995 18
7996 27
7997 30
7998 63
7999 29
8000 42
8001 73
8002 73
8003 50
8004 12
8005 12
8006 68
8007 50
8008 33
8009 36
8010 12
8011 51
8012 5
8013 27
8014 7
8015 31
8016 8
8017 62
8018 0
8019 33
8020 2
8021 73
8022 50
8023 92
8024 32
8025 37
8026 82
8027 32
8028 32
8029 5
8030 80
8031 3
8032 12
8033 2
8034 32
8035 18
8036 66
8037 6
8038 21
8039 5
8040 18
8041 56
8042 29
8043 82
8044 83
8045 27
8046 21
8047 5
8048 69
8049 26
8050 56
8051 11
8052 27
8053 26
8054 18
8055 82
8056 74
8057 8
8058 5
8059 5
8060 18
8061 6
8062 78
8063 10
8064 32
8065 34
8066 77
8067 37
8068 73
8069 6
8070 6
8071 32
8072 73
8073 37
8074 73
8075 50
8076 50
8077 33
8078 2
8079 24
8080 29
8081 32
8082 48
8083 48
8084 76
8085 33
8086 32
8087 29
8088 35
8089 8
8090 50
8091 24
8092 50
8093 18
8094 41
8095 5
8096 41
8097 37
8098 26
8099 68
8100 10
8101 51
8102 32
8103 36
8104 2
8105 3
8106 32
8107 32
8108 37
8109 27
8110 24
8111 12
8112 72
8113 24
8114 37
8115 73
8116 84
8117 12
8118 88
8119 21
8120 38
8121 12
8122 21
8123 6
8124 15
8125 24
8126 0
8127 5
8128 18
8129 29
8130 33
8131 5
8132 0
8133 41
8134 68
8135 32
8136 50
8137 67
8138 37
8139 77
8140 68
8141 50
8142 82
8143 21
8144 27
8145 26
8146 48
8147 5
8148 68
8149 33
8150 2
8151 73
8152 29
8153 5
8154 91
8155 47
8156 33
8157 22
8158 37
8159 45
8160 52
8161 5
8162 12
8163 29
8164 21
8165 33
8166 6
8167 55
8168 5
8169 25
8170 5
8171 5
8172 61
8173 5
8174 54
8175 78
8176 2
8177 41
8178 0
8179 18
8180 26
8181 0
8182 18
8183 5
8184 68
8185 20
8186 29
8187 5
8188 6
8189 29
8190 78
8191 37
8192 32
8193 5
8194 40
8195 39
8196 61
8197 62
8198 42
8199 20
8200 0
8201 36
8202 3
8203 86
8204 68
8205 77
8206 50
8207 48
8208 4
8209 0
8210 77
8211 85
8212 51
8213 48
8214 5
8215 69
8216 32
8217 24
8218 91
8219 12
8220 9
8221 52
8222 5
8223 5
8224 85
8225 29
8226 2
8227 38
8228 41
8229 47
8230 23
8231 82
8232 24
8233 46
8234 13
8235 6
8236 85
8237 5
8238 29
8239 35
8240 55
8241 7
8242 66
8243 91
8244 10
8245 62
8246 7
8247 12
8248 13
8249 88
8250 1
8251 22
8252 84
8253 9
8254 24
8255 73
8256 9
8257 88
8258 24
8259 3
8260 27
8261 48
8262 68
8263 26
8264 68
8265 8
8266 31
8267 27
8268 0
8269 50
8270 5
8271 82
8272 26
8273 6
8274 69
8275 51
8276 5
8277 26
8278 41
8279 29
8280 29
8281 3
8282 46
8283 27
8284 0
8285 41
8286 27
8287 71
8288 6
8289 20
8290 83
8291 21
8292 13
8293 12
8294 60
8295 58
8296 64
8297 34
8298 33
8299 92
8300 41
8301 6
8302 59
8303 21
8304 70
8305 64
8306 61
8307 38
8308 47
8309 29
8310 32
8311 23
8312 10
8313 20
8314 19
8315 53
8316 2
8317 7
8318 5
8319 67
8320 20
8321 26
8322 80
8323 34
8324 79
8325 24
8326 36
8327 26
8328 1
8329 20
8330 49
8331 5
8332 62
8333 6
8334 79
8335 91
8336 63
8337 86
8338 41
8339 33
8340 73
8341 81
8342 75
8343 29
8344 54
8345 63
8346 54
8347 72
8348 89
8349 39
8350 41
8351 27
8352 10
8353 73
8354 88
8355 95
8356 79
8357 13
8358 73
8359 48
8360 15
8361 27
8362 64
8363 68
8364 36
8365 50
8366 78
8367 5
8368 63
8369 30
8370 73
8371 21
8372 61
8373 15
8374 27
8375 14
8376 3
8377 27
8378 55
8379 66
8380 16
8381 87
8382 48
8383 19
8384 47
8385 61
8386 73
8387 41
8388 44
8389 49
8390 55
8391 73
8392 16
8393 73
8394 5
8395 84
8396 66
8397 51
8398 7
8399 32
8400 15
8401 11
8402 67
8403 15
8404 20
8405 8
8406 73
8407 22
8408 83
8409 33
8410 31
8411 61
8412 5
8413 51
8414 21
8415 6
8416 77
8417 19
8418 16
8419 11
8420 95
8421 27
8422 38
8423 40
8424 8
8425 14
8426 29
8427 59
8428 27
8429 64
8430 32
8431 76
8432 55
8433 51
8434 26
8435 73
8436 21
8437 54
8438 78
8439 8
8440 32
8441 7
8442 89
8443 36
8444 41
8445 7
8446 55
8447 12
8448 8
8449 36
8450 5
8451 8
8452 3
8453 32
8454 68
8455 68
8456 73
8457 61
8458 82
8459 63
8460 50
8461 4
8462 73
8463 8
8464 8
8465 38
8466 63
8467 5
8468 18
8469 79
8470 51
8471 3
8472 29
8473 63
8474 30
8475 32
8476 68
8477 94
8478 7
8479 13
8480 33
8481 61
8482 62
8483 27
8484 18
8485 68
8486 77
8487 16
8488 79
8489 91
8490 46
8491 94
8492 68
8493 89
8494 13
8495 55
8496 93
8497 70
8498 81
8499 18
8500 84
8501 85
8502 80
8503 12
8504 85
8505 88
8506 61
8507 40
8508 32
8509 15
8510 73
8511 18
8512 0
8513 11
8514 10
8515 3
8516 13
8517 37
8518 26
8519 16
8520 43
8521 68
8522 21
8523 18
8524 17
8525 75
8526 73
8527 18
8528 19
8529 78
8530 23
8531 42
8532 67
8533 8
8534 37
8535 68
8536 10
8537 62
8538 0
8539 23
8540 16
8541 64
8542 68
8543 78
8544 78
8545 12
8546 87
8547 18
8548 3
8549 28
8550 46
8551 0
8552 12
8553 83
8554 32
8555 45
8556 70
8557 32
8558 33
8559 95
8560 42
8561 77
8562 73
8563 38
8564 58
8565 18
8566 51
8567 51
8568 29
8569 4
8570 0
8571 56
8572 89
8573 18
8574 54
8575 0
8576 48
8577 5
8578 29
8579 68
8580 91
8581 4
8582 27
8583 73
8584 50
8585 18
8586 0
8587 36
8588 12
8589 61
8590 16
8591 48
8592 73
8593 12
8594 32
8595 31
8596 50
8597 50
8598 50
8599 91
8600 83
8601 32
8602 73
8603 78
8604 83
8605 12
8606 50
8607 12
8608 5
8609 25
8610 32
8611 18
8612 77
8613 18
8614 5
8615 63
8616 70
8617 30
8618 39
8619 68
8620 33
8621 33
8622 36
8623 0
8624 6
8625 18
8626 0
8627 18
8628 12
8629 36
8630 5
8631 10
8632 32
8633 41
8634 7
8635 81
8636 36
8637 22
8638 36
8639 32
8640 19
8641 50
8642 83
8643 73
8644 50
8645 29
8646 18
8647 91
8648 2
8649 15
8650 3
8651 51
8652 20
8653 2
8654 0
8655 2
8656 8
8657 44
8658 42
8659 63
8660 50
8661 37
8662 32
8663 84
8664 5
8665 12
8666 37
8667 36
8668 19
8669 68
8670 12
8671 63
8672 33
8673 29
8674 28
8675 56
8676 50
8677 55
8678 12
8679 29
8680 73
8681 62
8682 36
8683 73
8684 37
8685 3
8686 29
8687 85
8688 70
8689 44
8690 48
8691 0
8692 66
8693 71
8694 36
8695 33
8696 41
8697 74
8698 5
8699 34
8700 2
8701 12
8702 20
8703 5
8704 59
8705 2
8706 73
8707 41
8708 8
8709 2
8710 72
8711 92
8712 82
8713 46
8714 72
8715 19
8716 16
8717 20
8718 4
8719 9
8720 73
8721 33
8722 78
8723 78
8724 20
8725 85
8726 50
8727 68
8728 85
8729 48
8730 43
8731 18
8732 24
8733 2
8734 62
8735 23
8736 36
8737 32
8738 29
8739 0
8740 72
8741 72
8742 47
8743 47
8744 2
8745 29
8746 2
8747 28
8748 32
8749 68
8750 48
8751 77
8752 43
8753 41
8754 21
8755 86
8756 92
8757 8
8758 5
8759 65
8760 82
8761 37
8762 48
8763 40
8764 2
8765 53
8766 0
8767 75
8768 27
8769 24
8770 24
8771 5
8772 39
8773 62
8774 43
8775 62
8776 5
8777 10
8778 73
8779 0
8780 76
8781 2
8782 18
8783 2
8784 5
8785 73
8786 9
8787 27
8788 5
8789 9
8790 62
8791 71
8792 12
8793 26
8794 5
8795 19
8796 0
8797 5
8798 47
8799 43
8800 38
8801 0
8802 47
8803 9
8804 18
8805 73
8806 7
8807 1
8808 26
8809 73
8810 4
8811 5
8812 5
8813 24
8814 32
8815 5
8816 62
8817 12
8818 8
8819 33
8820 73
8821 15
8822 55
8823 66
8824 92
8825 18
8826 10
8827 32
8828 16
8829 5
8830 36
8831 21
8832 73
8833 73
8834 43
8835 51
8836 63
8837 73
8838 73
8839 47
8840 2
8841 32
8842 66
8843 67
8844 21
8845 8
8846 32
8847 51
8848 7
8849 23
8850 73
8851 72
8852 51
8853 76
8854 73
8855 18
8856 43
8857 32
8858 75
8859 18
8860 19
8861 79
8862 64
8863 63
8864 32
8865 9
8866 87
8867 55
8868 12
8869 32
8870 12
8871 18
8872 5
8873 5
8874 36
8875 20
8876 12
8877 50
8878 87
8879 36
8880 36
8881 8
8882 24
8883 2
8884 5
8885 37
8886 50
8887 15
8888 68
8889 68
8890 12
8891 64
8892 5
8893 5
8894 85
8895 8
8896 68
8897 29
8898 32
8899 32
8900 47
8901 6
8902 5
8903 2
8904 39
8905 73
8906 37
8907 16
8908 73
8909 64
8910 32
8911 2
8912 32
8913 36
8914 18
8915 8
8916 77
8917 50
8918 85
8919 36
8920 0
8921 32
8922 50
8923 50
8924 63
8925 12
8926 15
8927 32
8928 11
8929 29
8930 37
8931 88
8932 87
8933 2
8934 37
8935 32
8936 12
8937 11
8938 37
8939 18
8940 13
8941 12
8942 63
8943 27
8944 29
8945 18
8946 5
8947 85
8948 0
8949 5
8950 29
8951 24
8952 32
8953 32
8954 41
8955 12
8956 78
8957 5
8958 0
8959 68
8960 32
8961 2
8962 36
8963 5
8964 32
8965 11
8966 55
8967 77
8968 32
8969 50
8970 68
8971 12
8972 15
8973 29
8974 68
8975 5
8976 5
8977 82
8978 33
8979 37
8980 50
8981 2
8982 32
8983 24
8984 2
8985 33
8986 15
8987 64
8988 5
8989 33
8990 36
8991 32
8992 77
8993 24
8994 5
8995 32
8996 30
8997 5
8998 61
8999 5
9000 2
9001 36
9002 25
9003 50
9004 37
9005 5
9006 88
9007 18
9008 66
9009 62
9010 36
9011 41
9012 38
9013 36
9014 6
9015 27
9016 68
9017 9
9018 77
9019 73
9020 3
9021 53
9022 26
9023 36
9024 69
9025 5
9026 55
9027 34
9028 50
9029 12
9030 29
9031 87
9032 36
9033 15
9034 86
9035 6
9036 18
9037 18
9038 6
9039 36
9040 29
9041 11
9042 37
9043 32
9044 15
9045 40
9046 5
9047 53
9048 73
9049 73
9050 33
9051 29
9052 2
9053 33
9054 18
9055 32
9056 68
9057 32
9058 16
9059 8
9060 0
9061 82
9062 0
9063 32
9064 36
9065 36
9066 12
9067 21
9068 73
9069 93
9070 43
9071 15
9072 2
9073 78
9074 54
9075 37
9076 21
9077 19
9078 32
9079 27
9080 93
9081 66
9082 73
9083 29
9084 37
9085 5
9086 32
9087 36
9088 32
9089 50
9090 0
9091 32
9092 43
9093 5
9094 6
9095 32
9096 87
9097 10
9098 21
9099 21
9100 37
9101 21
9102 50
9103 27
9104 0
9105 51
9106 50
9107 32
9108 10
9109 32
9110 18
9111 68
9112 15
9113 29
9114 12
9115 73
9116 31
9117 2
9118 2
9119 0
9120 48
9121 15
9122 73
9123 18
9124 68
9125 0
9126 27
9127 32
9128 33
9129 50
9130 42
9131 36
9132 64
9133 80
9134 68
9135 27
9136 41
9137 32
9138 27
9139 95
9140 21
9141 41
9142 43
9143 32
9144 32
9145 32
9146 2
9147 5
9148 37
9149 18
9150 32
9151 88
9152 78
9153 0
9154 26
9155 24
9156 50
9157 40
9158 43
9159 54
9160 88
9161 82
9162 5
9163 89
9164 12
9165 16
9166 33
9167 6
9168 54
9169 68
9170 82
9171 36
9172 68
9173 36
9174 6
9175 24
9176 18
9177 68
9178 21
9179 41
9180 12
9181 24
9182 44
9183 74
9184 32
9185 32
9186 12
9187 68
9188 33
9189 20
9190 47
9191 5
9192 18
9193 21
9194 68
9195 77
9196 36
9197 2
9198 43
9199 6
9200 2
9201 41
9202 61
9203 2
9204 13
9205 61
9206 32
9207 33
9208 5
9209 16
9210 23
9211 26
9212 13
9213 41
9214 5
9215 77
9216 31
9217 32
9218 37
9219 16
9220 48
9221 36
9222 32
9223 68
9224 61
9225 68
9226 34
9227 39
9228 51
9229 41
9230 68
9231 78
9232 34
9233 5
9234 85
9235 2
9236 63
9237 26
9238 20
9239 73
9240 33
9241 32
9242 49
9243 32
9244 9
9245 33
9246 32
9247 6
9248 6
9249 43
9250 68
9251 5
9252 5
9253 3
9254 36
9255 62
9256 36
9257 68
9258 24
9259 84
9260 72
9261 26
9262 82
9263 24
9264 18
9265 69
9266 4
9267 85
9268 18
9269 6
9270 5
9271 68
9272 31
9273 32
9274 18
9275 0
9276 19
9277 5
9278 69
9279 48
9280 0
9281 6
9282 68
9283 27
9284 5
9285 26
9286 26
9287 15
9288 68
9289 68
9290 32
9291 18
9292 72
9293 20
9294 21
9295 68
9296 26
9297 5
9298 32
9299 8
9300 73
9301 2
9302 32
9303 18
9304 86
9305 5
9306 20
9307 12
9308 35
9309 4
9310 5
9311 90
9312 18
9313 2
9314 13
9315 32
9316 73
9317 5
9318 43
9319 21
9320 12
9321 92
9322 66
9323 69
9324 12
9325 11
9326 63
9327 12
9328 68
9329 30
9330 9
9331 12
9332 43
9333 79
9334 41
9335 37
9336 18
9337 8
9338 73
9339 64
9340 12
9341 89
9342 5
9343 2
9344 41
9345 48
9346 61
9347 5
9348 18
9349 9
9350 9
9351 68
9352 36
9353 41
9354 0
9355 27
9356 31
9357 68
9358 50
9359 94
9360 5
9361 7
9362 73
9363 68
9364 68
9365 41
9366 68
9367 67
9368 9
9369 27
9370 67
9371 5
9372 51
9373 5
9374 2
9375 63
9376 37
9377 63
9378 15
9379 24
9380 33
9381 0
9382 57
9383 5
9384 24
9385 5
9386 5
9387 71
9388 9
9389 11
9390 8
9391 54
9392 27
9393 25
9394 50
9395 61
9396 5
9397 8
9398 21
9399 18
9400 78
9401 73
9402 41
9403 26
9404 18
9405 4
9406 5
9407 73
9408 37
9409 5
9410 47
9411 14
9412 32
9413 43
9414 68
9415 6
9416 3
9417 83
9418 2
9419 83
9420 2
9421 91
9422 24
9423 43
9424 25
9425 87
9426 85
9427 6
9428 0
9429 0
9430 51
9431 1
9432 16
9433 68
9434 70
9435 13
9436 5
9437 19
9438 2
9439 10
9440 32
9441 73
9442 70
9443 92
9444 7
9445 18
9446 2
9447 68
9448 0
9449 6
9450 43
9451 0
9452 18
9453 29
9454 73
9455 42
9456 42
9457 73
9458 68
9459 27
9460 63
9461 24
9462 6
9463 2
9464 95
9465 39
9466 85
9467 12
9468 11
9469 27
9470 5
9471 68
9472 5
9473 55
9474 32
9475 42
9476 32
9477 5
9478 3
9479 5
9480 5
9481 51
9482 5
9483 81
9484 0
9485 79
9486 68
9487 66
9488 0
9489 64
9490 32
9491 79
9492 38
9493 12
9494 16
9495 73
9496 3
9497 68
9498 32
9499 3
9500 64
9501 2
9502 32
9503 40
9504 0
9505 12
9506 32
9507 64
9508 7
9509 20
9510 68
9511 82
9512 51
9513 24
9514 15
9515 19
9516 2
9517 36
9518 15
9519 4
9520 80
9521 44
9522 18
9523 8
9524 13
9525 2
9526 0
9527 16
9528 64
9529 0
9530 72
9531 25
9532 41
9533 62
9534 78
9535 5
9536 38
9537 45
9538 68
9539 25
9540 77
9541 35
9542 56
9543 24
9544 35
9545 26
9546 12
9547 66
9548 73
9549 4
9550 31
9551 0
9552 47
9553 65
9554 53
9555 32
9556 68
9557 37
9558 18
9559 5
9560 51
9561 18
9562 73
9563 29
9564 0
9565 73
9566 60
9567 83
9568 7
9569 12
9570 93
9571 32
9572 4
9573 70
9574 37
9575 49
9576 2
9577 48
9578 5
9579 5
9580 48
9581 93
9582 59
9583 19
9584 32
9585 79
9586 32
9587 85
9588 12
9589 68
9590 15
9591 37
9592 50
9593 2
9594 60
9595 5
9596 37
9597 41
9598 18
9599 2
9600 32
9601 56
9602 48
9603 29
9604 68
9605 51
9606 32
9607 8
9608 18
9609 36
9610 68
9611 75
9612 36
9613 73
9614 18
9615 29
9616 51
9617 3
9618 64
9619 12
9620 73
9621 68
9622 29
9623 68
9624 68
9625 16
9626 28
9627 50
9628 79
9629 29
9630 0
9631 6
9632 68
9633 5
9634 68
9635 50
9636 4
9637 73
9638 32
9639 29
9640 12
9641 66
9642 18
9643 0
9644 2
9645 68
9646 72
9647 8
9648 0
9649 71
9650 82
9651 22
9652 5
9653 93
9654 68
9655 39
9656 0
9657 44
9658 33
9659 19
9660 15
9661 66
9662 73
9663 1
9664 37
9665 68
9666 41
9667 26
9668 50
9669 32
9670 36
9671 83
9672 37
9673 5
9674 8
9675 12
9676 88
9677 68
9678 68
9679 71
9680 73
9681 29
9682 32
9683 68
9684 10
9685 91
9686 32
9687 18
9688 86
9689 24
9690 32
9691 73
9692 43
9693 27
9694 32
9695 40
9696 25
9697 12
9698 5
9699 32
9700 26
9701 41
9702 5
9703 81
9704 50
9705 72
9706 67
9707 2
9708 40
9709 41
9710 51
9711 78
9712 26
9713 0
9714 73
9715 36
9716 92
9717 32
9718 91
9719 46
9720 66
9721 51
9722 33
9723 64
9724 36
9725 2
9726 5
9727 50
9728 28
9729 66
9730 73
9731 32
9732 77
9733 53
9734 50
9735 48
9736 13
9737 50
9738 9
9739 42
9740 20
9741 2
9742 26
9743 68
9744 46
9745 9
9746 73
9747 66
9748 76
9749 95
9750 46
9751 21
9752 73
9753 37
9754 89
9755 20
9756 2
9757 42
9758 33
9759 39
9760 2
9761 62
9762 64
9763 5
9764 72
9765 20
9766 55
9767 87
9768 85
9769 4
9770 87
9771 82
9772 33
9773 5
9774 80
9775 6
9776 24
9777 24
9778 21
9779 43
9780 78
9781 0
9782 12
9783 2
9784 5
9785 68
9786 41
9787 25
9788 53
9789 5
9790 32
9791 47
9792 44
9793 76
9794 22
9795 7
9796 2
9797 77
9798 24
9799 55
9800 5
9801 5
9802 18
9803 41
9804 26
9805 18
9806 61
9807 66
9808 32
9809 72
9810 43
9811 12
9812 73
9813 42
9814 68
9815 2
9816 2
9817 18
9818 46
9819 35
9820 32
9821 29
9822 68
9823 32
9824 10
9825 33
9826 73
9827 5
9828 77
9829 68
9830 32
9831 5
9832 33
9833 12
9834 59
9835 32
9836 5
9837 4
9838 47
9839 37
9840 63
9841 11
9842 56
9843 63
9844 55
9845 62
9846 32
9847 51
9848 20
9849 63
9850 90
9851 8
9852 0
9853 62
9854 5
9855 79
9856 18
9857 6
9858 32
9859 64
9860 64
9861 18
9862 29
9863 5
9864 73
9865 65
9866 32
9867 8
9868 64
9869 3
9870 5
9871 47
9872 73
9873 24
9874 48
9875 17
9876 53
9877 65
9878 0
9879 36
9880 27
9881 88
9882 32
9883 12
9884 73
9885 36
9886 11
9887 32
9888 12
9889 48
9890 90
9891 81
9892 68
9893 12
9894 2
9895 24
9896 21
9897 63
9898 12
9899 33
9900 6
9901 36
9902 29
9903 27
9904 67
9905 68
9906 18
9907 15
9908 32
9909 1
9910 2
9911 32
9912 5
9913 18
9914 18
9915 15
9916 15
9917 50
9918 32
9919 91
9920 32
9921 15
9922 52
9923 39
9924 29
9925 32
9926 33
9927 68
9928 43
9929 5
9930 68
9931 73
9932 5
9933 16
9934 29
9935 5
9936 21
9937 36
9938 7
9939 27
9940 79
9941 37
9942 33
9943 5
9944 18
9945 8
9946 37
9947 94
9948 37
9949 0
9950 19
9951 12
9952 63
9953 89
9954 94
9955 81
9956 29
9957 77
9958 29
9959 73
9960 0
9961 0
9962 84
9963 42
9964 73
9965 33
9966 47
9967 81
9968 70
9969 79
9970 89
9971 18
9972 5
9973 90
9974 36
9975 0
9976 5
9977 37
9978 36
9979 81
9980 2
9981 0
9982 33
9983 31
9984 29
9985 16
9986 40
9987 32
9988 32
9989 0
9990 21
9991 11
9992 84
9993 2
9994 9
9995 77
9996 33
9997 41
9998 5
9999 36
