1 0
156 0
364 0
371 0
489 0
744 0
790 0
973 0
1073 0
1132 0
9246 1
2 2
124 2
187 2
232 2
254 2
360 2
401 2
747 2
844 2
1614 2
5316 3
3 4
18 4
125 4
614 4
837 4
899 4
979 4
1096 4
1117 4
1198 4
9108 5
4 6
259 6
323 6
400 6
508 6
712 6
943 6
1050 6
1389 6
1734 6
4038 7
5 8
162 8
220 8
531 8
695 8
961 8
994 8
1141 8
1160 8
1202 8
8661 9
6 10
59 10
103 10
241 10
321 10
327 10
357 10
644 10
810 10
1113 10
6786 11
7 12
19 12
119 12
294 12
824 12
828 12
923 12
1057 12
1080 12
1136 12
6540 13
8 14
281 14
344 14
720 14
832 14
1084 14
1171 14
1178 14
1211 14
1223 14
8681 15
9 16
1347 16
1407 16
1644 16
1651 16
1745 16
2012 16
2026 16
2685 16
2879 16
4914 17
10 18
121 18
201 18
502 18
594 18
647 18
693 18
881 18
941 18
1196 18
7121 19
11 20
77 20
211 20
269 20
377 20
970 20
1065 20
1154 20
1185 20
1222 20
9819 21
12 22
13 22
20 22
145 22
242 22
448 22
728 22
952 22
1180 22
1888 22
9203 23
9116 24
14 25
72 25
111 25
122 25
304 25
412 25
580 25
748 25
892 25
1009 25
9365 26
15 27
141 27
306 27
424 27
757 27
760 27
812 27
920 27
963 27
1864 27
4920 28
16 29
153 29
399 29
673 29
769 29
799 29
931 29
960 29
1055 29
1127 29
9906 1
17 30
1319 30
1352 30
2329 30
2373 30
2496 30
2684 30
2795 30
2950 30
3046 30
7545 31
8115 32
1659 33
7393 34
21 35
134 35
343 35
351 35
591 35
612 35
726 35
858 35
867 35
1139 35
6684 36
22 37
147 37
390 37
416 37
421 37
868 37
900 37
921 37
1088 37
1916 37
8287 38
23 39
78 39
255 39
325 39
516 39
668 39
704 39
917 39
989 39
1037 39
5749 23
24 40
235 40
267 40
463 40
524 40
780 40
789 40
1090 40
1220 40
1839 40
4594 41
25 42
96 42
195 42
203 42
217 42
303 42
415 42
629 42
791 42
971 42
7642 43
26 39
140 39
394 39
407 39
519 39
576 39
611 39
631 39
997 39
1079 39
4965 44
27 45
177 45
348 45
387 45
433 45
503 45
950 45
959 45
982 45
1004 45
9485 46
28 47
49 47
126 47
709 47
948 47
1013 47
1043 47
1157 47
1195 47
1230 47
9877 26
29 48
40 48
73 48
107 48
420 48
494 48
546 48
649 48
928 48
1083 48
7939 43
30 49
159 49
324 49
528 49
623 49
633 49
635 49
1025 49
1150 49
1936 49
3799 50
31 51
505 51
639 51
690 51
776 51
801 51
822 51
996 51
1035 51
1167 51
6224 52
32 53
37 53
58 53
275 53
599 53
606 53
945 53
1030 53
1036 53
1085 53
8438 54
33 55
191 55
197 55
257 55
308 55
330 55
555 55
654 55
738 55
1047 55
8548 56
34 57
171 57
193 57
302 57
523 57
578 57
820 57
885 57
927 57
1153 57
9787 58
35 12
86 12
120 12
367 12
718 12
870 12
1152 12
1204 12
1232 12
1615 12
5675 59
36 60
188 60
207 60
250 60
392 60
441 60
665 60
751 60
827 60
1214 60
9628 58
8946 61
38 62
246 62
284 62
318 62
319 62
479 62
498 62
773 62
1012 62
1075 62
9963 63
39 64
335 64
339 64
350 64
411 64
696 64
957 64
988 64
1064 64
1099 64
9293 26
2328 65
41 66
137 66
176 66
209 66
389 66
467 66
550 66
700 66
772 66
1115 66
3035 67
42 53
155 53
464 53
876 53
883 53
1023 53
1041 53
1071 53
1109 53
1208 53
6446 68
43 69
200 69
507 69
525 69
732 69
888 69
1020 69
1039 69
1056 69
2031 69
4954 70
44 64
196 64
329 64
538 64
710 64
910 64
1000 64
1266 64
1388 64
1807 64
5349 71
45 72
75 72
226 72
386 72
413 72
590 72
862 72
1105 72
1161 72
1164 72
1210 72
46 73
98 73
285 73
426 73
556 73
592 73
781 73
853 73
861 73
1226 73
8199 74
47 75
94 75
161 75
170 75
562 75
648 75
815 75
987 75
1087 75
1091 75
9388 76
48 77
56 77
117 77
447 77
577 77
711 77
749 77
873 77
908 77
944 77
1817 77
9910 78
50 79
218 79
290 79
300 79
476 79
487 79
663 79
715 80
1045 79
1155 79
1184 79
51 67
1907 67
2746 67
2959 67
3079 67
3090 67
3273 67
3360 67
3383 67
7434 26
52 81
83 81
128 81
133 81
558 81
922 81
964 81
1061 81
1129 81
1159 81
8391 82
53 83
181 83
189 83
270 83
552 83
573 83
642 83
995 83
1149 83
1715 83
8758 56
54 84
317 84
466 84
515 84
529 84
570 84
842 84
855 84
925 84
1145 84
9815 24
55 85
113 85
234 85
465 85
535 85
584 85
1011 85
1032 85
1190 85
1624 85
9178 86
8355 87
57 88
60 88
474 88
496 88
725 88
839 88
886 88
929 88
1182 88
1205 88
8795 89
5955 90
6460 91
8983 92
61 93
184 93
276 93
473 93
510 93
567 93
679 93
1165 93
1216 93
1235 93
7315 94
62 95
1255 95
1384 95
1639 95
1852 95
1891 95
1910 95
2036 95
2465 95
2822 95
8190 96
63 97
114 97
349 97
374 97
541 97
722 97
912 97
1130 97
1206 97
1867 97
4691 98
64 99
129 99
216 99
766 99
847 99
1042 99
1097 99
1234 99
1381 99
1671 99
2115 99
65 100
2168 100
2351 100
2991 100
3020 100
3107 100
3108 100
3209 100
3622 100
3854 100
7819 24
66 20
273 20
478 20
740 20
768 20
985 20
1060 20
1151 20
1176 20
1586 20
8919 101
67 102
80 102
154 102
163 102
333 102
352 102
621 102
794 102
1007 102
1111 102
8639 38
68 103
661 103
1349 103
1866 103
1948 103
2210 103
2337 103
2520 103
2538 103
2941 103
3113 104
69 105
152 105
1212 105
1544 105
1621 105
1710 105
1755 105
1935 105
1998 105
2029 105
2153 105
70 106
316 106
701 106
770 106
890 106
893 106
1024 106
1066 106
1192 106
1959 106
9456 24
71 107
445 107
572 107
626 107
702 107
719 107
818 107
880 107
1215 107
1816 107
3121 108
9531 86
7294 109
74 110
518 110
534 110
554 110
622 110
767 110
787 110
798 110
856 110
1044 110
1990 111
4230 112
76 113
840 113
1325 113
1420 113
1528 113
1584 113
1796 113
1862 113
1872 113
2582 113
6143 114
8204 115
79 116
1278 116
1403 116
1433 116
1572 116
1636 116
1657 116
1709 116
1900 116
2300 116
8410 117
9452 118
81 119
355 119
492 119
659 119
669 119
687 119
849 119
983 119
1203 119
1453 119
8733 120
82 121
90 121
208 121
320 121
470 121
664 121
688 121
875 121
1144 121
1231 121
6530 122
8483 123
84 95
4579 124
85 18
148 18
452 18
588 18
608 18
703 18
866 18
879 18
887 18
1147 18
5065 125
6984 115
87 49
149 49
169 49
174 49
342 49
522 49
675 49
699 49
843 49
1355 49
8440 126
88 127
214 127
224 127
444 127
548 127
796 127
857 127
1107 127
1228 127
1601 127
5152 128
89 129
1283 129
1302 129
1303 129
1392 129
1687 129
1748 129
1819 129
1880 129
2136 129
9820 58
6884 130
91 131
115 131
164 131
263 131
705 131
761 131
896 131
990 131
1770 131
1868 131
7078 132
92 133
93 133
99 133
205 133
586 133
598 133
891 133
901 133
926 133
1102 133
9323 23
3408 134
1579 75
95 135
1244 135
1277 135
1506 135
1668 135
1733 135
1747 135
1801 135
1841 135
2019 135
2580 136
6748 137
97 138
109 138
127 138
151 138
309 138
428 138
607 138
830 138
864 138
1217 138
3794 139
6435 140
6108 141
100 142
105 142
210 142
315 142
346 142
694 142
774 142
1048 142
1233 142
1449 143
1779 142
101 144
299 144
419 144
526 144
603 144
641 144
743 144
903 144
1225 144
2040 144
9285 145
102 146
199 146
288 146
332 146
574 146
808 146
938 146
949 146
969 146
1209 146
6404 147
8309 92
104 148
248 148
292 148
301 148
417 148
459 148
484 148
575 148
656 148
966 148
4090 149
9691 78
106 150
375 150
488 150
539 150
814 150
878 150
1191 150
1219 150
1393 150
2106 150
4329 151
1809 152
108 153
1247 153
1340 153
1353 153
1611 153
1677 153
1820 153
1983 153
2127 153
2150 153
8789 154
5910 155
110 156
1385 156
1432 156
1485 156
1767 156
1911 156
1924 156
1943 156
2030 156
2767 156
7611 157
7496 46
112 158
380 158
1242 158
1248 158
1476 158
1662 158
1897 158
1919 158
2015 158
2904 158
3793 159
7863 160
9966 26
7761 161
116 162
1173 163
1481 162
1595 162
2182 162
2204 162
2229 162
2296 162
2887 162
3003 162
3471 162
8913 92
118 164
296 164
331 164
571 164
680 164
736 164
833 164
850 164
906 164
956 164
3768 165
8564 166
7048 36
5153 167
3885 104
123 168
1434 168
1443 168
1600 168
1658 168
1950 168
2010 168
2083 168
2140 168
7458 169
4426 170
9506 171
4287 172
9094 171
2551 173
2698 174
130 150
178 150
206 150
215 150
354 150
429 150
497 150
902 150
1022 150
1929 150
8016 175
131 176
244 176
369 176
561 176
717 176
753 176
829 176
936 176
1162 176
1183 176
5957 177
132 178
157 178
194 178
274 178
435 178
671 178
788 178
823 178
934 178
1068 178
8236 96
1493 179
3900 180
135 181
298 181
372 181
455 181
490 181
595 181
660 181
811 181
821 181
1944 181
8886 5
136 182
632 182
657 182
1299 182
1537 182
1703 182
1751 182
1756 182
1828 182
2672 182
6422 183
8427 184
138 185
1270 185
1335 185
1338 185
1514 185
1567 185
1610 185
1617 185
1684 185
2080 185
2108 185
139 186
223 186
340 186
438 186
551 186
882 186
1028 186
1033 186
1051 186
1940 186
8998 187
8473 82
7631 188
142 189
359 189
379 189
486 189
634 189
652 189
778 189
851 189
953 189
1122 189
143 190
272 190
307 190
341 190
345 190
388 190
434 190
698 190
1019 190
1166 190
8959 74
144 191
935 192
1378 191
1386 191
1438 191
1815 191
1846 191
1865 191
2119 191
2457 191
2856 191
6050 193
146 194
182 194
236 194
287 194
305 194
723 194
737 194
942 194
1052 194
1265 194
5208 195
8305 196
9287 197
150 198
1439 198
1504 198
1532 198
1830 198
1851 198
2011 198
2014 198
2111 198
2477 198
8924 21
9857 166
7856 120
2222 199
8997 200
1992 201
3050 202
1923 203
158 204
382 204
506 204
542 204
739 204
795 204
913 204
1069 204
1081 204
1133 204
4844 205
6987 206
160 207
213 207
286 207
328 207
683 207
731 207
860 207
962 207
1170 207
1221 207
9956 1
1510 208
9342 147
7036 9
239 209
165 203
173 203
1279 203
1380 203
1428 203
1441 203
1973 203
2156 203
2436 203
9238 210
166 211
1445 211
1545 211
1594 211
1682 211
2570 211
2771 211
2859 211
2996 211
3222 211
3573 211
167 212
443 212
877 212
1300 212
1529 212
1645 212
1735 212
1742 212
1947 212
2240 212
6796 213
168 214
212 214
261 214
265 214
775 214
797 214
805 214
834 214
955 214
1089 214
4739 215
9932 166
7864 216
7664 161
172 81
430 81
457 81
461 81
645 81
729 81
745 81
779 81
1005 81
1098 81
9884 101
527 203
1932 217
175 218
1304 218
1372 218
1429 218
1455 218
1590 218
1676 218
1757 218
1829 218
2076 218
7723 219
6057 125
6115 220
9192 145
179 221
228 221
446 221
784 221
809 221
919 221
974 221
1040 221
1181 221
1831 221
9283 222
180 223
2259 223
2508 223
2529 223
2707 223
2711 223
2789 223
3186 223
3279 223
3509 223
9201 200
6321 224
9031 175
183 225
1326 225
1350 225
1461 225
1468 225
1498 225
1713 225
1743 225
2091 225
2415 225
9714 175
5089 226
185 227
852 227
951 227
1358 227
1608 227
1773 227
1808 227
1876 227
2102 227
2456 227
9420 118
186 228
396 228
517 228
563 228
848 228
869 228
1134 228
1175 228
1200 228
1649 228
7467 229
2504 230
6360 124
9461 118
190 231
247 231
366 231
398 231
439 231
471 231
691 231
836 231
1008 231
1188 231
3648 232
192 163
233 163
483 163
617 163
682 163
759 163
764 163
838 163
1218 163
5391 233
8187 23
7868 117
7832 234
2498 235
5906 236
198 237
1281 237
1297 237
1315 237
1377 237
1629 237
1871 237
1961 237
2032 237
2086 237
5867 238
6604 52
3458 239
7115 17
202 240
356 240
358 240
521 240
733 240
895 240
897 240
991 240
1114 240
1322 240
9879 21
3006 241
204 176
291 176
338 176
587 176
620 176
918 176
939 176
980 176
1027 176
1094 176
5763 242
8165 243
8928 46
7805 188
7189 244
4877 245
5660 246
9924 24
3580 247
9171 31
1596 248
7179 120
8227 74
9899 21
219 190
253 190
311 190
482 190
689 190
713 190
741 190
863 190
930 190
1156 190
9618 118
2557 249
221 250
2207 250
2381 250
2548 250
2550 250
2713 250
2785 250
2863 250
3415 250
3629 250
4382 251
222 209
251 209
581 209
601 209
650 209
651 209
685 209
1046 209
1058 209
8342 87
9208 21
1731 217
225 252
2248 252
2275 252
2324 252
2382 252
2394 252
2833 252
2846 252
2878 252
3333 252
8570 82
227 253
1850 254
2186 253
2332 253
2368 253
2425 253
2513 253
2740 253
2834 253
2876 253
2942 253
9174 197
229 255
266 255
431 255
440 255
495 255
543 255
547 255
898 255
1100 255
1187 255
8774 154
230 256
1289 256
1317 256
1398 256
1539 256
1548 256
1674 256
1686 256
1874 256
2853 256
5025 44
231 107
293 107
370 107
378 107
442 107
499 107
716 107
911 107
967 107
1201 107
9189 175
5987 257
1589 258
9997 187
5968 259
237 260
295 260
1598 260
1603 260
1789 260
1844 260
1977 260
2093 260
2098 260
2616 260
9523 118
238 212
9385 145
240 110
391 110
460 110
469 110
540 110
667 110
1092 110
1125 110
1197 110
1199 110
5395 261
6721 140
5022 262
243 263
491 263
909 263
1291 263
1332 263
1549 263
1678 263
1956 263
2261 263
2488 263
3925 264
9668 63
245 265
258 265
410 265
946 265
958 265
1031 265
1121 265
1163 265
1229 265
2058 265
6100 266
9413 56
3643 267
249 268
336 268
361 268
762 268
871 268
874 268
933 268
1017 268
1101 268
1616 268
8969 38
9361 5
3269 269
252 270
418 270
504 270
684 270
785 270
841 270
884 270
1103 270
1104 270
1406 270
6251 141
4678 271
8781 145
9286 197
256 204
314 204
368 204
468 204
568 204
625 204
782 204
783 204
1169 204
1489 204
6905 272
8229 222
3949 273
260 256
262 274
1263 274
1323 274
1541 274
1588 274
1628 274
1746 274
1763 274
1915 274
1974 274
7167 275
3250 276
264 277
409 277
458 277
536 277
777 277
1006 277
1029 277
1120 277
1172 277
1301 277
8066 96
7839 206
279 278
9537 86
268 279
3262 279
3307 279
3465 279
3572 279
3590 279
3670 279
3703 279
3712 279
4205 279
9951 166
2505 103
6021 161
271 280
362 280
707 280
708 280
714 280
1053 280
1108 280
1194 280
1227 280
1345 280
8974 26
8988 54
2235 202
1367 281
9536 86
277 254
1754 254
1996 254
2177 254
2347 254
2409 254
2612 254
2649 254
3008 254
6273 282
7979 282
278 258
1341 258
1457 258
1462 258
1517 258
1711 258
1818 258
2497 258
2563 258
9610 58
1253 278
1399 278
1440 278
1699 278
1727 278
1762 278
1968 278
2089 278
2137 278
280 99
322 99
637 99
697 99
807 99
937 99
978 99
999 99
1137 99
8512 154
282 217
1370 217
1418 217
1707 217
2062 217
2414 217
2471 217
2814 217
4249 91
283 283
1653 283
2541 283
2611 283
2779 283
2794 283
2828 283
2845 283
2930 283
3533 283
8183 284
6167 285
8967 89
9062 89
8476 117
289 153
8286 54
8008 286
7981 287
7256 169
9555 222
9497 145
1179 260
6537 288
6198 140
297 289
404 289
405 289
509 289
602 289
924 289
1062 289
1177 289
1236 289
1638 289
6343 290
9669 147
2603 291
9927 166
2976 292
5155 245
4011 293
7226 294
8538 295
9982 31
5274 296
9046 222
310 192
393 192
544 192
596 192
636 192
724 192
771 192
1140 192
1873 192
8518 126
2719 297
312 298
373 298
513 298
582 298
593 298
854 298
905 298
981 298
1174 298
2138 298
313 75
326 75
347 75
670 75
846 75
1118 75
1124 75
1274 75
1701 75
3270 170
2284 269
9069 26
9807 222
7102 169
6226 52
6249 299
6107 184
5753 300
5548 41
2718 301
5424 302
9679 31
8948 118
8693 154
9442 24
9321 145
9404 56
4554 183
8503 117
334 72
376 72
681 72
735 72
806 72
940 72
976 72
1082 72
1123 72
3093 303
8806 154
337 304
385 304
1251 304
1282 304
1503 304
1631 304
1663 304
1696 304
1855 304
2600 304
4133 305
5112 259
8292 109
7901 196
9406 118
5750 59
5201 28
1605 306
9518 307
7603 308
8738 101
8527 76
5695 305
6840 114
353 309
1934 309
2194 309
2357 309
2466 309
2506 309
2558 309
2722 309
2760 309
3118 309
9645 56
1486 310
9847 187
9448 145
9596 307
8486 19
7406 311
4406 139
363 312
1357 312
1693 312
1785 312
1890 312
1905 312
1962 312
2009 312
2423 312
2491 312
7057 13
2792 313
365 314
450 314
462 314
514 314
721 314
972 314
1014 314
1078 314
1093 314
1724 315
2142 314
6929 316
5544 317
4783 318
7371 68
9800 147
9935 147
4276 319
9961 26
8573 86
9210 210
4680 246
512 158
7206 171
381 320
477 320
480 320
583 320
646 320
786 320
825 320
1116 320
1186 320
2114 320
9572 86
7076 321
383 322
1285 322
1333 322
1382 322
1718 322
1732 322
1976 322
1979 322
2056 322
2075 322
8017 308
384 323
615 323
1442 323
1469 323
1502 323
1625 323
1824 323
2004 323
2043 323
2147 323
2872 324
1854 304
9515 166
9590 147
6139 125
9150 63
9354 171
4430 325
5707 59
2227 199
395 326
520 326
560 326
628 326
643 326
672 326
692 326
763 326
835 326
1193 326
5319 327
3980 112
397 297
2174 297
2335 297
2341 297
2380 297
2532 297
2597 297
2852 297
3200 297
2169 328
3730 329
4501 330
402 331
1560 331
1670 331
1928 331
1941 331
2100 331
2152 331
2191 331
2825 331
2915 331
403 168
1146 168
4099 332
5646 333
406 77
423 77
545 77
609 77
756 77
792 77
1002 77
1106 77
1273 77
3831 334
8397 19
408 335
532 335
613 335
619 335
804 335
916 335
932 335
1003 335
1059 335
1131 335
4354 336
9379 21
8603 200
9558 171
9431 21
414 337
449 337
569 337
655 337
907 337
998 337
1001 337
1072 337
1095 337
1417 337
5072 338
3579 339
1395 340
7522 308
8578 54
5054 341
9675 175
422 209
427 209
451 209
533 209
549 209
564 209
992 209
1076 209
1158 209
1690 209
8741 342
425 135
7071 308
8879 76
8668 184
3866 343
7491 344
9307 26
4291 345
432 248
1314 248
1390 248
1416 248
1480 248
1526 248
1995 248
2154 248
2737 248
9439 26
9909 26
2450 346
4112 346
436 347
2908 347
2973 347
3019 347
3075 347
3404 347
3557 347
3631 347
4116 347
4227 347
5622 238
437 348
1256 348
1361 348
1464 348
1646 348
1694 348
1702 348
1716 348
2105 348
2151 348
2769 348
8817 1
7396 349
9079 147
6518 311
6846 350
6459 351
8114 352
6486 349
8525 101
5227 296
6098 285
2994 353
2336 141
8508 46
453 136
1290 136
1708 136
1886 136
1902 136
1937 136
1985 136
2046 136
2122 136
2474 136
454 191
9871 187
6027 354
456 259
3911 259
5595 259
5713 259
5926 259
6033 259
6357 259
6463 259
6728 259
9784 26
6493 288
7041 122
3419 355
4505 356
5616 357
7881 115
3603 328
6960 354
9358 145
8791 23
9149 222
3224 195
8725 21
3007 358
472 359
1749 359
3285 359
3667 359
4337 359
4479 359
4592 359
4770 359
4896 359
4970 359
9265 222
3942 360
475 361
1261 361
1482 361
1552 361
1672 361
1679 361
1729 361
1942 361
1969 361
2239 361
6614 351
5121 362
3589 363
7918 92
2211 247
8531 61
481 364
1966 364
2202 364
2606 364
2609 364
2747 364
2816 364
2823 364
2855 364
2875 364
9740 171
3430 112
7191 126
1252 365
485 366
2039 366
2518 366
2911 366
3129 366
3290 366
3560 366
3615 366
4043 366
4077 366
7409 367
7909 316
9968 222
8955 46
5445 160
6381 368
865 263
8151 9
493 369
1245 369
1496 369
1511 369
1516 369
1585 369
1656 369
1680 369
1736 369
2599 369
4400 98
8510 370
3124 276
4443 371
8598 46
7927 94
2469 372
500 373
2370 373
2530 373
2562 373
2652 373
2744 373
2755 373
2817 373
2848 373
3426 373
3979 374
501 375
537 375
585 375
653 375
730 375
802 375
872 375
914 375
1063 375
1224 375
5064 376
7800 115
9211 210
8696 9
9369 63
8437 89
7160 377
5991 318
511 378
1239 378
1402 378
1563 378
1840 378
1912 378
2028 378
2143 378
2615 378
2892 378
9865 222
9974 147
6699 272
6879 206
4571 124
5863 379
8205 308
8880 222
7418 380
4297 215
3817 290
8243 381
9671 1
7318 382
7265 383
3340 384
530 385
559 385
947 385
1487 385
1661 385
2021 385
2055 385
2118 385
2214 385
2687 385
9614 1
8582 286
4862 371
9984 187
3459 386
2184 387
6587 380
5149 388
4017 245
9156 171
9830 23
6319 389
9880 24
8854 184
7105 188
8610 117
6696 272
8109 216
7306 166
5197 26
4669 390
553 391
1293 391
1366 391
1571 391
1856 391
1858 391
2003 391
2074 391
2107 391
2860 391
6077 290
6547 392
4423 317
9872 23
557 174
1249 174
1264 174
1339 174
1515 174
1618 174
1774 174
1925 174
2946 174
5826 165
1520 143
1978 385
8370 370
8842 307
6355 13
3457 393
8860 154
565 143
1363 143
1387 143
1665 143
1982 143
2013 143
2053 143
2564 143
9169 200
566 33
1391 33
1421 33
1424 33
1430 33
1578 33
1787 33
2112 33
2410 33
6425 394
1613 395
9501 21
1405 396
8851 145
8096 397
6688 229
6946 288
4004 398
9509 147
7690 399
4784 329
579 143
9398 286
9923 78
8300 89
7648 32
9249 24
9797 1
8372 5
9438 1
6312 400
7763 308
589 387
1538 387
1577 387
1627 387
1821 387
2128 387
2575 387
2639 387
6558 382
8027 200
7031 169
7488 160
8121 26
3259 401
6106 226
4957 402
597 403
1308 403
1436 403
1477 403
1786 403
1837 403
1885 403
2005 403
2045 403
2524 403
6455 244
9608 145
3953 355
600 322
9918 26
8559 61
4114 201
604 361
605 404
1792 404
2321 404
2607 404
2648 404
2897 404
2940 404
3077 404
3548 404
3606 404
3634 404
5298 405
8326 171
9702 56
610 406
1359 406
1558 406
1652 406
2023 406
2061 406
2077 406
2162 406
2675 406
2880 406
7557 34
7098 82
9168 200
1110 323
8123 342
616 407
2198 407
2344 407
2365 407
2375 407
2896 407
2899 407
3034 407
3248 407
3334 407
8261 21
3711 408
618 179
1034 179
1412 179
1495 179
1664 179
1836 179
1933 409
1972 179
2048 179
2226 179
1522 182
7887 219
7153 295
7551 43
624 199
2353 199
2478 199
2589 410
2903 199
3165 199
3312 199
3536 199
3595 199
627 235
2233 235
2340 235
2399 235
2581 235
2758 235
2953 235
3010 235
3647 235
8104 188
8244 216
7784 349
630 411
1348 411
2255 411
2279 411
2655 411
2932 411
2933 411
3475 411
3495 411
3663 411
8056 132
3975 412
9973 101
3893 141
9606 147
8562 46
638 413
1330 413
1472 413
1784 413
2517 413
2626 413
2750 413
2808 413
3193 413
3497 413
8396 82
2641 201
640 306
1306 306
1354 306
1459 306
1738 306
1847 306
1877 306
1975 306
2099 306
2595 306
4405 318
5719 43
6986 89
9942 175
9487 166
9163 58
3607 414
4275 393
8022 415
7001 21
5886 416
1530 386
9498 21
7710 206
9586 101
9911 1
3752 417
658 174
9449 74
2339 104
3869 418
2622 103
8831 216
662 33
7274 275
2804 386
9139 58
666 419
1324 419
1448 419
1523 419
1524 419
1583 419
1834 419
1859 419
1965 419
2132 419
8354 24
4117 172
6835 400
4304 420
8936 38
674 421
1444 421
1484 421
1531 421
1643 421
1706 421
1728 421
1806 421
2084 421
2536 421
5186 167
9758 187
676 422
2189 422
2192 422
2721 422
2743 422
2809 422
2884 422
3031 422
3204 422
3612 422
9242 197
677 395
1238 395
1272 395
1316 395
1568 395
1622 395
1842 395
2067 395
2158 395
5511 299
678 423
1312 423
1467 423
1471 423
1597 423
1720 423
1798 423
1857 423
1901 423
1986 423
2547 423
3135 424
9838 222
3652 425
9806 26
9876 175
2157 309
686 426
1258 426
1450 426
1470 426
1561 426
1688 426
1730 426
1814 426
2016 426
2038 426
7747 101
9825 1
1805 427
3025 428
2827 100
9302 21
9445 101
9124 24
7448 316
3947 393
9410 145
9437 56
7242 429
8874 76
2383 430
9564 26
706 65
1268 65
1343 65
1371 65
1673 65
1761 65
2033 65
2082 65
2130 65
5720 91
9803 101
7820 295
6542 137
4615 292
7928 294
9802 31
7213 282
1536 80
2185 80
2323 80
2453 80
2502 80
2576 80
2768 80
3013 80
3553 80
8816 24
7944 286
4895 371
9232 286
8127 166
3380 267
9706 26
7086 350
9083 307
727 227
8767 5
6346 224
8735 96
9330 175
9311 5
734 419
5989 195
6564 431
3660 134
8916 21
6286 169
7245 352
9288 1
742 340
1250 340
1305 340
1422 340
1917 340
1999 340
2024 340
2160 340
2554 340
5340 432
9852 145
5736 433
9771 118
746 239
2451 239
2462 239
2490 239
2643 239
2802 239
2889 239
3225 239
3460 239
4828 362
8734 117
750 16
4398 434
8579 282
752 435
2327 435
2434 435
2700 435
2811 435
2840 435
2862 435
2869 435
3435 435
3544 435
6855 34
7425 342
754 258
3586 436
755 393
2951 393
2979 393
3037 393
3066 393
3119 393
3699 393
9565 58
7735 17
7088 437
758 427
1454 427
1533 427
1554 427
1587 427
1930 427
1984 427
2068 427
2124 427
2556 368
7357 321
3962 438
5476 439
8039 109
7937 38
765 409
1262 409
1295 409
1375 409
1479 409
1505 409
1654 409
2018 409
2155 409
8050 123
4779 343
4452 28
6072 125
2691 386
4824 82
3807 41
2873 440
4621 3
3350 441
5379 233
4989 357
3126 442
7492 349
3878 443
8935 295
9673 26
5641 327
4279 276
9313 286
7264 321
1938 444
8064 316
793 409
6890 321
7582 15
5702 445
8657 89
6264 446
2268 447
800 391
9648 187
6626 114
7320 21
803 230
1320 230
1452 230
1764 230
1991 230
2103 230
2264 230
2342 230
2749 230
6633 272
3534 401
9441 24
9093 74
4370 343
7759 154
8981 307
6723 344
5723 416
3708 328
813 198
9632 21
9589 58
8294 19
816 448
1257 448
1364 448
1423 448
1483 448
1782 448
1889 448
1906 448
1955 448
2085 448
817 449
1473 449
1509 449
1593 449
1667 449
1800 449
1869 449
2027 449
2057 449
2503 449
5144 405
819 450
1086 450
1360 450
1419 450
1744 450
1802 450
1920 450
1939 450
2002 450
2123 450
8492 197
4556 71
8033 295
9494 21
7203 115
826 451
1288 451
1356 451
1446 451
1861 451
1951 451
2109 451
2673 451
2864 451
2898 451
9334 26
8330 101
5515 388
831 452
1054 452
1135 452
1298 452
1376 452
1648 452
1898 452
2069 452
2117 452
2902 452
3836 453
8301 154
8615 222
6187 114
6118 454
6318 216
2938 455
9853 63
5150 122
6484 368
7433 26
4599 205
845 7
1275 7
2193 7
2511 7
3298 7
3301 7
3389 7
4111 7
4264 7
8644 120
8835 26
5484 456
1478 457
8949 74
4929 180
6398 458
5567 456
8168 94
8356 243
9970 147
859 459
1535 459
2200 459
2308 459
2313 459
2531 459
2638 459
2926 459
3102 459
3613 459
6615 68
9664 166
7077 183
6236 460
9936 187
8563 275
9985 31
8485 1
7851 87
3955 461
9980 147
7395 130
9875 175
8807 92
3777 215
9975 74
4267 462
3863 159
3551 463
5269 195
9119 187
5301 432
9251 307
8036 126
9462 56
9362 76
1070 248
889 116
8618 123
5377 464
6359 383
6949 465
894 413
1863 413
8506 21
5814 466
8364 282
6479 109
4778 336
2982 172
6556 219
904 254
2849 254
6514 425
6508 350
8671 1
2964 376
5321 341
9167 5
3252 134
5506 236
915 365
1294 365
1334 365
1513 365
1574 365
1647 365
1993 365
2818 365
2916 365
8071 19
5179 180
4372 467
3522 468
3249 301
9389 222
5060 469
9215 187
6394 132
6922 234
7220 76
2476 470
4748 471
7758 381
4649 472
6772 43
9986 1
7540 78
6790 15
4731 177
9080 76
7243 415
2688 473
9592 74
9667 26
8376 89
9075 54
2539 267
4817 28
1700 360
954 450
6647 397
4945 101
5336 474
4494 333
7379 213
9295 200
965 475
1142 475
1296 475
1329 475
1410 475
1463 475
1698 475
1777 475
1931 475
1960 475
2090 475
9920 31
9532 56
968 476
1313 476
1383 476
1460 476
1559 476
1958 476
2070 476
2071 476
2072 476
2148 476
2289 476
4927 165
4785 374
3888 134
7544 311
4677 302
975 156
4314 70
977 421
6876 36
5704 356
6126 165
9454 74
8349 316
1681 477
984 478
2442 478
2837 478
2978 478
3232 478
3325 478
3492 478
3568 478
3616 414
3960 478
9339 58
2190 313
986 278
9731 145
5568 479
7998 17
9222 197
7182 465
993 480
2463 480
2470 480
2717 480
2733 480
2735 480
2759 480
2813 480
3217 480
3264 480
3582 480
9587 56
5966 327
3469 264
8847 187
8439 197
2458 269
4322 416
9757 21
6289 481
4801 197
9489 307
9051 1
1010 312
7692 36
5470 482
9867 166
9120 197
1015 217
7300 344
1016 451
8418 282
5552 59
1018 483
1269 483
1435 483
1719 483
1723 483
1741 483
1752 483
1778 483
1853 483
2110 483
8507 96
9689 31
4449 262
1021 152
1259 152
1365 152
1437 152
1569 152
1637 152
1766 152
2126 152
2134 152
8339 92
3241 173
9338 307
4241 351
1026 365
8340 381
7186 36
6526 32
3983 180
3480 149
7193 229
1038 331
8148 295
8832 381
7039 71
9846 145
9337 118
1926 484
6365 200
2495 30
1049 208
1456 208
1508 208
1553 208
1564 208
1823 208
1971 208
2034 208
2078 208
2149 208
6608 425
5522 485
6409 486
7125 17
1427 452
7010 206
9429 171
9609 23
3627 487
1351 488
9104 5
7051 183
9432 147
8566 23
5844 59
7797 169
1067 230
9588 118
9166 118
3682 41
9946 31
9402 23
1074 129
8715 370
6487 429
1077 489
1602 489
2269 489
2274 489
2378 489
2624 489
2644 489
2680 489
2766 489
3073 489
7405 275
7942 188
8441 92
9024 31
9650 222
3445 355
4860 244
9763 147
4438 490
5633 257
5885 246
9652 145
6710 400
7529 171
7136 307
8895 175
2161 111
7402 216
3934 491
4609 325
8772 92
3080 104
4075 492
9601 26
6481 493
8990 61
3115 345
5519 261
9078 197
9987 21
1112 264
3117 264
3180 264
3291 264
3306 264
3555 264
3636 264
3941 264
7810 166
4616 494
3991 108
6020 495
5253 216
7516 415
5573 305
1119 306
1336 306
1475 306
1556 306
1581 306
1759 306
1921 306
2065 306
2312 306
2396 306
3300 414
6599 290
7855 321
3665 468
9175 1
1126 179
5997 496
9279 58
9952 63
1128 463
3688 463
3771 463
4369 463
4425 463
4750 463
4978 463
4994 463
5048 463
8032 82
6832 379
3883 492
7281 117
9303 118
8213 316
1689 478
7656 234
1138 497
4457 497
4764 497
5236 497
5419 497
5606 497
5766 497
5767 497
5789 497
5838 497
8162 196
5536 397
3849 215
9298 210
1143 444
1307 444
1451 444
1557 444
1575 444
1641 444
1827 444
2129 444
2225 444
2343 444
6765 399
7911 26
8055 282
8164 96
1148 449
9993 26
6150 344
8711 175
7598 23
9571 147
7954 87
6944 383
8393 154
3127 67
8258 54
7984 1
2238 303
7231 15
2791 498
7023 382
8389 61
3044 416
8051 219
1168 113
3686 360
7646 187
7196 342
7006 188
8225 87
5799 266
7600 171
7236 196
9271 23
8012 157
7459 316
6541 458
8553 46
9434 76
3353 301
1189 457
1426 457
1500 457
1519 457
1714 457
1776 457
1913 457
2000 457
2165 457
5468 90
4030 104
7075 130
7372 429
3130 430
7304 187
9748 21
6495 499
7882 352
9345 286
7790 160
9789 175
3563 473
5529 90
1207 500
2573 500
2651 500
2668 500
3017 500
3308 500
3452 500
3632 500
3668 500
3722 500
6804 71
9938 147
3254 313
8003 161
6039 169
1213 448
9687 145
5620 432
8678 21
4918 341
3873 490
8296 275
5481 501
5540 125
8626 171
8968 58
5323 238
4720 157
7738 161
7569 132
4236 76
5235 502
2171 503
2993 504
8234 89
9801 78
7667 287
1237 433
5725 433
5787 433
6018 433
6022 433
6069 433
6096 433
6111 433
6140 433
6299 433
9613 24
1952 395
8718 216
1400 378
7177 505
1240 506
1344 506
1396 506
1409 506
1634 506
1697 506
1726 506
1760 506
1927 506
2088 506
2842 506
1241 272
6402 272
6681 272
6693 272
6729 272
6827 272
6845 272
9325 307
1243 30
9020 21
2164 369
1246 470
1260 470
1626 470
1666 470
1799 470
1810 470
1894 470
2310 470
2552 470
2674 470
6981 399
8818 117
4332 44
8226 31
1860 340
3525 442
1254 507
1630 507
2217 507
2346 507
2433 507
2489 507
2500 507
2521 507
2586 507
2725 507
3098 507
3456 507
7462 160
7188 171
2247 455
1591 426
4950 402
1491 152
3315 390
6026 125
7756 43
9493 63
1953 274
2800 111
6874 140
9864 23
7597 508
8266 171
1267 407
2135 407
7520 92
1414 65
1368 483
9254 147
1271 435
2230 435
7828 21
8390 117
9695 166
9912 222
2512 7
2662 7
3448 7
1276 269
2390 269
2427 269
2847 269
2857 269
2900 269
2924 269
3183 269
8221 109
8090 219
1280 477
1685 477
1878 477
1909 477
1967 477
2116 477
2144 477
2236 477
2418 477
2705 477
6240 382
1542 237
8852 96
6464 509
9017 26
1284 430
1882 430
2263 430
2400 430
2729 430
2948 430
2954 430
3016 430
3387 430
7822 109
1286 504
1781 504
2314 504
2634 504
2692 504
2709 504
2955 504
3284 504
3498 504
3828 504
8175 166
1287 309
3810 236
6718 510
9244 210
7248 415
1292 223
2280 223
8796 38
6389 511
6585 446
2063 512
6166 513
4834 3
7745 294
9674 166
9025 92
8576 216
1474 218
7950 282
8539 381
1499 306
9514 147
4481 514
1721 403
5038 266
1309 358
2995 358
3235 358
3413 358
3434 358
3592 358
3625 358
3923 358
3984 358
4175 358
1310 201
2292 201
2358 201
2565 201
2961 201
3271 201
3275 201
3540 201
4144 201
5737 177
1311 515
1497 515
1606 515
1632 515
1758 515
1870 515
1981 515
2042 515
2087 515
2097 515
2133 515
2404 334
5708 394
2723 393
5247 38
2273 440
1318 516
2981 516
2990 516
2992 516
2998 516
3339 516
3421 516
3620 516
3736 516
3750 516
4014 516
7906 19
5670 226
1321 517
1525 517
1547 517
1683 517
1695 517
1725 517
1833 517
1848 517
2096 517
2141 517
2931 517
8740 21
6354 394
9359 175
4980 494
6843 275
6221 518
2854 225
9773 101
1327 310
1425 310
1540 310
2223 310
2287 310
2389 310
2448 310
2509 310
2510 310
2697 310
2820 310
5760 195
1328 519
1771 519
2320 519
2331 519
2416 519
2665 519
2810 519
2839 519
2907 519
2914 519
3596 519
3926 434
5165 305
1331 111
1570 111
1576 111
1838 111
1881 111
2104 111
2131 111
2716 111
9306 23
9392 26
6190 266
6959 510
1337 488
2120 488
2234 488
2244 488
2266 488
2377 488
2387 488
2830 488
3026 488
3378 488
9760 101
8167 82
5474 520
1342 521
1492 521
2113 521
2187 521
2257 521
2455 521
2704 521
2714 521
2764 521
2984 521
3203 521
3841 522
9549 31
2676 512
8706 78
1346 76
8976 76
9199 76
9217 76
9374 76
9384 76
2025 411
2081 411
6581 523
5220 257
8304 196
2657 488
9659 21
6513 380
9649 58
4868 434
4976 405
1675 406
5203 486
6303 234
1362 319
2736 357
5351 319
5390 319
5774 319
6099 319
6114 319
6154 319
6179 319
6285 319
6305 319
2921 524
4050 525
5352 458
7930 117
1592 281
1753 281
2258 281
2439 281
2533 281
2602 281
2625 281
2664 281
2775 281
7594 117
3859 438
5797 177
1369 276
3246 276
3320 276
3839 276
4188 276
4220 276
4238 276
4273 276
4453 276
4679 276
9393 21
9470 286
5417 293
1373 247
2260 247
2311 247
2317 247
2515 247
2610 247
2712 247
3036 247
3276 247
3381 247
7446 34
1374 173
1490 173
2256 173
2654 173
2801 173
2850 173
2912 173
3021 173
3058 173
8331 19
4484 3
5055 432
1379 526
1573 526
1599 526
1887 526
1896 526
1899 526
2121 526
2249 526
2298 526
2305 526
2566 526
7949 123
4240 345
6656 400
7666 284
6544 509
5959 368
4941 341
3812 315
6919 82
4152 374
9888 1
5028 50
8378 126
6826 370
6724 13
8765 342
1394 527
1401 527
1527 527
1543 527
1546 527
1692 527
1765 527
1791 527
1875 527
2020 527
2059 527
4189 167
4768 224
1397 252
1609 252
5679 166
6702 379
6242 379
7174 321
9378 286
8242 94
1404 440
1620 440
2435 440
2571 440
2741 440
2799 440
3095 440
3255 440
3393 440
8904 61
1413 396
1501 396
1812 396
1964 396
1989 396
2017 396
2050 396
2073 396
2101 396
2583 396
3763 401
7847 206
4713 528
1408 529
2251 529
2283 529
2286 529
2374 529
2376 529
2379 529
2482 529
2686 529
3277 529
3562 529
9071 31
6861 523
8947 118
1411 430
9548 24
4328 371
6663 9
1415 332
2267 332
2334 332
3847 332
4070 332
4491 332
4641 332
4694 332
5160 332
5191 332
8636 9
9624 78
5182 341
7464 210
7027 308
6243 91
9010 86
7361 117
6420 183
4214 514
1722 457
7699 349
4487 325
7825 86
3672 530
1431 531
1447 531
1512 531
1565 531
1768 531
1769 531
1903 531
1949 531
2146 531
2419 531
2494 531
8448 145
9021 381
6824 441
5747 259
7269 188
7649 76
9617 26
8363 352
4385 400
2079 211
7610 206
7123 17
7850 508
8762 86
1650 80
1813 427
3604 346
9397 26
6372 52
1458 490
3310 490
4166 490
4262 490
4274 490
4606 490
4769 490
4775 490
9688 1
7513 367
5448 383
8714 126
9756 222
7305 184
1465 532
2454 532
4110 532
4148 532
4399 532
4411 532
4539 532
4578 532
5087 532
5166 532
5180 532
5200 532
1466 386
2183 386
2348 386
2720 386
2777 386
2909 386
3223 386
8193 533
9765 74
3367 390
9955 166
2167 534
8986 145
2159 516
9114 31
8624 295
3468 535
1795 162
2049 162
7886 415
6648 510
8712 56
9368 26
1488 487
2437 484
3083 487
3226 487
3342 487
3425 487
3504 487
3516 487
3743 487
3790 487
4216 487
6300 300
1555 173
7293 505
9841 24
2650 521
8147 82
1494 267
2514 267
2544 267
3065 267
3363 267
3499 267
3605 267
3922 267
8179 175
8596 287
8421 26
4146 139
3990 245
4102 499
8124 533
7885 397
7700 161
8663 118
5232 233
9538 74
9547 145
1507 504
3157 504
7817 115
8543 15
5187 458
4786 443
7965 370
8856 154
8142 219
6623 183
9158 74
9427 147
1518 239
1660 239
7549 206
1521 297
2677 297
6665 36
5965 193
6522 446
7717 1
2037 386
6982 244
5847 425
1534 536
3782 536
4355 536
4465 536
4528 536
4613 536
4699 536
4754 536
4893 536
5088 536
5128 536
5205 177
1997 459
2619 459
6552 234
1633 80
9296 46
9959 26
1945 387
1980 387
6125 290
8255 82
8871 46
6897 87
7977 5
8495 76
4597 232
6563 11
8593 5
1790 71
6568 344
1550 502
3336 502
4358 502
4629 502
4890 502
4987 502
5029 502
5130 502
5146 502
8245 275
9775 78
1551 355
2428 355
2588 355
3399 355
3614 355
3872 355
4080 355
4191 355
4253 355
4320 355
8450 74
5715 537
7124 370
8346 286
4341 371
9661 171
3633 346
6387 389
1562 422
3085 422
7718 367
9754 31
4324 123
7559 36
1566 538
2054 538
2064 538
2166 538
2270 538
2574 538
2593 538
2620 538
2693 538
2919 538
9067 89
9844 26
5895 454
5035 44
5464 462
5425 429
6501 493
7015 220
8386 19
8028 132
1580 281
3289 281
6697 380
9682 23
1582 424
2232 424
2302 424
2523 424
2584 424
2710 424
2826 424
2917 424
3242 424
3519 424
8876 21
8763 54
4934 305
3576 241
9900 1
7019 63
4447 98
8963 56
9578 307
8344 196
9901 31
6578 377
7606 321
5856 496
8589 31
2461 489
2596 489
6707 539
1604 540
1737 540
2051 540
2199 540
2241 540
2276 540
2352 540
2629 540
2670 540
2865 540
3038 540
3599 540
4183 325
1607 269
4831 530
6482 351
9466 24
9697 147
1612 536
4258 541
4471 536
3738 273
2699 393
7732 46
1619 537
4570 537
4981 537
5669 537
5779 537
5855 537
5963 537
6044 537
6067 537
6211 537
7913 200
1918 440
5116 300
9969 175
1623 524
4441 524
4535 524
4804 524
4816 524
4885 524
4936 524
5070 524
5209 524
5591 524
5594 524
8502 287
3992 215
7914 188
3723 398
7201 321
9145 86
8152 32
5692 482
2567 455
9735 58
1635 447
2035 447
2220 447
2362 447
2726 447
2803 447
3057 447
3096 447
3148 447
3506 447
5512 300
8934 23
1640 447
5882 125
6161 161
1642 542
1908 542
1970 542
2350 542
2355 542
2405 542
2429 542
2438 542
2781 542
2832 542
3145 542
7172 68
7612 382
9122 31
5822 140
9125 101
3466 343
7389 36
2139 283
6752 383
8616 63
1655 512
1843 512
2671 512
2805 512
2836 512
2858 512
3205 512
3234 512
3482 512
9522 26
8999 58
8736 166
2175 345
9917 26
1669 417
2867 417
3479 417
3783 417
3835 417
4027 417
4286 417
4366 417
4408 417
4672 417
7140 31
2881 484
6272 354
9227 175
7463 308
5570 41
9216 197
8311 287
9516 222
2702 468
3704 232
3394 436
8449 282
7665 352
2367 478
2621 478
2752 478
6521 284
8565 19
9874 78
1691 345
3338 345
3362 345
3559 345
3954 345
4041 345
4242 345
9928 222
9634 56
4311 244
8023 284
8699 126
6645 287
4108 327
3039 360
3048 360
3212 360
3356 360
3473 360
3800 360
3853 360
4018 360
4019 130
7961 342
4154 134
1704 372
1883 372
2231 372
2432 372
2522 372
2762 372
3321 372
3432 372
3455 372
3513 372
1705 522
3724 522
3779 522
3937 522
3970 522
4048 522
4059 522
4169 522
4627 522
4683 522
9622 187
9019 175
5405 454
1712 155
4947 155
5255 155
5406 155
5514 155
5535 155
5674 155
5765 155
5901 155
5907 155
9278 200
8475 533
1717 273
3372 273
3769 273
3918 273
3950 273
4232 273
4321 273
4496 273
4550 273
4757 273
6749 11
7755 15
7866 74
9034 118
3802 541
6679 234
3110 315
3731 315
3903 315
4084 315
4125 315
4185 315
4330 315
4401 315
4574 315
4196 305
4093 498
8977 38
9637 26
9328 101
5897 439
5954 460
8549 175
1739 321
6574 321
6867 321
6933 321
7370 321
7468 321
7514 321
7684 321
7701 321
9738 307
1740 543
2738 543
3005 401
3151 543
3229 543
3247 543
3351 543
3453 543
3710 543
3965 543
3968 543
4064 543
7741 123
7114 234
8070 43
8206 115
8352 123
6950 513
9505 147
3076 359
3470 359
3867 359
4046 359
1750 264
2724 264
3454 264
5935 68
6602 288
4015 524
4263 544
9064 54
8918 86
6332 508
8402 63
8551 287
7355 120
6851 222
3635 325
9696 21
8517 19
7757 82
5798 68
2345 519
1772 453
2221 339
2527 453
3144 453
3366 453
3373 453
3385 453
3554 453
3611 453
3976 453
4029 453
7045 224
1775 534
2262 534
2537 534
3059 534
3091 534
3237 534
3286 534
3379 534
3490 534
3518 534
4139 534
8846 78
7680 123
3786 503
1780 545
2356 545
2372 545
2449 545
2516 545
2613 545
2793 545
2838 545
2923 545
3150 545
6910 213
8353 352
8399 15
1783 253
2947 253
6462 46
8465 61
9885 187
9709 175
1788 205
3546 205
4409 205
4413 205
4726 205
4909 205
4958 205
5115 205
5193 205
5577 205
8075 311
4034 71
4880 71
5982 71
6320 71
6373 71
6432 71
6644 71
7013 71
7016 71
3905 497
4416 317
1793 341
2967 341
3764 341
4318 341
4420 341
4869 341
5423 341
5560 341
1794 512
7303 465
4459 546
9015 118
1797 455
2359 455
3207 455
3288 455
3742 455
3754 455
3778 455
3876 455
4158 455
8251 286
9638 86
8429 316
1803 547
1987 547
2392 547
2546 547
2572 547
2663 547
2778 547
2927 547
3128 547
3206 547
3376 547
1804 279
3293 279
6131 441
7713 160
7968 123
1811 410
1879 410
2278 410
2295 410
2306 410
2354 410
2412 410
2753 410
2782 410
2796 410
3162 417
8274 210
6634 548
3619 334
5626 482
9653 74
6477 52
6737 246
8687 26
8861 171
2945 442
1822 473
2181 473
2366 473
2397 473
2426 473
2444 473
2696 473
2918 473
3094 473
5986 392
5177 296
2237 549
1825 529
8316 370
1826 498
2307 498
2349 498
2473 498
2526 498
3022 498
3053 498
3097 498
3317 498
3357 498
4562 170
9843 74
5865 50
5021 434
8804 61
1832 550
2203 550
2316 550
2384 550
2411 550
2525 550
2543 550
2682 550
2883 550
2906 550
3244 550
9851 74
7358 399
5013 262
1835 134
2420 134
2577 134
3116 134
3414 134
3821 134
7923 175
7360 458
9270 21
7056 523
9823 1
8627 96
2424 551
1845 398
2216 398
2472 398
2974 398
3012 398
3024 398
3331 398
3361 398
3423 398
4450 460
1849 484
2170 484
2277 484
2293 484
2297 484
2618 484
2637 484
3650 484
9346 58
8081 17
7284 510
8166 86
4826 44
3071 552
8933 101
8247 169
2999 553
9411 86
4252 433
7808 188
9734 24
4518 376
5824 242
3973 151
6292 518
9513 63
9794 63
8828 286
5275 454
9681 187
9811 74
8375 171
9474 175
4209 368
1994 410
9252 63
7548 160
2309 549
2866 372
1884 537
5257 537
5613 537
5927 537
5995 481
5742 338
3045 195
7262 169
8892 200
1892 401
2060 401
2540 401
3281 401
3330 401
3332 401
3388 401
4509 376
1893 554
2319 554
2402 554
2492 554
2507 554
2545 554
2632 554
2642 554
2819 554
2943 554
2949 554
8388 370
1895 346
3141 346
3436 346
3450 346
3491 346
3515 170
3539 346
3597 346
3664 346
9382 89
5260 296
3618 555
7651 229
1904 279
3935 482
8833 381
9718 31
9868 31
2393 67
2960 67
8361 219
2594 542
8395 38
8289 86
9721 78
7703 166
3215 353
9716 24
1914 366
2701 366
3550 366
8228 533
5782 511
7185 429
7936 352
2325 468
8371 89
1922 290
5843 356
5915 290
6011 290
6338 290
6349 290
6431 290
6771 290
2483 498
3190 484
7789 19
6291 496
3862 528
8332 82
8938 166
5956 124
6347 234
8801 63
9028 210
9770 175
5783 493
9390 5
7375 160
1946 556
3043 556
3060 556
3251 556
3442 556
3803 556
3943 556
3995 556
4211 556
4373 556
4610 556
7332 382
8830 54
6616 441
8625 210
5034 59
7250 349
3578 557
1954 554
8141 200
5361 482
9612 187
1957 303
3014 303
3056 303
3070 303
3400 303
3403 303
3529 303
3997 303
4145 303
4224 303
9322 197
9340 86
1963 11
6095 11
6127 11
6407 11
6461 11
6503 11
6590 11
6808 11
8742 9
4916 446
2666 364
2728 364
9056 145
6864 244
9816 166
9088 92
4445 454
8177 126
4306 151
9755 63
7168 370
8197 219
8006 94
8021 126
2445 547
1988 358
2549 358
8233 196
7399 210
8836 9
2669 201
4560 90
9680 1
6716 380
2001 558
3695 558
3737 558
3978 558
4069 558
4237 558
4477 558
4658 558
4659 558
4709 558
5007 558
5058 558
9200 86
2006 315
7197 342
2007 273
9517 58
2008 336
3377 336
3444 336
3644 336
3684 336
3846 336
3864 336
4198 336
4256 336
4182 559
7521 161
3087 486
8813 216
8068 415
7266 548
9148 295
7100 229
9915 31
2022 455
6870 15
5478 317
3133 384
5409 431
5324 149
5614 177
8737 370
8971 76
7333 160
8660 31
5597 493
7404 342
8898 78
7067 311
2041 202
2178 202
2569 202
2591 202
2608 202
2653 202
2773 202
2969 202
3105 202
8398 23
2044 559
2658 559
2748 559
2977 559
3292 559
3297 559
3441 559
3463 559
3585 559
4235 559
5876 282
2047 555
2364 555
2408 555
2422 555
2430 555
2568 555
2844 555
2888 555
2988 555
3567 555
7674 17
2983 425
4296 376
5000 560
2052 480
3654 401
2245 538
2870 538
5143 165
7210 380
9045 74
9133 76
2772 401
9640 74
8776 166
6065 34
4397 251
2066 561
3537 561
4049 561
4572 561
4576 561
4633 561
4806 561
5154 561
5278 561
5408 561
5442 561
9412 56
8887 381
4858 356
9774 145
6316 469
5730 493
6376 493
4848 262
5195 165
9995 21
7555 370
4559 469
9685 175
9890 26
7018 441
9604 24
3705 546
8137 533
4825 34
2092 545
2212 545
9433 286
9541 31
2094 283
2095 235
2739 235
9401 46
6457 184
6906 141
9644 31
6228 392
6579 394
8428 54
9574 307
8511 175
9922 78
9356 23
2459 104
9235 31
8901 307
4820 114
9798 1
9902 31
2290 522
7702 157
9055 295
4977 52
3508 469
6865 437
2125 373
2937 373
9660 222
8591 243
8431 54
6584 342
8015 284
6630 137
5624 125
7608 15
9112 31
9004 58
9978 145
9575 26
7374 161
8501 19
2145 404
4944 479
7224 224
8867 92
7447 316
4951 433
8496 15
6692 380
9223 76
5454 434
2294 516
2163 241
3230 241
3239 241
3369 241
3512 241
3547 241
3719 241
3765 241
4138 241
4202 241
9707 74
8417 316
8613 117
8063 115
3583 534
2605 100
2905 100
2250 328
2333 328
2925 328
3218 328
3316 328
3483 328
3531 328
3545 328
3561 328
8150 284
2780 503
2824 503
3084 503
3240 503
3602 503
3850 503
3894 503
4192 503
4223 503
4663 503
2172 390
3100 390
3175 390
3856 390
3857 390
4010 390
4021 390
4157 390
4461 390
4740 390
2173 549
2196 549
2224 549
2480 549
2534 549
2679 549
2727 549
2730 549
2774 549
3406 549
8920 200
5412 344
2252 345
2681 345
2176 414
2406 414
2868 414
2971 414
3054 414
3280 414
3282 414
3913 414
4113 414
4141 28
2787 202
7112 220
2179 249
2197 249
2623 249
2703 249
2706 249
2776 249
2797 249
2815 249
2821 249
2829 249
2910 249
7330 367
2180 241
2318 473
5578 479
2188 313
3781 245
6580 523
5881 141
8544 61
3123 313
3188 313
3296 313
3309 313
3429 313
3433 313
3514 313
3637 313
3067 313
8464 166
9908 26
9049 89
2195 172
2656 172
3485 172
3594 172
3683 172
3755 172
3924 172
4073 172
4095 172
4590 172
8025 508
7926 21
4129 379
2201 551
2253 551
2385 551
2535 551
2590 551
2635 551
2683 551
2765 551
3000 551
3049 551
3564 551
7025 351
2421 550
7378 377
2205 134
2636 134
6713 137
2206 273
2631 250
2645 250
4379 456
2208 50
4204 50
4364 50
4634 50
4782 50
5049 50
5158 50
5188 50
5327 50
5586 50
5812 50
7411 465
2209 562
2407 562
2519 562
2756 562
3196 562
3211 562
3214 562
3260 562
3375 562
3556 562
3584 562
3591 562
9870 222
6561 171
5438 544
9138 307
2213 520
3524 520
4128 520
4788 520
4809 520
4845 520
5010 520
5026 520
5135 520
5344 520
5562 520
6269 493
4549 560
2215 251
2363 251
2877 251
3341 251
3687 251
4377 251
4630 251
4632 251
4639 251
5044 251
5164 251
8058 76
2386 398
2708 398
8953 54
2218 559
3258 559
2219 487
2874 487
6871 513
9483 187
2326 339
2460 339
2479 339
2501 339
2560 339
2770 339
2934 339
2939 339
3062 339
3587 339
2561 199
2788 199
7835 533
9405 286
9477 147
6079 242
2228 245
3994 245
4301 245
4473 245
4675 245
4684 245
5082 245
5199 245
7916 287
2587 424
5189 560
9768 31
2447 303
6192 177
6543 368
5857 394
2242 319
3944 319
4023 155
5211 319
5262 319
2243 492
3502 492
3543 492
3788 492
3806 492
4016 492
4118 492
4390 492
4545 492
4580 492
8962 24
8252 96
3535 215
4693 59
2246 428
2304 428
2481 428
2493 428
2647 428
2761 428
2861 428
2928 428
2966 428
3566 428
3624 428
8577 1
7352 308
9507 147
3143 328
4454 165
9772 175
2254 360
2920 360
9266 307
3833 288
4971 388
7792 196
8702 96
7032 510
9979 1
5411 293
4458 245
2265 341
9560 222
4674 302
2831 332
3243 332
4239 332
4777 332
9953 145
4808 491
2271 563
2894 563
2989 563
3042 563
3256 563
3337 563
3411 563
3549 563
3675 563
3907 563
4026 563
4063 563
5505 471
2272 541
3208 541
3329 541
3645 541
3691 541
3909 541
3967 541
4024 541
4551 541
4685 541
6451 183
5462 98
9309 21
4448 469
9726 78
9878 1
8555 15
2281 325
3131 325
3773 325
3816 325
4269 325
4316 325
4794 325
4879 325
4959 325
2282 112
2579 112
2936 112
3109 112
3355 112
3804 112
4065 112
4131 112
4756 112
6638 140
8868 61
2285 436
2601 436
2871 436
3004 436
3099 436
3104 436
3384 436
3440 436
3574 436
3609 436
9639 166
9077 147
2288 108
2361 108
2452 108
2798 108
3166 108
3268 108
3313 108
3826 108
3952 108
4180 108
6983 352
4688 564
9364 175
3149 522
4281 522
2291 301
3628 301
3819 301
4143 301
4167 301
4347 301
4396 301
4482 301
4671 301
4851 301
9992 78
7627 188
8212 89
4798 236
6760 91
2299 446
6117 446
6309 446
6310 446
6369 446
6410 446
6483 446
6576 446
6588 446
9554 175
5555 544
2301 272
6595 272
6659 272
8343 243
9708 23
8216 381
2303 259
5791 259
5884 259
5913 259
5981 259
7714 294
4839 140
7708 157
9001 286
8996 222
6666 508
6440 13
9793 31
9569 1
8489 15
7021 141
2315 490
2542 490
3405 490
3895 490
5381 327
4667 137
5441 238
6415 383
2322 481
5067 481
5168 481
5665 481
5860 481
5975 481
6156 481
6217 481
6267 481
6275 481
9082 286
4362 59
2963 468
3136 468
3185 468
3198 468
3443 468
4162 468
4212 468
4259 468
8889 46
4835 293
2330 469
4982 469
5542 469
5662 469
5693 469
5740 469
5877 469
6250 469
6276 469
6304 469
8520 307
6000 177
9085 187
5972 141
6279 141
6747 141
6921 141
6974 141
7042 141
7073 141
7152 141
5077 434
2338 384
2468 384
2851 384
2987 384
3015 384
3114 384
3417 363
3552 384
3658 384
3727 384
4177 384
2403 104
3153 104
3179 104
3374 104
3428 104
3694 104
3720 104
5487 456
8810 370
6377 160
8132 316
8383 38
6449 368
5384 501
6015 257
9534 307
7677 187
6260 437
7272 184
5414 429
6182 300
2360 541
2431 541
3940 460
9152 92
4085 128
2913 251
4207 236
2754 555
6577 394
8093 196
8628 295
5904 392
9759 307
2369 565
2446 525
3753 565
3792 565
3795 565
3981 565
3999 565
4200 565
4244 565
4375 565
4394 565
4547 565
4631 565
9357 187
2371 553
3061 553
3189 553
3304 553
3314 553
3728 553
3772 553
3874 553
4219 553
4280 553
4343 553
6046 431
7895 46
7408 161
9752 78
7726 120
8432 275
9319 210
7639 160
7279 17
8906 166
8925 89
9291 171
2388 471
3064 471
3871 471
4507 471
5212 471
5513 471
5628 471
5700 471
5804 471
5835 471
2391 420
3692 420
3887 420
4137 420
4391 420
4446 420
4512 420
4543 420
4595 420
5014 420
5142 420
9446 175
9173 23
9230 21
8759 126
2395 3
4832 3
4856 3
4904 3
4913 3
5105 3
5252 3
5473 3
9352 145
9655 145
6180 140
7368 63
2398 442
2786 442
2790 442
3033 442
3176 291
3343 442
3451 442
4006 442
4053 442
4172 442
2401 128
3588 128
3700 128
3845 128
3881 128
4066 128
4368 128
4605 128
4738 128
4857 128
5293 11
3184 139
2715 334
2763 334
2895 334
2965 334
2975 334
3221 334
3474 334
3677 334
4260 334
2441 414
8532 197
3642 562
7706 508
4315 350
8469 92
3774 291
9749 222
6601 431
8705 126
2413 302
3395 302
4437 302
4650 302
4710 302
4875 302
5525 302
5640 302
5716 302
5977 302
6596 308
7622 89
8072 5
7033 120
9598 74
2417 108
9504 145
9642 24
6755 137
9919 166
9304 74
9724 222
7676 308
7129 465
9422 118
9399 31
9195 46
9151 118
8703 184
4187 539
9455 63
9023 145
9065 54
9371 46
5306 460
5939 474
9234 145
2440 296
3805 296
3829 296
4522 296
4532 296
4861 296
5079 296
5553 296
3601 292
2443 402
3734 402
4403 402
4500 402
4952 402
5002 402
5003 402
5093 402
5348 402
5444 402
5455 402
7383 38
3030 525
3170 525
3354 525
3407 525
3418 525
3528 525
3565 525
3630 525
3641 525
3725 525
4383 402
8650 154
5418 261
2986 346
3657 566
5320 443
3146 532
3824 532
3865 532
7959 17
9096 307
9458 74
6942 513
9000 63
8498 117
3505 291
2464 112
3610 112
7772 377
8173 63
7940 311
2467 262
3219 262
4136 262
4495 262
4526 262
4643 262
4670 262
4915 262
2678 384
9072 295
9101 197
5932 432
9698 78
5607 318
5520 458
9579 1
2475 558
3111 558
4068 558
9450 286
5140 501
7836 145
9730 147
7920 31
6120 124
2484 500
2812 500
2929 500
2485 330
3689 330
3988 330
4007 330
4040 330
4359 330
4504 330
4702 330
4742 330
4767 330
5104 330
5194 330
6494 354
2486 232
2957 232
3236 232
3761 232
3784 232
3860 232
3870 232
4165 232
4378 232
4428 232
5908 193
2487 525
9690 24
8322 243
8041 24
5359 548
7827 31
8446 287
9447 58
2499 170
3072 170
3437 170
3510 170
3666 170
4186 170
4323 170
4381 285
4654 170
4711 170
9383 31
3391 560
6013 17
7734 43
8499 89
9821 63
7617 282
3842 463
2944 267
3365 267
8659 342
9595 58
8590 86
8688 76
9459 31
7428 157
4412 383
8995 166
2640 453
3638 453
2528 552
3120 552
3168 552
3187 552
3392 552
3424 552
3570 552
3767 552
3785 552
3789 552
4123 552
7625 415
5526 236
7691 87
4881 353
6049 285
9991 24
9631 58
9488 307
8766 78
8941 154
7507 46
5531 479
5618 454
9934 145
8909 96
2553 537
5172 537
9817 147
2555 471
3164 471
3996 471
4961 471
6553 389
5559 368
6184 368
6342 368
6411 368
6426 368
6523 368
6535 368
2559 493
5621 493
5721 493
6199 493
6399 493
6401 493
6506 493
6527 493
6701 493
9111 200
9581 23
5636 318
9205 31
9703 63
9033 63
8493 56
9602 21
8423 352
7386 533
6895 213
5924 338
5297 15
2578 443
4427 443
4889 443
5061 443
5281 443
5355 443
5364 443
5401 443
5422 443
5463 443
8038 200
5221 456
8669 219
9715 24
2585 355
9194 74
9835 1
6168 285
9629 21
2592 443
4173 443
8922 9
7156 36
9766 74
7498 229
2598 557
2614 557
3257 557
3593 557
3766 557
3908 557
4009 557
4042 557
4120 557
4312 557
4771 557
6110 460
6941 89
9705 187
7523 367
2891 436
5315 567
5062 333
2970 291
3178 291
3181 291
3261 291
3266 291
3295 291
3827 291
4149 291
2604 520
4270 520
4686 520
4700 520
6714 523
5601 564
3335 38
4421 432
9799 26
3569 557
5387 70
7273 429
2617 568
2627 568
2890 568
3081 568
3159 568
3210 568
3278 568
3386 568
3431 568
3500 568
3640 568
3721 568
9257 21
9914 31
4067 437
8769 26
5057 548
2783 568
2628 149
2694 149
3759 149
4984 149
5032 149
5488 149
5508 149
5547 149
5558 149
5571 149
5608 460
2630 461
3422 461
3749 461
3809 461
3946 461
4243 461
4268 461
4361 461
4422 461
4469 461
4564 461
9665 171
2633 544
4150 544
4544 544
4573 544
4906 544
5134 548
5139 544
5185 544
5202 544
5475 544
5563 544
7831 147
4092 472
3397 468
5125 271
7007 244
6991 82
7347 115
5687 130
6012 266
8822 31
2646 553
4056 553
8839 184
9294 26
3706 177
9360 210
3608 172
7721 43
9400 286
5517 357
2659 226
4955 226
5006 226
5107 226
5772 226
5845 226
6054 226
6195 226
6307 226
2660 491
3517 491
4442 491
4690 491
4705 491
4903 491
5004 491
5073 491
5290 491
5471 491
2661 461
3132 461
8323 352
7249 465
8186 196
6384 509
2667 418
3027 418
3318 418
3467 418
3717 418
3801 418
3823 418
3963 418
4284 418
4393 418
4514 418
9394 63
5942 98
8862 26
8220 132
9140 381
9949 31
6392 52
7538 321
5127 354
5403 318
8605 120
7802 115
6185 74
7176 308
9191 86
2689 438
3089 438
3101 438
3368 438
3370 438
3527 438
3575 438
4036 438
4151 438
4234 438
5400 405
2690 362
3671 362
5229 362
5279 362
5317 362
5385 362
5635 362
5656 362
5686 362
5878 362
6777 383
9585 31
3680 149
7991 17
2695 566
3201 566
3228 566
3238 566
3503 566
3507 566
3577 566
3621 566
3662 566
4022 566
4082 566
5270 511
7811 154
2731 393
9944 26
8092 397
6278 523
6430 511
8140 216
8267 287
9272 5
6337 284
5684 510
2806 334
8217 219
9177 31
6436 213
3420 301
3938 301
6370 400
6598 518
5386 462
6035 499
5261 354
8877 86
8080 316
7976 381
7637 294
2732 405
4100 405
4586 405
4792 405
4854 405
5096 405
5240 405
5532 405
7593 344
2734 327
4431 327
4719 327
4888 327
5237 327
5734 327
5945 327
5946 327
9436 23
3063 357
4025 357
4837 357
5051 357
5358 357
5410 357
5604 357
5717 357
7796 32
8526 219
3402 543
3449 543
9790 147
5485 317
2742 420
3069 420
3921 420
9704 26
3001 565
8865 154
2745 215
3487 215
3488 215
3760 215
3791 215
4285 215
8117 196
8285 78
9792 166
9965 1
2751 170
8731 295
8082 115
5888 155
2757 70
3729 70
5543 70
5551 70
5585 70
5629 70
5728 70
6006 70
6103 70
6223 70
6235 70
9895 222
3158 492
6866 229
5784 284
9761 24
7508 321
7356 399
7892 286
4617 481
4349 324
7302 117
7257 244
9032 26
9616 175
8112 123
4618 371
9185 286
9945 175
3523 503
4190 503
5033 271
5012 180
2784 251
8848 5
6137 90
2935 442
5480 272
8751 46
9473 21
7762 311
3762 569
7707 21
4830 474
4795 412
8283 154
8883 86
9011 295
9110 222
5507 501
8608 175
2807 354
5226 354
6331 354
6421 354
6472 354
6507 354
6582 354
6743 354
6791 354
6988 354
9692 24
4800 266
4031 272
6047 400
7034 246
4803 472
5650 431
7539 513
7579 145
9998 187
5769 285
9144 175
4996 441
6032 91
7327 370
9663 78
8128 316
8595 89
8079 295
8764 184
8536 219
3798 374
2835 467
3106 467
3155 467
4003 467
4062 467
4344 467
4503 467
4530 467
4645 467
4841 467
5090 467
8723 210
4179 315
7101 115
7843 399
8756 38
8445 216
2841 390
6016 392
2843 363
3213 363
3412 363
3707 363
4127 363
4171 363
4222 363
4277 363
4456 363
4567 363
5866 236
8960 286
7079 389
7362 109
7752 415
4611 494
3877 535
4724 434
6207 161
9600 147
9118 118
7754 213
8844 216
4966 124
7222 351
9591 31
2922 347
3265 417
4124 417
8182 210
7131 295
4790 300
8385 154
9570 78
2893 324
4460 324
4647 324
4760 324
4922 324
5174 324
5214 324
5697 324
5757 324
8679 118
6894 429
5282 445
6957 437
7599 36
2882 514
3122 514
3346 514
3818 514
4155 514
4302 514
4524 514
4531 514
4561 514
4585 514
4607 514
7331 68
3018 128
2885 341
4666 341
8957 187
2886 412
4335 412
4466 412
4648 412
4849 462
4933 412
4938 412
4999 412
5108 412
5231 412
5477 412
6413 511
6565 437
9892 21
3891 300
4103 324
4986 324
5071 324
5159 324
3055 563
9651 21
7163 383
2901 389
6135 389
6147 389
6637 389
6661 389
6730 389
6926 389
6930 389
7047 389
7084 389
7232 441
7764 415
8878 54
7227 24
6470 367
3191 347
3328 347
5502 495
6473 288
9926 145
3661 318
6937 130
7643 206
5171 28
9250 31
4340 524
8430 63
9241 21
4565 462
4781 530
5788 91
6812 400
8931 92
7873 216
8509 381
9469 86
6731 184
7486 68
5790 117
8707 120
9753 26
7995 74
6837 380
9672 171
8519 19
2952 494
3032 494
3797 494
4132 494
4254 494
4257 494
4523 494
4840 494
4846 494
6170 184
8078 342
9057 222
9858 56
2956 242
4908 242
5239 242
5353 242
5388 242
5602 242
5862 242
5925 242
6257 242
6294 242
8907 307
4163 232
6297 285
2958 276
7576 243
7120 382
2962 151
2972 151
3484 151
4468 151
4604 151
4623 151
4653 151
4696 151
4725 151
5059 151
6708 523
3690 376
3958 376
4001 376
4130 376
4357 376
4432 376
4435 376
4439 376
4644 376
8191 78
2968 445
3002 445
4968 445
5356 445
5362 445
5382 445
5574 445
5688 445
5748 445
5793 445
9845 187
9971 147
6040 429
3139 291
9605 26
3697 151
7861 43
6502 351
7527 17
8515 216
3216 292
3501 292
3653 292
3674 292
3715 292
3726 292
3796 292
3945 292
4104 292
4105 292
6972 437
6227 124
2980 556
3623 556
4546 556
4737 556
5216 539
8095 311
5307 425
6007 425
6028 425
6083 425
6086 425
6345 425
6390 425
6456 425
6510 425
6742 425
2985 499
4676 499
4704 499
5483 499
5974 499
6239 499
6408 499
6438 499
6571 499
6794 499
8460 287
4843 349
9897 1
7596 206
9128 58
7592 213
3676 546
4247 343
3233 353
3879 353
3912 353
4005 353
4472 353
4520 353
4921 353
5008 353
5117 353
5482 353
8321 5
2997 429
4360 408
6903 429
6994 429
7148 429
7215 429
7344 429
7410 429
8241 307
7298 287
3959 535
6992 244
3989 565
6230 137
5042 445
5244 445
5565 445
7068 382
7769 157
9396 21
3009 288
5081 362
5631 288
6075 288
6474 288
6646 288
6789 288
6819 288
7026 288
7059 288
9481 56
5745 431
3011 71
5831 71
6471 71
6775 71
5962 460
7921 15
5210 495
5123 293
6550 157
3154 456
4662 128
4555 567
4912 497
3023 329
3169 329
3195 329
3462 329
3832 329
4052 329
4272 329
4380 329
4418 329
4582 329
4622 329
4723 443
7663 234
3359 418
3972 418
3028 382
7117 382
7278 382
7336 382
7475 382
7524 382
7536 382
7554 382
9552 78
3029 518
6158 518
6206 518
6301 518
6400 518
6447 518
6500 518
6759 518
6780 518
6839 518
6923 518
7070 518
9722 175
3287 494
3713 494
3957 494
8291 533
9657 187
7705 160
8380 9
9788 145
8834 154
3040 486
4309 486
5394 486
6051 486
6087 486
6141 486
6164 486
6363 486
6385 486
6437 486
6605 486
3041 383
4498 383
6271 383
6753 383
6785 437
6968 383
7263 383
4455 416
4962 416
5020 416
5100 416
5550 416
5685 416
5833 416
5841 416
5960 416
4429 195
5296 195
5369 195
5435 195
5627 195
5711 195
5724 195
5980 195
9990 222
3047 292
7870 9
7967 196
7367 89
3051 188
7528 188
7572 415
7628 188
7891 188
7894 188
7990 188
8026 188
3052 548
5699 548
6191 548
6423 548
6635 548
6902 548
6928 548
6932 548
6965 548
7030 548
9391 147
9471 145
5009 439
8466 26
9544 145
6058 224
6841 118
5147 261
8571 275
8819 31
4033 357
4745 357
5024 357
5539 357
8481 21
5751 518
9989 21
4867 466
7261 224
3068 412
4948 412
5492 236
9720 23
3371 552
6317 508
7029 94
8040 243
3074 432
4734 432
4917 432
4946 432
5273 432
5300 432
5314 432
5342 432
5809 432
9219 21
3651 359
7775 316
3078 535
3349 535
4433 535
4497 535
4533 535
4646 535
4660 535
4766 535
4836 535
4852 535
5001 535
9855 24
3082 318
4765 318
5129 318
5264 318
5332 318
5569 318
5754 318
5758 318
4937 502
7537 229
8099 219
3086 496
4028 472
4819 496
5365 496
5392 496
5896 496
5937 496
6061 496
6074 496
6091 496
6229 496
5292 486
5681 486
3088 165
3600 293
4245 165
4697 165
5430 165
5917 165
5979 165
6116 165
6268 165
6283 165
6313 165
3294 438
8866 187
3092 471
5074 98
8859 101
6875 161
7061 114
7737 19
8730 184
7952 32
5638 257
8184 219
8637 109
3103 125
4975 125
5371 125
6009 125
6048 125
6112 125
6210 125
6238 125
8116 370
5909 479
3319 467
3521 467
4098 467
8652 46
3985 315
3112 535
6466 382
9027 147
5075 317
3272 514
4083 120
3125 456
4156 456
4417 456
4486 456
4969 456
5103 456
5285 456
5287 456
5404 456
9525 175
5952 11
5447 567
7589 132
3882 325
9440 74
7867 197
3134 454
4271 454
5068 454
5145 454
5276 275
5678 454
5762 454
6041 454
6177 454
8528 147
3137 408
3192 408
3932 408
4054 408
4266 408
4384 408
4478 408
4591 408
4722 408
5063 408
9856 63
3138 120
8275 120
8382 120
8585 120
8586 120
8729 120
8790 120
8800 120
9147 31
3140 441
6076 441
6146 441
6655 441
6931 441
6934 441
6970 441
7003 441
7238 441
3142 412
4197 412
5916 90
4221 226
3147 569
3199 569
3464 569
3751 569
3776 569
3814 569
3875 569
3914 569
4201 569
4288 569
4463 569
4619 569
4708 569
6886 350
9662 63
5796 458
3152 124
4228 539
5383 124
6396 124
6439 124
6454 124
6469 124
6505 124
4300 456
9957 31
7978 286
3156 316
7563 316
7803 316
8253 316
8416 316
3639 492
6611 63
3160 566
3161 530
3927 530
4101 530
4474 530
4493 530
4721 530
4925 530
5036 530
5037 530
5167 530
8288 15
3163 215
3904 215
6121 285
9320 145
8588 61
3167 141
6629 141
3202 329
9795 24
3171 464
3532 464
4317 464
4751 464
4838 464
4873 464
4883 464
5111 464
5223 115
5242 464
5280 464
5313 464
5345 464
3172 266
4588 266
5561 266
5612 266
5764 266
5868 266
5871 266
6037 266
6306 266
9355 166
3173 128
6515 513
8614 82
3174 245
7233 166
8754 92
3177 151
4356 44
8419 307
7838 311
7983 26
3182 195
4787 195
8783 96
9950 222
3253 139
3263 139
3358 139
3733 139
3758 139
3838 139
4020 139
4086 139
4142 139
4464 139
9491 166
9859 166
8888 295
5554 497
6620 349
6847 397
9967 24
4348 495
4000 408
4213 408
8307 275
6203 460
3194 530
3964 530
9155 58
5691 233
4774 560
3197 382
7252 382
7276 382
8102 196
7144 510
8622 15
9539 74
5943 429
7996 46
9611 31
8009 157
9349 26
8753 381
6779 184
3311 363
7587 508
3323 353
3541 353
3811 353
9012 286
3880 262
4076 262
8755 26
3220 472
3326 472
3461 472
4032 472
4402 472
4511 472
4600 472
4668 472
4780 472
8048 132
6375 431
9344 118
4351 195
7229 140
7577 370
9512 222
3227 299
4246 299
5218 299
5407 299
5630 299
5653 299
5661 299
5898 299
6034 299
6071 299
6246 299
6758 13
5652 236
9796 222
3231 445
4012 445
6545 90
3716 462
7287 157
6562 219
9510 171
6165 71
9106 1
8158 533
9840 145
9521 21
8558 145
4973 474
3245 205
3915 205
4282 205
9533 63
8775 1
9913 63
9962 187
9976 24
3486 557
5228 434
9231 31
7081 34
5852 399
8709 78
5256 564
7173 349
3267 266
5124 271
5234 266
7218 229
9137 78
9742 1
5533 43
4866 356
3274 155
5576 155
5892 305
7313 154
8269 94
7736 187
5294 434
4283 499
3283 338
3698 338
5309 338
5434 338
5593 338
5610 338
5659 338
5768 338
5872 338
5889 338
7645 282
7574 32
5983 71
8453 200
8798 200
6757 122
5011 371
9988 145
8134 397
3299 261
4558 261
4871 261
4899 261
4939 261
5098 261
5497 261
5541 261
5770 261
8049 9
3302 537
6575 109
3303 159
3352 159
3364 159
3659 159
3825 59
3843 149
4044 159
4057 159
4079 159
4081 159
4490 159
4758 159
9013 61
4097 356
3305 394
6070 394
6133 394
6169 394
6213 394
6325 394
6352 394
6603 394
9854 222
6142 91
3656 363
6715 397
8037 157
9430 56
7106 130
4538 528
6259 392
8899 381
3322 324
4087 324
8621 117
3324 109
6719 109
7518 109
7644 109
7749 109
7765 109
8156 109
8420 109
8521 109
8557 109
8656 184
3982 472
4037 472
3327 285
5330 285
5741 285
5813 285
5825 285
5839 285
7494 19
7104 282
7055 140
8107 120
8059 21
9157 86
6341 183
9373 210
8014 38
8257 38
8710 38
8891 38
8896 38
8917 38
8989 38
4620 502
4992 502
6093 193
7221 275
8655 154
9165 200
9828 56
3344 486
4703 486
6123 344
3345 497
4203 497
4884 497
5113 497
9043 200
3347 305
4635 305
4687 305
4833 305
5230 305
5380 305
5466 305
5590 305
5643 305
3348 464
5644 460
9007 171
6366 441
6711 441
7058 441
3427 159
3748 159
9444 171
7614 1
7427 32
7972 308
5648 34
9832 175
9297 222
6090 290
7595 505
4874 319
8908 1
3476 336
3617 336
4488 336
9699 21
8708 275
8826 5
8325 9
8497 243
3382 96
6234 499
8424 96
8704 96
8749 96
8812 96
8841 96
8869 96
9353 24
7670 377
9221 89
3390 98
4371 98
4744 98
4842 98
5440 98
5579 98
5718 98
5829 98
5994 98
9005 286
3775 560
3815 560
3902 560
4126 560
4261 560
4624 560
4759 560
4855 560
4940 560
9769 118
8105 397
4051 302
4476 302
4521 302
9482 222
3396 317
4071 317
4410 317
4791 317
5102 317
5156 317
5169 317
5343 317
7650 169
3398 388
3861 388
4160 388
4847 388
4932 388
5083 388
5106 388
5310 388
5325 388
5326 388
6809 523
3401 28
4115 28
4293 28
4313 28
4338 28
4345 28
4451 28
4878 28
6329 509
8176 94
8083 17
9143 381
9377 145
9495 86
7783 123
3409 546
3848 546
3889 546
3916 546
3993 546
4265 546
4353 546
4392 546
4525 546
4716 546
4736 546
4905 564
3410 416
3655 416
6797 246
9425 101
8717 31
3416 271
3830 271
3858 271
4164 271
4517 271
4587 271
4706 271
4960 271
5056 271
6873 344
8629 31
7795 295
6351 244
9161 295
8415 370
9862 31
7429 465
8456 26
8641 54
7009 379
9204 31
7216 188
3438 437
5196 437
6636 437
6807 437
7037 437
7049 437
3439 567
3899 567
3987 567
4319 567
4608 567
4773 567
4812 567
4963 567
5005 567
5286 567
5564 567
8278 92
3446 327
4891 327
5040 327
6624 52
3447 508
5864 508
7113 508
7531 508
7731 508
7878 508
7989 508
7997 508
8029 508
5397 434
9887 21
8665 282
9580 187
7502 284
8044 308
9750 21
7854 101
7782 17
3852 343
4074 343
4096 343
4176 343
4193 343
4208 343
4626 343
4718 343
6212 257
3472 122
5647 122
5786 122
5810 122
6043 122
6160 122
6386 122
6669 122
6695 122
6768 122
8537 26
5619 233
3477 343
3478 376
6429 429
9162 197
3740 149
3481 271
3673 271
9594 101
8534 381
9463 78
6915 126
7388 56
9117 74
9921 222
9808 58
3489 479
5126 479
5465 479
5524 479
5727 479
5752 479
5756 479
5817 479
5873 479
5971 479
5999 288
5250 371
3493 34
6314 34
6834 34
6858 34
7214 34
7285 34
7437 34
7535 34
7719 34
3494 238
3851 238
4689 238
5046 238
5095 238
5233 238
5246 238
5271 238
5415 238
5837 238
6963 229
3496 196
8126 196
8188 196
8374 196
8404 196
8408 196
3739 405
6899 140
9620 171
7729 32
5119 90
9567 23
4047 469
5047 469
8290 175
3511 233
4821 233
4956 233
5339 233
5370 233
5642 233
5664 233
5899 233
5973 233
7565 399
4134 491
4475 491
4964 491
6705 509
8910 222
3520 41
4864 41
5207 41
5249 41
5458 41
5527 41
5556 41
5776 41
5819 41
8870 78
6255 257
9196 5
3526 528
3868 528
4008 528
4596 528
4655 528
4701 528
4802 528
4901 528
4997 528
5078 528
6395 533
8923 63
3530 528
3813 528
5170 98
9983 175
3679 464
4333 464
8024 94
9087 187
3770 561
3901 561
3971 561
6406 539
3538 50
4091 50
4894 50
7987 294
6632 19
3542 261
3936 261
5436 261
5566 261
8065 86
8403 342
9994 166
4089 205
7601 175
9597 24
6927 350
6130 383
6961 399
4013 463
4055 463
4682 463
4762 463
9341 24
9557 222
9519 147
3558 466
4174 466
4527 466
5600 466
5658 466
5947 466
6001 466
6073 466
6089 466
6205 466
6232 466
7373 43
8005 82
9059 78
9245 187
9633 175
5204 293
7155 311
8792 21
3571 408
9940 145
7065 246
6622 294
9061 46
7090 275
3581 502
4121 502
4746 502
8412 123
8219 92
6830 465
5039 377
9822 21
7809 349
4058 567
6559 383
3598 317
4707 317
6907 246
4153 293
4730 293
4974 293
5328 293
5367 293
5501 293
6698 63
6818 399
7626 311
8902 26
7317 15
9066 147
3626 193
3896 193
4325 193
4714 193
5584 193
5598 193
5853 193
6064 193
6290 193
6686 458
7170 219
9039 171
8373 145
4911 416
9947 222
3646 114
5811 114
6174 114
6281 114
6720 114
6838 114
6898 114
6912 114
7089 114
8803 200
3649 333
4822 333
4892 333
4923 333
4979 333
5238 333
5427 333
5510 333
5666 333
5668 333
5969 333
6019 333
6248 333
6280 161
5801 425
5944 425
6189 425
8468 21
4072 416
9312 21
9833 24
8480 120
5052 318
7613 15
7818 36
9026 92
5914 246
3669 513
6055 513
6664 513
6676 513
6787 513
6868 513
7230 513
7267 513
7319 513
7342 513
7509 513
7525 513
7530 349
3928 330
5248 362
5254 362
5416 362
6029 511
7969 367
5131 284
4537 544
3678 140
6063 140
6367 140
6538 140
6920 140
6978 140
7119 140
7198 140
9132 145
7698 26
3681 491
7312 505
4195 41
4850 41
9416 46
7413 213
3685 523
5803 523
6188 523
6442 523
6751 523
6773 523
9694 222
3693 371
3897 371
4818 371
5110 371
5346 371
5393 371
5446 371
6533 140
9376 74
3696 54
8351 54
8409 54
8827 54
8964 54
8993 54
3969 338
4515 338
5173 338
3701 564
4307 564
4519 564
4584 564
5183 564
5267 564
5299 564
5322 564
5429 564
5452 564
5587 564
8677 120
3702 509
6322 509
6334 509
6353 509
6417 509
6504 509
6519 509
6524 509
6597 509
6606 509
4907 177
4990 177
5120 177
5295 177
5663 177
5890 177
6293 177
8649 197
3709 68
6617 68
6703 68
6892 68
6953 68
6956 68
7346 68
7391 68
7474 68
5043 437
9092 21
3714 501
3787 501
3998 501
4542 501
4928 501
4942 501
4967 501
5015 501
5136 501
5486 501
4363 462
4499 462
4919 462
5066 462
5596 462
5603 462
5709 462
5808 462
6427 220
3718 11
5219 11
6004 11
6947 160
9728 187
9903 166
5272 282
5976 460
9022 26
8768 307
6583 196
7935 210
4882 70
5690 70
3732 257
4789 257
4991 257
5305 257
5931 257
6042 257
6136 257
6186 257
6247 257
7181 220
4278 402
3735 125
4334 125
8779 187
6885 220
9276 118
3756 405
4303 405
5094 405
8414 126
3741 462
4388 462
5805 288
8467 101
3744 439
4289 439
4797 495
4823 439
4865 439
4924 439
5518 439
5538 439
5589 439
5637 439
5645 439
5807 439
7840 294
3745 524
3840 524
3746 501
4811 501
6815 352
3747 485
3931 485
4436 485
4506 485
4601 485
4805 485
4985 485
5118 485
5122 485
5163 485
5241 485
5354 485
5420 485
5615 485
6323 354
7376 275
3757 362
7353 166
9048 56
8155 342
9381 21
6335 213
3933 561
4747 561
8273 222
8491 15
4326 560
7110 213
8360 82
9684 78
7929 56
3780 54
6467 367
7465 32
8350 54
8682 54
4295 536
4470 536
9530 175
7296 130
5528 1
5996 90
6097 350
9654 74
10000 63
4161 374
4342 374
4365 374
4552 374
4581 374
4603 374
4625 374
4743 374
5023 374
5161 374
5192 374
8987 5
9113 200
8086 120
9683 118
3910 296
4589 296
8239 123
3808 224
5217 224
5832 224
5958 224
6081 224
6328 224
6593 224
7063 224
7178 224
7200 224
7246 224
4510 236
4652 236
5374 236
5498 236
5698 236
5780 236
8052 115
9535 74
5245 290
5433 290
6151 290
7862 465
8837 210
3820 262
6138 90
6428 90
9135 5
3822 431
5850 431
6193 431
6302 431
6499 431
6619 431
6628 431
6778 431
6810 431
9154 86
9883 166
4308 59
4434 59
5053 59
5162 59
5609 59
5623 59
5828 59
7415 132
6088 377
3892 296
3961 296
8716 92
6023 288
6667 288
3834 394
5138 394
5672 394
6175 394
6844 513
3837 175
7694 160
8802 175
8814 175
9058 175
9686 175
9764 175
9615 56
7730 377
8198 275
3844 460
4692 460
5900 460
6148 460
6162 460
6171 460
6803 24
9550 101
6849 188
4566 238
5265 238
8425 197
8224 94
3855 3
4035 3
4386 3
4753 3
8327 184
8761 175
9301 286
9786 24
8676 370
4231 388
4870 388
8937 74
8223 19
3948 462
3884 567
3929 356
3886 485
7733 96
9837 26
3890 338
7103 458
5157 300
5378 300
5605 300
5617 300
5634 300
5948 300
5949 300
6017 300
6173 300
6296 300
5903 141
7660 32
5398 193
5582 193
5639 193
9829 101
4119 371
3898 293
5133 293
6945 349
3930 180
4039 180
4178 180
4290 180
4593 180
4727 180
4931 180
5151 180
9472 89
5744 299
8042 123
3906 356
4886 356
4983 356
5289 356
5335 356
5421 356
5509 356
5731 356
5794 356
8721 216
5683 259
8091 32
6985 351
3917 564
7158 78
3919 167
4387 167
4568 167
4637 167
4642 167
4698 167
4876 167
4887 167
4972 167
5030 167
5050 167
5302 167
3920 495
4810 495
5333 495
5689 495
5902 495
6092 548
6104 495
6128 495
6153 495
6245 495
6266 495
5243 257
6687 287
3986 434
4107 434
4665 434
4949 434
5099 434
5277 434
7966 415
4657 330
5457 356
4094 180
4298 180
9741 222
8120 147
7004 397
3939 482
4404 482
4492 482
5222 482
5337 482
5460 482
5523 482
5710 482
5920 482
5990 482
8580 23
5016 482
6382 379
6209 548
7454 200
4045 319
4664 319
9882 21
8235 132
5459 466
8279 46
3951 402
8958 286
9744 63
5761 11
3956 327
7787 54
9375 1
6002 294
8284 184
7824 171
9351 26
3966 91
5259 91
5676 91
6066 91
6183 91
6214 91
6488 91
6700 91
6813 91
8358 197
9424 222
3974 167
3977 293
9350 26
8743 295
8231 23
9329 175
6973 505
6361 284
6980 510
7893 154
4002 13
5922 13
5950 13
6220 13
6627 13
6670 13
6805 13
6842 13
6878 13
6202 52
8237 61
9198 78
7586 43
7583 120
8961 210
8043 21
4251 523
6560 137
7771 161
6909 130
6936 130
7137 130
7205 130
7337 130
7338 130
7431 130
7469 130
7720 130
4651 155
4255 357
8434 118
7658 377
6101 71
7804 533
8201 282
8569 171
7515 234
8514 282
9746 187
4741 469
5357 17
7064 220
4248 302
8691 342
8200 282
7829 342
7669 96
9274 101
7180 415
4060 70
4225 70
4061 155
7297 132
8944 24
9776 222
6618 437
6756 437
8664 31
8454 61
7632 294
8263 15
4078 342
5918 379
7623 342
8280 342
8315 342
8609 342
7512 243
4346 354
8207 120
8477 120
8666 120
9202 1
9860 78
7035 510
4088 437
5732 437
6219 123
6453 437
8000 87
8900 222
9813 21
5869 499
5875 499
5919 499
8248 295
9187 58
4106 41
7788 342
4109 511
5084 511
5402 511
5530 511
5655 511
5759 511
6253 511
6336 511
6549 511
6591 511
7655 294
9467 286
7235 21
4661 28
6740 377
9893 1
4122 94
7116 94
7473 94
7874 94
8062 94
8265 94
8654 76
9958 175
5114 439
9960 26
5546 379
6445 379
6555 379
6621 379
6801 379
6853 379
6966 379
7012 379
9050 197
4829 305
7482 397
8757 219
4135 238
8392 21
7241 184
9804 147
6916 316
4140 354
9099 286
4508 368
9636 63
6024 282
7786 115
4147 44
4299 44
4336 44
4374 44
4485 44
4656 44
4898 44
5091 44
6548 38
4462 544
4813 544
7519 17
8211 370
8264 370
4159 74
6888 350
8667 74
9277 74
9625 74
9849 74
9948 74
7801 21
8106 32
4168 13
5738 13
6261 13
7325 243
4170 44
7149 220
9258 76
7933 342
5184 466
5499 466
5649 466
6216 183
6951 126
8329 118
8617 9
6480 392
7780 352
4181 87
7826 87
8089 87
8100 87
8202 87
8222 87
8230 87
8272 87
8369 87
6798 389
4184 539
4480 539
5304 539
5366 539
5840 539
6122 539
6215 539
6265 539
6356 539
6405 539
6592 539
8952 56
5777 183
6119 539
7017 350
4194 486
9006 61
8426 54
4199 59
8262 21
5516 52
8436 282
9423 286
5495 523
4206 392
5938 392
5988 392
6155 392
6378 392
6498 392
6536 392
6825 392
7255 287
5176 236
5431 236
6952 344
9778 23
5726 368
8602 126
4210 388
8592 61
6181 244
7290 21
4215 257
9084 58
4217 290
4729 290
4218 474
4467 474
4502 474
4712 474
4815 474
5092 474
5284 474
5667 474
5746 474
5795 474
5930 474
4557 226
4998 226
5490 226
5545 226
5735 226
5792 169
4226 508
7161 508
7711 508
7951 508
9568 26
7345 533
5428 539
4229 114
5834 114
5984 114
6662 114
4233 233
7888 243
8979 381
8954 76
9182 76
8978 61
6651 351
6682 351
6738 351
7202 351
7259 351
7270 351
7292 351
7443 351
4612 165
5019 299
5802 299
6052 299
5456 91
4250 11
6129 523
4807 433
5372 433
5785 433
5849 433
9228 24
7993 216
8554 82
8863 197
9239 26
4900 454
5263 454
5846 351
4548 183
6567 429
9284 26
9183 200
5469 499
6943 284
8750 86
9635 56
4331 439
5334 439
7709 196
4292 43
7671 43
7672 399
7924 43
7982 43
8088 43
4294 392
5821 392
6144 392
8484 63
8805 216
8820 24
9317 23
8513 58
4305 432
4575 432
7605 160
4310 454
4540 454
6094 244
6509 244
6914 244
6962 244
6979 244
7050 244
8249 123
5467 350
6263 350
6750 350
6924 350
6938 350
6958 350
6976 350
7024 400
9041 58
7533 275
9417 145
5891 36
7675 123
7919 123
7958 123
8471 123
8504 123
5572 193
6732 222
9545 222
9372 24
4327 511
5331 511
6448 510
9520 118
4339 496
4733 496
4902 496
5978 496
7823 154
8365 23
9701 307
8139 282
8642 9
8035 210
6045 354
9603 56
5266 495
5680 495
4350 13
7609 78
4352 132
6586 510
7739 132
7798 132
7859 132
7896 132
7994 132
8145 132
8256 132
5268 90
8218 115
7585 21
4415 294
9511 23
4367 508
5928 508
6735 508
7853 508
7973 367
9180 31
9905 78
9490 86
4814 98
9224 307
4376 431
5085 431
5775 431
7223 344
4827 285
5376 285
9861 24
5992 400
6124 400
6163 400
6284 400
6657 400
6674 400
6736 400
4389 399
6734 399
6820 219
7301 399
7436 399
7442 399
7461 399
7506 399
7743 399
7871 399
7190 160
4444 400
9779 145
4395 124
5657 124
5781 124
5951 124
9814 166
7456 32
4569 482
4640 318
4407 379
4793 379
6241 379
6722 379
9002 187
6330 383
6468 383
6529 383
6444 36
4414 308
4577 379
6639 308
7497 308
7744 308
7883 308
8074 308
8119 308
8170 308
8259 308
6704 294
7092 294
7142 294
7380 294
7534 294
7980 294
7150 505
4419 177
5496 177
6531 352
9172 24
4424 392
8103 38
5905 415
8443 126
7401 169
9881 26
8956 26
7946 120
8087 109
4440 288
9100 175
9366 24
5148 400
6149 400
6889 123
4513 460
7000 219
7689 169
7207 169
9869 21
7849 169
8533 89
9275 210
4995 130
4728 474
8884 76
6727 352
6062 94
6989 229
8313 126
6607 397
8310 86
7471 38
4541 539
4483 87
7438 87
7501 87
8084 295
8094 87
8457 154
9977 63
4489 290
6816 344
7588 275
9280 175
8077 287
7228 132
7955 145
5109 333
5694 333
5941 383
9743 26
8720 96
8692 175
4715 474
8302 63
7526 465
5883 368
5940 368
9380 210
4516 299
8872 26
5500 523
7132 160
5190 466
4529 509
8560 171
4534 344
6554 344
6782 344
6821 344
6917 344
6935 344
7060 344
7091 344
7470 344
9831 118
6176 458
4536 266
5181 316
9850 26
6869 397
7472 58
7412 157
8634 307
5923 43
7212 32
6025 183
6068 183
6739 183
6854 183
6856 183
7069 183
7074 183
6348 166
6424 36
8684 21
9791 145
4553 213
6525 294
6653 213
6776 213
6925 213
6995 213
7111 213
7495 213
7558 213
7654 213
4872 183
6512 183
6613 183
5673 220
5936 518
4935 90
5027 90
5961 90
6010 90
6059 90
6441 90
4563 91
4583 91
9733 307
7662 505
7014 316
4988 124
5215 533
9623 118
6374 415
9315 24
6511 17
8939 210
8505 15
7053 220
7880 222
6340 510
4598 122
5911 122
5953 122
6105 122
6491 122
9891 23
4602 34
5137 34
6060 34
7239 34
8633 187
8794 184
4614 233
4859 233
8700 126
5031 481
5373 481
5451 481
5755 481
6744 109
7945 284
6893 246
8210 275
9904 147
4628 224
6295 224
6412 224
7130 184
8966 147
8882 307
4636 243
7807 243
7890 243
8019 243
8020 243
8076 243
8630 243
8645 243
8675 243
4638 193
8131 287
7727 415
8401 15
8686 26
8336 370
9496 101
9327 200
9719 21
8487 24
5341 234
5705 229
6282 397
5363 21
8604 58
5998 137
6056 137
6433 137
6478 137
6766 137
6767 137
6770 137
6833 137
9848 101
9492 63
4673 481
7748 54
9996 31
9465 118
5303 246
6800 246
6882 246
6997 246
7054 246
7127 246
4681 523
8778 370
9842 24
7567 9
8915 295
9670 222
9289 197
5461 479
9387 101
7619 61
4695 511
9421 307
8674 154
7683 17
8607 187
8277 46
7653 370
6863 216
5175 285
9333 86
4717 518
6134 518
7964 63
6642 157
7385 157
7505 157
7770 157
8097 157
8240 157
8276 157
6793 109
8825 147
9929 166
9777 118
4732 11
7556 54
5491 496
7251 510
4735 518
7904 17
9476 175
8965 61
4763 13
8057 342
7607 132
9314 197
7816 115
4749 415
7369 415
7553 415
7848 415
7985 415
7988 415
8130 415
4752 397
6078 397
7288 397
7364 397
7403 397
7564 397
7777 397
9767 21
8797 222
4755 433
9105 200
8161 284
4761 196
7915 196
7837 187
8809 286
6891 287
7392 216
8658 184
4772 109
7354 109
7751 109
7791 109
4776 123
7457 123
8619 63
9499 31
7794 117
5368 300
8067 533
4796 465
5696 465
6003 465
6254 465
6908 465
7043 465
7493 465
7668 465
8381 287
5288 495
4799 220
6517 220
6691 220
6877 220
7135 220
7143 220
7484 220
7487 220
9121 381
8367 286
9131 197
9207 197
7219 295
7422 196
7774 284
6652 246
9014 210
7943 61
9785 187
8546 154
7419 32
9054 101
5712 311
5318 114
7109 510
7455 82
7659 82
8318 82
8472 82
8479 82
5225 285
7350 370
8478 126
9677 63
9943 26
9264 86
8413 86
6814 140
7618 115
7511 377
6218 349
6476 349
7093 349
7365 349
7552 349
7636 349
7696 349
7742 349
6675 94
9577 56
4853 389
6358 389
6660 389
6725 389
6741 389
6762 389
8698 197
9780 145
6443 244
6678 244
6998 244
8843 117
4863 352
6157 352
7002 352
7630 352
7776 352
8004 352
8246 352
8281 352
8411 352
8991 295
8984 78
6857 160
9073 307
9941 26
9193 63
7962 210
8597 5
9130 101
8857 216
9395 21
4897 533
7430 188
7813 533
8250 533
8308 533
8333 533
8368 533
8433 533
8435 533
7268 206
7852 311
6880 15
8098 287
7902 311
5581 46
5132 242
5338 242
5389 242
5729 242
8010 166
4910 465
6414 465
6904 465
7363 465
8312 342
8760 46
7686 17
7728 17
8034 17
8138 17
7307 311
5632 446
6208 446
6252 446
6256 446
8638 381
9583 78
8858 295
9809 145
7903 169
4926 523
6277 465
7310 282
6344 548
4930 117
7722 117
7900 117
8303 117
8739 117
8785 117
8845 117
9543 63
8171 78
9233 56
5472 90
9426 26
8561 19
9053 31
7282 397
6689 243
7208 43
4943 458
5701 458
5854 458
6726 458
7192 458
7199 458
7244 458
7280 458
7316 458
7483 458
5258 479
8172 101
6371 367
9009 101
9016 101
9508 101
9527 101
9717 101
9937 101
9981 101
6391 34
4953 122
9324 24
8680 222
9630 78
9170 295
9262 171
9484 56
8535 23
5206 52
5396 52
5443 52
6298 52
6418 52
6475 52
8406 200
9153 24
8875 26
8905 166
8362 126
4993 429
7044 429
7398 21
9197 145
5682 130
6159 130
7217 130
8154 370
9047 166
8320 86
9729 101
5017 272
5504 272
5818 272
9018 175
5018 109
7634 109
7028 243
7695 206
5625 441
7793 31
5830 123
9076 187
7022 246
7785 154
9336 21
6774 377
7234 377
7295 377
7324 377
7477 377
7504 377
7716 377
5041 19
8163 19
8319 19
8348 19
8387 19
9243 31
6200 437
5045 284
6450 284
6649 284
7384 284
7975 284
8046 284
8122 284
7169 36
8007 175
9037 58
7860 123
8893 26
5432 548
5537 548
5399 78
7209 43
5069 259
5076 94
7254 94
7779 94
7821 94
5080 242
6799 282
9916 222
7641 282
6102 431
5086 200
7685 32
8547 61
9261 200
9281 200
7097 197
7340 206
9528 21
7286 87
5097 548
5101 117
6781 117
7947 286
9407 26
9212 21
9561 145
7846 58
8474 282
8085 32
8013 219
8921 23
7283 275
7440 284
9627 187
6964 157
5453 234
5549 34
5887 394
9292 286
5141 61
8516 61
8912 61
8951 61
6668 126
5588 400
7814 234
7602 533
6859 15
8053 169
9240 175
9641 58
8196 210
9500 56
9030 166
5178 425
8584 282
8143 61
7435 316
8282 316
8338 96
8850 370
8973 147
5592 458
5733 458
8788 1
9095 86
8821 26
9300 26
9331 26
5198 246
6383 246
8647 61
9834 175
5283 52
5933 52
8748 46
9896 26
5213 446
5437 446
7879 118
7908 533
5912 224
7052 287
7931 169
7322 311
7560 115
7932 115
8146 115
8366 115
5224 130
8786 147
8695 381
9656 145
6939 157
9563 175
8384 96
7562 32
9643 222
7575 9
8982 286
9907 222
7986 38
8447 38
8824 171
9621 31
5251 510
7122 510
7145 510
7162 510
7247 510
7291 510
9810 187
7889 216
8587 216
8683 216
8838 216
8942 216
8970 216
8299 154
9783 187
9925 31
9576 78
8782 184
9745 175
8583 126
8314 15
8550 282
8574 282
8646 282
7799 275
7905 275
8600 275
8701 275
8722 275
7629 287
9418 63
5580 52
9260 145
8793 147
9206 76
5291 141
5534 141
5739 380
6132 141
9827 222
8232 15
5311 246
6492 115
8823 171
5308 368
5312 272
9502 1
9781 21
7407 21
7875 206
8306 120
7604 381
7970 32
8552 9
5329 229
6643 229
6654 229
7095 229
7260 229
7329 229
7366 229
9480 21
9889 222
6792 87
9348 24
6572 234
7107 234
7183 234
7426 234
7652 234
7657 234
9109 200
9136 171
9214 86
5347 493
5426 493
5714 493
5350 96
8601 96
8648 96
8752 96
9063 58
8728 147
7715 17
6145 377
5360 513
6546 513
6828 513
9247 76
6419 213
7679 21
9415 21
9503 21
9529 21
9782 21
6222 220
9540 307
7351 82
9370 26
7126 147
5375 509
5521 509
5858 509
8001 219
9711 56
8694 171
7289 505
7963 15
6288 32
9267 101
9553 166
9964 78
8726 1
7008 344
7066 344
8581 200
5413 94
7661 54
7948 94
9584 31
7335 219
9747 58
7912 381
6030 429
6948 321
9559 147
5439 61
8572 61
9248 166
7898 169
7164 160
7323 160
7570 160
7620 160
5449 533
5450 210
6458 154
8926 210
9142 210
6362 234
6434 234
9933 31
9256 307
9282 86
8459 1
6990 175
5703 350
5964 350
6706 350
7746 9
7476 399
7485 197
6709 311
5479 117
5967 126
6573 117
6082 284
9363 46
5489 244
8047 287
8185 9
5493 465
5494 188
7349 188
7445 188
7925 188
7542 210
6717 352
5503 311
7314 166
7750 311
7877 311
9164 145
6388 196
6764 367
7240 9
8815 184
6811 132
8770 1
9218 1
9409 1
9573 1
5851 43
7960 43
6005 397
6539 397
6685 397
7308 397
6673 89
9259 5
7616 120
5557 367
6612 367
7157 367
7277 367
7578 367
7584 367
7815 367
7845 367
7917 367
8864 56
9268 118
5575 350
6326 350
7138 222
8632 21
7704 295
9102 46
9253 46
9326 46
9435 46
9460 46
5583 349
6625 349
9213 58
7432 294
8260 282
7740 38
6379 213
5599 188
9457 24
9805 145
7682 216
8054 38
7424 5
5611 137
5859 137
6569 137
6913 117
7062 316
8379 154
7005 132
5820 441
5654 288
8002 118
8144 92
6534 380
5836 351
9347 118
6911 68
9812 26
5651 114
7510 200
6806 19
8670 5
8599 295
5671 234
6350 234
5778 220
6368 220
5677 352
6485 351
7020 352
9824 166
8943 76
6848 510
6862 510
6315 130
6053 94
6085 399
8293 78
8157 86
8524 145
5815 229
5706 308
7321 294
7466 308
7687 308
7452 311
7543 311
7673 311
8897 210
5722 380
6237 213
6258 380
6520 380
6823 380
6850 380
6881 380
6967 380
6975 380
7175 380
7387 380
7271 219
9737 118
7550 101
7151 36
9332 187
5823 380
7011 380
7635 243
9255 222
5743 87
7394 87
7571 533
8113 31
9562 23
9886 23
9898 23
6274 220
9305 24
6650 284
9146 26
6852 187
5771 505
5800 505
5894 505
5970 505
6680 505
7038 505
7166 505
7311 505
7328 505
7449 505
7633 505
5773 294
7382 294
6609 284
8894 31
7450 370
7974 1
7561 169
7580 169
7590 169
8254 169
7134 54
7439 287
6452 68
6896 68
6996 68
6152 505
6557 505
8110 32
5806 415
6570 415
9626 58
8612 38
5985 229
6496 229
6712 229
5816 316
7778 316
5827 243
7681 243
8018 243
8494 243
6955 295
7857 74
7108 123
9029 200
9464 21
6631 351
9310 222
5842 505
8719 145
5929 351
6516 351
9693 21
5848 275
6802 275
7334 275
7546 275
7693 275
8347 275
9836 222
6999 43
7275 213
6671 399
5874 137
9086 101
5861 311
7725 311
7956 92
6788 377
8045 32
5870 321
7489 321
8945 5
6532 508
9866 166
8452 118
5879 287
8462 287
8488 287
5880 92
8653 92
8808 92
9074 92
9098 92
9103 92
6822 294
6694 161
7481 210
7096 36
7381 36
7479 36
7591 36
7688 36
9220 31
5893 284
7640 381
7872 161
9044 31
8568 184
7421 415
9863 63
8451 184
5921 21
9678 21
9710 21
9999 21
6829 43
9647 21
5934 222
9070 222
9739 222
6393 68
8118 307
8747 5
9134 197
9209 210
7806 126
8297 126
8461 126
8529 126
8727 126
6287 505
7165 58
9184 58
9414 26
5993 161
6971 161
7503 161
7532 161
7858 161
7899 161
6566 294
8662 101
6008 24
8129 5
9468 24
9676 24
6954 17
6014 46
9038 171
6900 161
7712 161
6784 169
8060 216
6031 367
6795 367
7541 367
6036 157
6397 157
6690 157
7566 157
6038 188
8341 166
8545 26
7225 169
7581 169
8031 169
9036 89
9607 56
6311 222
8773 184
9308 101
9524 307
6977 94
6197 513
7187 160
8985 76
6194 94
8238 82
6080 38
7869 38
9725 56
6084 287
6746 399
6270 377
6324 377
9040 76
7830 19
9107 1
8635 184
6109 382
6308 382
6887 382
6113 68
6918 352
6528 321
6497 377
7359 352
7154 92
8490 184
6172 43
7834 89
7128 74
9419 24
6178 234
8799 307
9478 74
6761 19
9386 286
9127 24
6196 349
7884 92
6201 9
6745 9
7480 287
8101 9
8108 9
8317 9
8458 9
8640 9
6204 87
7341 87
6225 206
6333 206
7184 206
7309 206
7326 206
7573 206
7678 206
7766 206
8270 210
6231 206
9762 31
6233 349
7339 9
9646 56
7971 126
6244 96
7490 82
9068 31
6262 160
6589 377
8950 145
6969 533
8377 222
7833 32
7922 32
7992 32
8169 32
9408 118
9930 222
9453 86
9089 187
7082 31
6327 101
8133 19
9556 101
7258 213
6339 78
7812 78
8540 61
9367 78
9873 78
9593 166
9526 307
8724 89
6364 286
8153 63
7478 31
7194 367
8298 200
8214 175
7460 415
8643 89
6380 123
7624 123
8407 147
7957 196
6993 132
7147 132
7615 157
9712 56
6403 161
8061 9
9181 147
6416 46
8500 46
9160 46
9818 31
7423 5
8556 89
6817 36
7087 36
7204 36
7621 381
7441 184
7865 154
8606 154
6465 316
6769 367
9839 145
6872 243
8324 197
8442 370
6489 87
6490 118
6600 311
9123 118
7767 38
6610 115
7118 115
7444 115
9403 147
8975 197
8672 92
9035 381
9229 145
8125 82
7083 321
8713 187
9939 175
7046 157
6551 381
8911 381
8932 381
8972 381
9081 381
9751 1
9188 31
6860 200
7211 61
7934 219
8160 219
8215 219
8334 219
8623 219
7400 216
9129 171
9546 171
7414 219
8295 154
8159 92
7647 196
7724 76
7500 342
7999 342
8011 342
8135 342
8174 342
7760 19
6594 109
8746 381
9566 307
9479 24
8073 175
9263 58
7237 115
9972 63
7953 24
8651 286
7453 19
6640 26
9475 26
6641 115
7842 200
7897 287
8030 23
8689 370
6658 9
9126 295
8611 126
8780 295
6672 86
8567 89
8890 89
9237 89
6677 171
8980 171
9451 171
9443 222
6683 370
9176 166
8069 243
7773 89
9226 31
8914 197
7910 184
7253 222
6733 219
9186 56
8927 175
9894 31
6836 184
7638 9
6754 210
8268 210
8482 210
9091 31
8673 78
8455 147
6763 210
8784 5
7397 184
6783 171
7547 533
9727 21
8345 15
9428 222
9042 26
8840 24
8829 5
7040 132
7094 132
8337 370
8359 370
8929 1
6831 31
8530 31
7517 118
8136 56
9190 187
7139 38
8271 15
8328 216
7080 206
8208 76
9732 222
6883 126
6901 308
9736 26
8178 120
8631 147
8855 26
7938 82
8594 197
7072 295
8541 89
6940 175
7343 89
8522 89
9619 56
8575 295
8885 295
9090 24
9826 21
7876 89
8523 175
7841 82
8685 197
8811 21
8873 21
7416 243
8111 120
8732 24
7085 21
9343 21
7099 216
8697 197
8745 5
9700 147
7133 101
8470 101
7390 54
8335 54
9008 145
9225 307
9713 307
7141 381
8903 381
7146 381
8203 92
8853 78
7159 196
9658 166
9723 58
7171 61
8195 23
7195 56
8180 342
8992 76
8357 24
8209 61
9273 222
8394 86
8422 96
7299 175
8542 175
8940 175
8400 26
9141 21
7348 58
9486 58
7941 63
7377 38
7753 96
9316 56
9318 5
7499 54
9052 56
7417 26
7420 175
8849 5
9179 5
9269 5
9290 5
9299 5
8787 5
7451 166
9159 31
8777 58
9954 31
8192 92
9599 24
7568 286
7844 154
8189 21
8444 74
7907 175
9115 187
8690 76
9060 76
8930 23
7697 23
8149 23
9097 23
7781 96
7768 23
9335 147
9551 31
8994 145
9236 145
8194 74
8744 74
9582 26
9003 118
8620 23
9666 307
8881 56
9931 147
8181 24
8771 74
8463 222
8405 197
9542 145
