0 0
1 1
2 2
3 3
4 4
5 5
6 6
7 4
8 7
9 8
10 0
11 9
12 9
13 3
14 10
15 11
16 12
17 9
18 13
19 3
20 6
21 14
22 9
23 3
24 2
25 9
26 2
27 2
28 9
29 15
30 3
31 16
32 2
33 17
34 3
35 6
36 18
37 3
38 6
39 2
40 15
41 19
42 20
43 21
44 6
45 5
46 21
47 3
48 22
49 3
50 14
51 23
52 24
53 25
54 26
55 9
56 27
57 28
58 6
59 29
60 30
61 9
62 31
63 6
64 9
65 32
66 33
67 21
68 8
69 6
70 34
71 6
72 35
73 6
74 6
75 36
76 2
77 6
78 37
79 3
80 6
81 21
82 30
83 17
84 38
85 39
86 9
87 6
88 40
89 2
90 2
91 9
92 41
93 42
94 9
95 6
96 3
97 17
98 17
99 5
100 43
101 34
102 44
103 6
104 3
105 45
106 2
107 2
108 33
109 9
110 9
111 33
112 2
113 6
114 2
115 9
116 6
117 43
118 6
119 46
120 27
121 2
122 47
123 8
124 2
125 6
126 9
127 21
128 6
129 3
130 47
131 3
132 9
133 9
134 48
135 49
136 3
137 9
138 9
139 50
140 36
141 6
142 51
143 2
144 21
145 24
146 28
147 44
148 52
149 9
150 35
151 6
152 2
153 21
154 9
155 6
156 15
157 6
158 6
159 9
160 17
161 31
162 2
163 21
164 27
165 53
166 3
167 38
168 3
169 5
170 3
171 3
172 6
173 54
174 5
175 3
176 55
177 2
178 9
179 3
180 27
181 52
182 1
183 39
184 6
185 56
186 47
187 28
188 57
189 6
190 58
191 51
192 2
193 9
194 50
195 9
196 3
197 2
198 5
199 21
200 6
201 13
202 5
203 3
204 4
205 9
206 9
207 28
208 21
209 5
210 48
211 59
212 21
213 14
214 60
215 3
216 0
217 5
218 29
219 3
220 2
221 2
222 33
223 0
224 9
225 2
226 16
227 8
228 2
229 35
230 41
231 5
232 6
233 3
234 33
235 44
236 60
237 31
238 4
239 6
240 38
241 3
242 2
243 31
244 26
245 16
246 3
247 24
248 24
249 6
250 51
251 32
252 6
253 26
254 3
255 58
256 34
257 61
258 19
259 5
260 2
261 2
262 49
263 3
264 3
265 27
266 3
267 2
268 1
269 39
270 2
271 2
272 6
273 26
274 28
275 62
276 5
277 9
278 24
279 2
280 9
281 3
282 61
283 14
284 41
285 2
286 27
287 6
288 63
289 2
290 21
291 21
292 27
293 25
294 3
295 64
296 47
297 24
298 6
299 21
300 9
301 6
302 25
303 26
304 27
305 38
306 9
307 13
308 5
309 3
310 6
311 9
312 50
313 9
314 21
315 21
316 21
317 65
318 57
319 6
320 5
321 6
322 48
323 19
324 9
325 40
326 26
327 66
328 2
329 47
330 5
331 5
332 9
333 33
334 2
335 21
336 3
337 27
338 3
339 31
340 54
341 6
342 3
343 2
344 27
345 47
346 41
347 37
348 35
349 67
350 9
351 31
352 10
353 6
354 6
355 68
356 6
357 6
358 25
359 21
360 33
361 3
362 3
363 2
364 2
365 6
366 27
367 2
368 27
369 9
370 69
371 12
372 9
373 9
374 12
375 9
376 70
377 3
378 33
379 3
380 14
381 5
382 21
383 3
384 6
385 5
386 57
387 0
388 3
389 71
390 3
391 3
392 72
393 6
394 3
395 3
396 9
397 2
398 3
399 73
400 45
401 40
402 48
403 6
404 9
405 2
406 9
407 9
408 16
409 9
410 3
411 21
412 7
413 73
414 3
415 20
416 2
417 3
418 42
419 5
420 2
421 2
422 6
423 2
424 5
425 5
426 71
427 21
428 6
429 33
430 6
431 9
432 68
433 47
434 28
435 74
436 3
437 14
438 2
439 21
440 6
441 56
442 17
443 21
444 9
445 6
446 5
447 3
448 22
449 27
450 3
451 6
452 9
453 9
454 1
455 3
456 3
457 52
458 27
459 69
460 9
461 2
462 53
463 70
464 3
465 75
466 4
467 6
468 2
469 23
470 3
471 6
472 12
473 9
474 76
475 6
476 6
477 2
478 2
479 27
480 26
481 20
482 9
483 5
484 27
485 6
486 21
487 21
488 2
489 6
490 6
491 9
492 2
493 2
494 6
495 27
496 6
497 3
498 56
499 12
500 29
501 21
502 6
503 5
504 2
505 9
506 48
507 2
508 3
509 3
510 2
511 61
512 40
513 27
514 9
515 27
516 59
517 63
518 9
519 72
520 5
521 49
522 20
523 9
524 3
525 2
526 2
527 27
528 17
529 63
530 3
531 2
532 47
533 6
534 27
535 2
536 21
537 24
538 77
539 78
540 3
541 3
542 18
543 5
544 78
545 21
546 21
547 9
548 21
549 27
550 57
551 44
552 64
553 3
554 17
555 64
556 27
557 33
558 21
559 40
560 44
561 9
562 20
563 62
564 2
565 20
566 45
567 3
568 44
569 2
570 42
571 31
572 9
573 2
574 6
575 3
576 79
577 9
578 9
579 3
580 9
581 55
582 3
583 2
584 13
585 26
586 34
587 9
588 5
589 2
590 27
591 3
592 6
593 63
594 20
595 54
596 9
597 23
598 9
599 3
600 3
601 2
602 57
603 33
604 5
605 3
606 5
607 47
608 61
609 61
610 9
611 5
612 5
613 9
614 33
615 55
616 71
617 47
618 3
619 32
620 2
621 44
622 2
623 3
624 2
625 6
626 2
627 45
628 9
629 3
630 3
631 2
632 3
633 8
634 9
635 2
636 2
637 9
638 2
639 6
640 21
641 28
642 2
643 6
644 5
645 9
646 6
647 64
648 51
649 28
650 21
651 0
652 21
653 1
654 18
655 44
656 65
657 6
658 6
659 2
660 2
661 37
662 6
663 9
664 47
665 5
666 5
667 6
668 2
669 5
670 40
671 3
672 6
673 53
674 0
675 21
676 53
677 6
678 3
679 80
680 3
681 33
682 3
683 38
684 2
685 6
686 16
687 2
688 6
689 2
690 6
691 3
692 3
693 2
694 62
695 33
696 57
697 27
698 6
699 52
700 27
701 42
702 13
703 71
704 6
705 27
706 21
707 5
708 2
709 10
710 6
711 2
712 65
713 21
714 6
715 3
716 2
717 27
718 72
719 27
720 66
721 10
722 3
723 27
724 2
725 3
726 3
727 32
728 6
729 21
730 6
731 32
732 21
733 34
734 25
735 81
736 9
737 6
738 2
739 27
740 2
741 5
742 17
743 2
744 12
745 9
746 6
747 9
748 53
749 6
750 20
751 2
752 5
753 27
754 46
755 9
756 5
757 26
758 2
759 21
760 20
761 3
762 5
763 23
764 9
765 2
766 40
767 46
768 17
769 9
770 3
771 27
772 21
773 2
774 9
775 48
776 27
777 66
778 54
779 25
780 9
781 6
782 3
783 21
784 7
785 3
786 82
787 17
788 6
789 5
790 2
791 5
792 10
793 2
794 3
795 6
796 2
797 80
798 2
799 27
800 34
801 6
802 3
803 27
804 9
805 83
806 9
807 53
808 53
809 33
810 3
811 63
812 3
813 33
814 28
815 9
816 1
817 23
818 34
819 21
820 17
821 9
822 26
823 13
824 9
825 71
826 2
827 6
828 6
829 44
830 21
831 2
832 42
833 6
834 2
835 55
836 53
837 2
838 33
839 13
840 6
841 9
842 56
843 55
844 77
845 19
846 49
847 5
848 33
849 2
850 9
851 82
852 5
853 9
854 38
855 46
856 6
857 2
858 28
859 27
860 27
861 6
862 20
863 25
864 2
865 3
866 2
867 6
868 6
869 4
870 9
871 5
872 6
873 9
874 6
875 3
876 2
877 18
878 27
879 6
880 9
881 63
882 18
883 21
884 9
885 3
886 69
887 0
888 21
889 3
890 72
891 14
892 33
893 5
894 51
895 1
896 5
897 27
898 9
899 25
900 3
901 3
902 6
903 19
904 6
905 9
906 20
907 3
908 3
909 0
910 80
911 27
912 40
913 2
914 9
915 3
916 6
917 6
918 2
919 3
920 6
921 21
922 2
923 21
924 3
925 2
926 5
927 6
928 3
929 6
930 79
931 66
932 33
933 5
934 6
935 33
936 5
937 3
938 9
939 4
940 2
941 5
942 61
943 47
944 6
945 6
946 6
947 9
948 9
949 54
950 27
951 74
952 9
953 3
954 6
955 9
956 76
957 6
958 3
959 2
960 9
961 24
962 6
963 44
964 3
965 3
966 49
967 22
968 13
969 3
970 21
971 46
972 35
973 3
974 3
975 5
976 34
977 66
978 74
979 34
980 3
981 3
982 21
983 2
984 46
985 30
986 3
987 6
988 6
989 2
990 26
991 2
992 27
993 77
994 6
995 5
996 38
997 27
998 3
999 47
1000 5
1001 5
1002 2
1003 3
1004 37
1005 2
1006 67
1007 2
1008 28
1009 3
1010 9
1011 2
1012 6
1013 9
1014 3
1015 2
1016 6
1017 27
1018 31
1019 3
1020 38
1021 21
1022 1
1023 65
1024 37
1025 9
1026 6
1027 9
1028 9
1029 11
1030 84
1031 14
1032 13
1033 51
1034 53
1035 59
1036 40
1037 2
1038 21
1039 6
1040 77
1041 9
1042 32
1043 6
1044 9
1045 27
1046 21
1047 27
1048 28
1049 5
1050 34
1051 6
1052 5
1053 6
1054 6
1055 3
1056 27
1057 3
1058 35
1059 77
1060 1
1061 3
1062 29
1063 2
1064 23
1065 21
1066 27
1067 3
1068 2
1069 84
1070 71
1071 31
1072 5
1073 2
1074 9
1075 1
1076 5
1077 2
1078 6
1079 6
1080 26
1081 8
1082 9
1083 27
1084 3
1085 1
1086 24
1087 6
1088 26
1089 2
1090 2
1091 2
1092 76
1093 9
1094 3
1095 42
1096 9
1097 84
1098 3
1099 2
1100 5
1101 6
1102 57
1103 2
1104 5
1105 9
1106 2
1107 6
1108 14
1109 27
1110 21
1111 42
1112 61
1113 6
1114 3
1115 53
1116 18
1117 27
1118 64
1119 2
1120 9
1121 28
1122 47
1123 6
1124 2
1125 5
1126 26
1127 33
1128 3
1129 33
1130 1
1131 9
1132 24
1133 2
1134 72
1135 3
1136 9
1137 29
1138 76
1139 9
1140 9
1141 9
1142 5
1143 5
1144 33
1145 6
1146 3
1147 13
1148 6
1149 9
1150 2
1151 58
1152 6
1153 21
1154 38
1155 6
1156 20
1157 3
1158 6
1159 17
1160 5
1161 6
1162 83
1163 16
1164 6
1165 9
1166 7
1167 53
1168 9
1169 71
1170 5
1171 3
1172 71
1173 9
1174 21
1175 0
1176 17
1177 65
1178 21
1179 27
1180 27
1181 5
1182 9
1183 9
1184 78
1185 5
1186 44
1187 48
1188 38
1189 47
1190 33
1191 6
1192 28
1193 23
1194 5
1195 21
1196 2
1197 6
1198 6
1199 3
1200 17
1201 65
1202 20
1203 44
1204 76
1205 33
1206 11
1207 21
1208 70
1209 71
1210 33
1211 12
1212 40
1213 63
1214 33
1215 6
1216 66
1217 10
1218 1
1219 13
1220 0
1221 37
1222 44
1223 21
1224 23
1225 63
1226 3
1227 6
1228 30
1229 16
1230 26
1231 3
1232 9
1233 14
1234 9
1235 40
1236 9
1237 6
1238 3
1239 18
1240 25
1241 27
1242 26
1243 17
1244 49
1245 2
1246 45
1247 21
1248 2
1249 25
1250 6
1251 31
1252 3
1253 3
1254 67
1255 26
1256 27
1257 34
1258 6
1259 3
1260 25
1261 78
1262 5
1263 5
1264 41
1265 23
1266 44
1267 31
1268 3
1269 21
1270 0
1271 3
1272 40
1273 55
1274 66
1275 9
1276 55
1277 2
1278 63
1279 35
1280 2
1281 11
1282 6
1283 63
1284 5
1285 9
1286 27
1287 6
1288 39
1289 2
1290 53
1291 35
1292 2
1293 33
1294 40
1295 6
1296 36
1297 24
1298 6
1299 45
1300 23
1301 51
1302 6
1303 0
1304 9
1305 27
1306 21
1307 3
1308 24
1309 11
1310 21
1311 13
1312 9
1313 63
1314 5
1315 2
1316 9
1317 6
1318 36
1319 6
1320 6
1321 17
1322 9
1323 27
1324 4
1325 2
1326 31
1327 3
1328 21
1329 7
1330 5
1331 37
1332 77
1333 23
1334 5
1335 5
1336 0
1337 3
1338 5
1339 54
1340 59
1341 66
1342 27
1343 6
1344 9
1345 84
1346 1
1347 6
1348 21
1349 5
1350 5
1351 27
1352 3
1353 2
1354 5
1355 2
1356 60
1357 4
1358 21
1359 27
1360 27
1361 5
1362 26
1363 2
1364 2
1365 5
1366 6
1367 2
1368 9
1369 27
1370 33
1371 2
1372 17
1373 3
1374 5
1375 5
1376 6
1377 73
1378 3
1379 2
1380 58
1381 3
1382 7
1383 3
1384 3
1385 2
1386 28
1387 6
1388 83
1389 6
1390 2
1391 60
1392 44
1393 9
1394 9
1395 6
1396 3
1397 2
1398 3
1399 5
1400 85
1401 9
1402 27
1403 3
1404 86
1405 2
1406 6
1407 27
1408 31
1409 6
1410 42
1411 6
1412 31
1413 2
1414 71
1415 6
1416 3
1417 21
1418 21
1419 3
1420 54
1421 69
1422 3
1423 5
1424 21
1425 75
1426 26
1427 27
1428 27
1429 9
1430 41
1431 2
1432 6
1433 2
1434 6
1435 76
1436 21
1437 22
1438 6
1439 9
1440 57
1441 9
1442 4
1443 6
1444 6
1445 56
1446 59
1447 6
1448 3
1449 73
1450 14
1451 6
1452 2
1453 2
1454 5
1455 6
1456 5
1457 4
1458 6
1459 2
1460 71
1461 59
1462 61
1463 17
1464 27
1465 3
1466 17
1467 5
1468 54
1469 5
1470 67
1471 27
1472 32
1473 9
1474 8
1475 2
1476 6
1477 53
1478 46
1479 47
1480 13
1481 23
1482 2
1483 5
1484 37
1485 9
1486 21
1487 2
1488 3
1489 22
1490 47
1491 6
1492 87
1493 5
1494 6
1495 5
1496 9
1497 25
1498 9
1499 65
1500 2
1501 49
1502 47
1503 6
1504 6
1505 6
1506 27
1507 37
1508 23
1509 25
1510 9
1511 12
1512 60
1513 3
1514 21
1515 36
1516 1
1517 2
1518 9
1519 63
1520 3
1521 6
1522 2
1523 9
1524 9
1525 6
1526 6
1527 27
1528 21
1529 31
1530 9
1531 33
1532 2
1533 3
1534 6
1535 3
1536 2
1537 6
1538 62
1539 63
1540 14
1541 2
1542 25
1543 9
1544 71
1545 5
1546 33
1547 3
1548 5
1549 13
1550 6
1551 27
1552 2
1553 9
1554 2
1555 3
1556 2
1557 1
1558 77
1559 9
1560 3
1561 3
1562 3
1563 9
1564 3
1565 20
1566 9
1567 6
1568 47
1569 6
1570 14
1571 5
1572 51
1573 3
1574 27
1575 3
1576 6
1577 3
1578 58
1579 2
1580 27
1581 3
1582 3
1583 27
1584 76
1585 2
1586 21
1587 71
1588 52
1589 2
1590 5
1591 42
1592 23
1593 9
1594 20
1595 29
1596 2
1597 3
1598 9
1599 27
1600 45
1601 6
1602 32
1603 3
1604 6
1605 5
1606 88
1607 37
1608 27
1609 9
1610 54
1611 27
1612 3
1613 5
1614 27
1615 1
1616 6
1617 30
1618 2
1619 2
1620 6
1621 21
1622 6
1623 5
1624 3
1625 4
1626 3
1627 9
1628 46
1629 5
1630 6
1631 47
1632 46
1633 5
1634 41
1635 8
1636 6
1637 9
1638 74
1639 29
1640 3
1641 9
1642 3
1643 73
1644 20
1645 35
1646 2
1647 6
1648 20
1649 3
1650 10
1651 3
1652 2
1653 8
1654 2
1655 9
1656 27
1657 2
1658 28
1659 9
1660 44
1661 2
1662 6
1663 26
1664 5
1665 9
1666 76
1667 2
1668 5
1669 71
1670 27
1671 9
1672 6
1673 66
1674 2
1675 9
1676 53
1677 21
1678 2
1679 21
1680 48
1681 2
1682 9
1683 3
1684 9
1685 25
1686 2
1687 58
1688 71
1689 2
1690 2
1691 6
1692 53
1693 70
1694 31
1695 1
1696 3
1697 9
1698 27
1699 27
1700 15
1701 26
1702 32
1703 2
1704 45
1705 9
1706 3
1707 2
1708 41
1709 6
1710 2
1711 48
1712 52
1713 15
1714 2
1715 9
1716 58
1717 6
1718 3
1719 5
1720 2
1721 3
1722 2
1723 2
1724 6
1725 63
1726 6
1727 9
1728 25
1729 27
1730 3
1731 63
1732 20
1733 2
1734 6
1735 77
1736 71
1737 6
1738 2
1739 21
1740 0
1741 9
1742 47
1743 6
1744 44
1745 27
1746 2
1747 3
1748 6
1749 9
1750 82
1751 9
1752 2
1753 6
1754 26
1755 64
1756 2
1757 2
1758 89
1759 11
1760 3
1761 2
1762 2
1763 3
1764 3
1765 3
1766 42
1767 2
1768 33
1769 27
1770 3
1771 17
1772 38
1773 16
1774 2
1775 6
1776 5
1777 3
1778 27
1779 27
1780 3
1781 53
1782 25
1783 14
1784 13
1785 6
1786 62
1787 9
1788 27
1789 3
1790 9
1791 25
1792 31
1793 2
1794 6
1795 6
1796 66
1797 9
1798 3
1799 6
1800 5
1801 27
1802 2
1803 5
1804 2
1805 3
1806 28
1807 9
1808 3
1809 69
1810 67
1811 55
1812 37
1813 6
1814 5
1815 3
1816 3
1817 20
1818 9
1819 10
1820 3
1821 40
1822 9
1823 5
1824 2
1825 3
1826 82
1827 20
1828 5
1829 3
1830 21
1831 3
1832 33
1833 9
1834 5
1835 71
1836 5
1837 27
1838 3
1839 6
1840 9
1841 6
1842 38
1843 27
1844 21
1845 2
1846 3
1847 3
1848 5
1849 6
1850 48
1851 42
1852 3
1853 2
1854 3
1855 2
1856 5
1857 74
1858 9
1859 33
1860 6
1861 5
1862 6
1863 23
1864 6
1865 3
1866 40
1867 21
1868 57
1869 33
1870 20
1871 37
1872 2
1873 9
1874 3
1875 70
1876 9
1877 24
1878 9
1879 66
1880 24
1881 58
1882 21
1883 6
1884 80
1885 13
1886 71
1887 2
1888 2
1889 6
1890 5
1891 1
1892 3
1893 27
1894 71
1895 77
1896 27
1897 14
1898 9
1899 6
1900 6
1901 6
1902 27
1903 3
1904 2
1905 64
1906 37
1907 37
1908 21
1909 9
1910 5
1911 71
1912 59
1913 6
1914 6
1915 6
1916 37
1917 2
1918 57
1919 21
1920 6
1921 33
1922 6
1923 26
1924 27
1925 21
1926 66
1927 21
1928 3
1929 5
1930 3
1931 3
1932 31
1933 14
1934 19
1935 31
1936 3
1937 5
1938 2
1939 10
1940 26
1941 2
1942 25
1943 27
1944 71
1945 10
1946 0
1947 3
1948 66
1949 5
1950 6
1951 2
1952 27
1953 2
1954 1
1955 4
1956 5
1957 6
1958 31
1959 27
1960 90
1961 54
1962 2
1963 6
1964 21
1965 13
1966 9
1967 9
1968 75
1969 27
1970 17
1971 6
1972 36
1973 59
1974 0
1975 3
1976 28
1977 22
1978 21
1979 79
1980 76
1981 46
1982 73
1983 77
1984 27
1985 6
1986 3
1987 9
1988 14
1989 28
1990 28
1991 3
1992 9
1993 21
1994 2
1995 6
1996 2
1997 2
1998 3
1999 27
2000 22
2001 9
2002 21
2003 71
2004 1
2005 8
2006 27
2007 9
2008 0
2009 34
2010 16
2011 3
2012 63
2013 38
2014 27
2015 49
2016 5
2017 0
2018 46
2019 57
2020 47
2021 28
2022 5
2023 35
2024 67
2025 6
2026 3
2027 6
2028 27
2029 2
2030 9
2031 37
2032 5
2033 38
2034 72
2035 53
2036 5
2037 9
2038 6
2039 2
2040 21
2041 47
2042 58
2043 5
2044 21
2045 9
2046 9
2047 3
2048 6
2049 87
2050 3
2051 3
2052 5
2053 6
2054 17
2055 43
2056 6
2057 21
2058 20
2059 6
2060 0
2061 21
2062 47
2063 13
2064 88
2065 21
2066 38
2067 79
2068 5
2069 22
2070 2
2071 3
2072 8
2073 30
2074 57
2075 3
2076 4
2077 17
2078 36
2079 6
2080 58
2081 29
2082 21
2083 76
2084 27
2085 9
2086 9
2087 2
2088 6
2089 6
2090 2
2091 2
2092 27
2093 91
2094 3
2095 28
2096 6
2097 25
2098 39
2099 3
2100 47
2101 49
2102 83
2103 53
2104 2
2105 3
2106 3
2107 17
2108 60
2109 51
2110 2
2111 22
2112 54
2113 27
2114 6
2115 26
2116 9
2117 2
2118 9
2119 6
2120 5
2121 14
2122 68
2123 9
2124 80
2125 27
2126 3
2127 30
2128 47
2129 45
2130 51
2131 9
2132 6
2133 3
2134 90
2135 26
2136 39
2137 6
2138 26
2139 65
2140 6
2141 3
2142 0
2143 76
2144 36
2145 9
2146 6
2147 3
2148 2
2149 44
2150 25
2151 2
2152 0
2153 1
2154 5
2155 3
2156 9
2157 31
2158 2
2159 27
2160 33
2161 6
2162 38
2163 3
2164 17
2165 2
2166 28
2167 14
2168 33
2169 9
2170 4
2171 5
2172 3
2173 3
2174 21
2175 2
2176 5
2177 6
2178 27
2179 5
2180 23
2181 0
2182 6
2183 21
2184 2
2185 43
2186 3
2187 3
2188 5
2189 71
2190 73
2191 74
2192 9
2193 80
2194 6
2195 0
2196 3
2197 3
2198 9
2199 5
2200 2
2201 12
2202 3
2203 9
2204 6
2205 72
2206 6
2207 79
2208 20
2209 17
2210 22
2211 2
2212 26
2213 6
2214 4
2215 6
2216 5
2217 71
2218 9
2219 27
2220 1
2221 21
2222 5
2223 6
2224 21
2225 21
2226 11
2227 20
2228 6
2229 77
2230 27
2231 26
2232 28
2233 6
2234 6
2235 5
2236 15
2237 5
2238 2
2239 21
2240 3
2241 5
2242 27
2243 9
2244 6
2245 21
2246 90
2247 5
2248 2
2249 56
2250 1
2251 89
2252 9
2253 2
2254 20
2255 5
2256 52
2257 9
2258 14
2259 2
2260 2
2261 9
2262 21
2263 75
2264 23
2265 9
2266 2
2267 2
2268 47
2269 14
2270 45
2271 2
2272 26
2273 11
2274 27
2275 9
2276 21
2277 27
2278 5
2279 2
2280 49
2281 2
2282 14
2283 3
2284 40
2285 2
2286 66
2287 53
2288 2
2289 85
2290 46
2291 27
2292 21
2293 3
2294 70
2295 52
2296 3
2297 27
2298 2
2299 9
2300 6
2301 5
2302 74
2303 6
2304 9
2305 78
2306 6
2307 47
2308 1
2309 10
2310 6
2311 21
2312 28
2313 21
2314 5
2315 6
2316 5
2317 20
2318 20
2319 5
2320 5
2321 6
2322 50
2323 37
2324 42
2325 62
2326 5
2327 39
2328 6
2329 6
2330 53
2331 84
2332 6
2333 37
2334 27
2335 3
2336 5
2337 38
2338 33
2339 2
2340 27
2341 9
2342 13
2343 9
2344 3
2345 6
2346 9
2347 5
2348 9
2349 28
2350 20
2351 71
2352 32
2353 68
2354 2
2355 71
2356 40
2357 6
2358 9
2359 2
2360 66
2361 9
2362 33
2363 5
2364 6
2365 6
2366 5
2367 63
2368 71
2369 9
2370 6
2371 3
2372 9
2373 87
2374 9
2375 17
2376 28
2377 83
2378 2
2379 2
2380 33
2381 27
2382 3
2383 20
2384 3
2385 24
2386 33
2387 6
2388 42
2389 78
2390 15
2391 5
2392 6
2393 5
2394 5
2395 5
2396 17
2397 46
2398 20
2399 85
2400 9
2401 21
2402 29
2403 70
2404 9
2405 47
2406 21
2407 6
2408 17
2409 38
2410 6
2411 27
2412 66
2413 72
2414 10
2415 6
2416 22
2417 2
2418 9
2419 5
2420 18
2421 84
2422 21
2423 5
2424 21
2425 0
2426 6
2427 9
2428 3
2429 5
2430 3
2431 68
2432 46
2433 2
2434 20
2435 3
2436 27
2437 71
2438 9
2439 6
2440 3
2441 9
2442 6
2443 21
2444 58
2445 84
2446 20
2447 3
2448 9
2449 15
2450 9
2451 6
2452 6
2453 9
2454 53
2455 2
2456 21
2457 3
2458 9
2459 21
2460 2
2461 6
2462 65
2463 53
2464 5
2465 3
2466 18
2467 33
2468 49
2469 6
2470 34
2471 28
2472 25
2473 21
2474 87
2475 5
2476 47
2477 9
2478 79
2479 9
2480 9
2481 25
2482 73
2483 9
2484 3
2485 10
2486 22
2487 28
2488 28
2489 2
2490 6
2491 53
2492 34
2493 27
2494 5
2495 6
2496 3
2497 27
2498 9
2499 9
2500 6
2501 2
2502 5
2503 28
2504 53
2505 2
2506 26
2507 9
2508 2
2509 6
2510 6
2511 9
2512 76
2513 25
2514 3
2515 9
2516 26
2517 23
2518 21
2519 3
2520 6
2521 77
2522 40
2523 21
2524 2
2525 5
2526 9
2527 3
2528 3
2529 9
2530 3
2531 3
2532 69
2533 9
2534 65
2535 63
2536 3
2537 3
2538 44
2539 2
2540 9
2541 3
2542 16
2543 5
2544 27
2545 9
2546 6
2547 9
2548 26
2549 2
2550 3
2551 15
2552 33
2553 27
2554 21
2555 16
2556 9
2557 33
2558 63
2559 6
2560 1
2561 33
2562 27
2563 89
2564 3
2565 3
2566 12
2567 5
2568 9
2569 3
2570 7
2571 25
2572 35
2573 20
2574 5
2575 48
2576 65
2577 2
2578 6
2579 58
2580 3
2581 6
2582 9
2583 47
2584 6
2585 6
2586 9
2587 3
2588 53
2589 3
2590 5
2591 9
2592 9
2593 33
2594 3
2595 4
2596 33
2597 10
2598 6
2599 5
2600 53
2601 27
2602 9
2603 2
2604 10
2605 1
2606 6
2607 27
2608 48
2609 47
2610 58
2611 53
2612 5
2613 26
2614 72
2615 11
2616 5
2617 9
2618 2
2619 9
2620 47
2621 3
2622 21
2623 21
2624 6
2625 6
2626 26
2627 38
2628 9
2629 3
2630 75
2631 6
2632 2
2633 16
2634 23
2635 5
2636 6
2637 6
2638 61
2639 18
2640 21
2641 85
2642 85
2643 48
2644 6
2645 27
2646 9
2647 21
2648 0
2649 9
2650 2
2651 9
2652 3
2653 21
2654 5
2655 21
2656 9
2657 31
2658 3
2659 19
2660 6
2661 44
2662 27
2663 40
2664 3
2665 9
2666 28
2667 6
2668 6
2669 5
2670 2
2671 74
2672 17
2673 1
2674 12
2675 5
2676 3
2677 3
2678 6
2679 5
2680 21
2681 1
2682 5
2683 71
2684 3
2685 9
2686 9
2687 28
2688 5
2689 5
2690 2
2691 2
2692 21
2693 9
2694 90
2695 9
2696 6
2697 9
2698 28
2699 2
2700 2
2701 3
2702 42
2703 5
2704 21
2705 3
2706 9
2707 27
2708 30
2709 6
2710 9
2711 9
2712 6
2713 6
2714 6
2715 2
2716 21
2717 5
2718 33
2719 44
2720 17
2721 6
2722 5
2723 33
2724 3
2725 27
2726 38
2727 2
2728 3
2729 2
2730 5
2731 27
2732 6
2733 6
2734 42
2735 9
2736 6
2737 10
2738 6
2739 27
2740 21
2741 3
2742 9
2743 6
2744 29
2745 25
2746 20
2747 9
2748 48
2749 3
2750 12
2751 3
2752 21
2753 79
2754 9
2755 3
2756 9
2757 2
2758 26
2759 6
2760 3
2761 0
2762 8
2763 76
2764 56
2765 71
2766 16
2767 31
2768 2
2769 3
2770 18
2771 65
2772 53
2773 30
2774 6
2775 5
2776 0
2777 6
2778 33
2779 6
2780 8
2781 3
2782 9
2783 18
2784 2
2785 20
2786 24
2787 39
2788 34
2789 3
2790 21
2791 6
2792 9
2793 20
2794 47
2795 6
2796 3
2797 25
2798 14
2799 5
2800 3
2801 9
2802 25
2803 42
2804 9
2805 9
2806 6
2807 2
2808 2
2809 6
2810 6
2811 17
2812 17
2813 5
2814 6
2815 6
2816 9
2817 6
2818 80
2819 6
2820 50
2821 2
2822 47
2823 5
2824 72
2825 6
2826 20
2827 2
2828 51
2829 3
2830 6
2831 21
2832 27
2833 3
2834 34
2835 3
2836 1
2837 26
2838 8
2839 3
2840 5
2841 2
2842 25
2843 57
2844 51
2845 2
2846 17
2847 2
2848 6
2849 42
2850 5
2851 6
2852 80
2853 34
2854 5
2855 5
2856 2
2857 21
2858 37
2859 74
2860 83
2861 71
2862 34
2863 6
2864 71
2865 5
2866 18
2867 9
2868 9
2869 9
2870 9
2871 28
2872 2
2873 6
2874 3
2875 3
2876 20
2877 29
2878 6
2879 67
2880 9
2881 17
2882 9
2883 8
2884 37
2885 2
2886 9
2887 76
2888 9
2889 31
2890 3
2891 28
2892 67
2893 31
2894 5
2895 2
2896 12
2897 58
2898 71
2899 30
2900 80
2901 5
2902 17
2903 26
2904 2
2905 5
2906 3
2907 25
2908 6
2909 23
2910 2
2911 2
2912 3
2913 3
2914 21
2915 24
2916 2
2917 46
2918 83
2919 3
2920 6
2921 20
2922 9
2923 9
2924 9
2925 71
2926 17
2927 2
2928 22
2929 3
2930 77
2931 5
2932 3
2933 9
2934 2
2935 20
2936 3
2937 21
2938 6
2939 9
2940 3
2941 6
2942 3
2943 3
2944 33
2945 58
2946 6
2947 5
2948 3
2949 2
2950 20
2951 6
2952 37
2953 51
2954 71
2955 11
2956 80
2957 5
2958 27
2959 26
2960 6
2961 53
2962 3
2963 3
2964 81
2965 9
2966 2
2967 16
2968 55
2969 18
2970 18
2971 63
2972 9
2973 3
2974 33
2975 21
2976 31
2977 6
2978 5
2979 32
2980 3
2981 9
2982 6
2983 5
2984 21
2985 2
2986 45
2987 3
2988 6
2989 13
2990 3
2991 9
2992 83
2993 2
2994 23
2995 71
2996 6
2997 27
2998 3
2999 3
3000 2
3001 21
3002 21
3003 0
3004 3
3005 20
3006 15
3007 65
3008 6
3009 21
3010 9
3011 6
3012 34
3013 3
3014 13
3015 3
3016 2
3017 5
3018 49
3019 21
3020 33
3021 76
3022 21
3023 6
3024 9
3025 9
3026 6
3027 3
3028 3
3029 27
3030 33
3031 9
3032 0
3033 1
3034 66
3035 21
3036 30
3037 76
3038 3
3039 27
3040 6
3041 2
3042 2
3043 21
3044 6
3045 6
3046 2
3047 6
3048 9
3049 80
3050 47
3051 43
3052 89
3053 2
3054 45
3055 2
3056 33
3057 27
3058 53
3059 27
3060 62
3061 5
3062 59
3063 24
3064 14
3065 6
3066 2
3067 65
3068 21
3069 9
3070 13
3071 27
3072 6
3073 21
3074 26
3075 21
3076 71
3077 33
3078 27
3079 2
3080 35
3081 6
3082 2
3083 9
3084 6
3085 2
3086 27
3087 3
3088 13
3089 2
3090 2
3091 44
3092 6
3093 2
3094 67
3095 4
3096 70
3097 70
3098 27
3099 6
3100 89
3101 2
3102 33
3103 23
3104 5
3105 14
3106 66
3107 6
3108 2
3109 5
3110 48
3111 6
3112 1
3113 2
3114 27
3115 9
3116 6
3117 2
3118 27
3119 26
3120 9
3121 2
3122 3
3123 21
3124 53
3125 3
3126 3
3127 77
3128 27
3129 33
3130 17
3131 6
3132 39
3133 10
3134 45
3135 0
3136 8
3137 17
3138 6
3139 2
3140 76
3141 3
3142 27
3143 63
3144 2
3145 21
3146 9
3147 9
3148 35
3149 28
3150 3
3151 40
3152 26
3153 38
3154 6
3155 9
3156 5
3157 29
3158 6
3159 49
3160 2
3161 37
3162 6
3163 5
3164 44
3165 4
3166 3
3167 6
3168 9
3169 6
3170 5
3171 27
3172 20
3173 3
3174 6
3175 78
3176 58
3177 6
3178 9
3179 75
3180 9
3181 69
3182 9
3183 2
3184 20
3185 3
3186 33
3187 74
3188 6
3189 67
3190 13
3191 4
3192 80
3193 6
3194 9
3195 26
3196 3
3197 75
3198 2
3199 3
3200 3
3201 71
3202 38
3203 31
3204 80
3205 40
3206 58
3207 66
3208 53
3209 38
3210 2
3211 37
3212 54
3213 40
3214 70
3215 65
3216 25
3217 3
3218 5
3219 9
3220 3
3221 40
3222 3
3223 6
3224 17
3225 18
3226 5
3227 6
3228 9
3229 27
3230 71
3231 38
3232 6
3233 6
3234 70
3235 5
3236 33
3237 6
3238 9
3239 2
3240 2
3241 27
3242 27
3243 5
3244 21
3245 6
3246 17
3247 3
3248 3
3249 6
3250 13
3251 3
3252 9
3253 11
3254 2
3255 5
3256 2
3257 2
3258 27
3259 33
3260 70
3261 6
3262 3
3263 76
3264 17
3265 5
3266 6
3267 3
3268 2
3269 6
3270 5
3271 15
3272 58
3273 3
3274 3
3275 3
3276 6
3277 35
3278 36
3279 3
3280 9
3281 6
3282 21
3283 27
3284 3
3285 65
3286 61
3287 5
3288 54
3289 31
3290 63
3291 6
3292 3
3293 6
3294 9
3295 60
3296 9
3297 5
3298 3
3299 2
3300 5
3301 5
3302 6
3303 6
3304 27
3305 21
3306 83
3307 18
3308 38
3309 3
3310 60
3311 5
3312 79
3313 17
3314 37
3315 6
3316 6
3317 26
3318 1
3319 35
3320 31
3321 21
3322 3
3323 2
3324 49
3325 18
3326 20
3327 2
3328 22
3329 67
3330 77
3331 78
3332 2
3333 13
3334 5
3335 65
3336 3
3337 60
3338 16
3339 71
3340 35
3341 10
3342 14
3343 21
3344 6
3345 59
3346 6
3347 63
3348 5
3349 2
3350 2
3351 3
3352 9
3353 9
3354 17
3355 3
3356 6
3357 84
3358 6
3359 13
3360 27
3361 9
3362 63
3363 1
3364 9
3365 5
3366 2
3367 6
3368 9
3369 76
3370 9
3371 3
3372 9
3373 2
3374 17
3375 4
3376 2
3377 33
3378 2
3379 14
3380 6
3381 67
3382 21
3383 8
3384 21
3385 2
3386 6
3387 5
3388 33
3389 3
3390 27
3391 3
3392 40
3393 6
3394 9
3395 36
3396 6
3397 6
3398 3
3399 2
3400 5
3401 33
3402 9
3403 5
3404 9
3405 6
3406 6
3407 3
3408 13
3409 27
3410 0
3411 6
3412 6
3413 9
3414 2
3415 17
3416 2
3417 21
3418 35
3419 9
3420 38
3421 2
3422 69
3423 76
3424 21
3425 27
3426 2
3427 54
3428 25
3429 2
3430 40
3431 3
3432 27
3433 2
3434 0
3435 2
3436 77
3437 3
3438 6
3439 21
3440 37
3441 2
3442 9
3443 53
3444 21
3445 79
3446 3
3447 3
3448 2
3449 71
3450 5
3451 27
3452 27
3453 21
3454 5
3455 9
3456 3
3457 46
3458 72
3459 6
3460 20
3461 2
3462 33
3463 8
3464 6
3465 53
3466 5
3467 3
3468 2
3469 6
3470 42
3471 3
3472 3
3473 18
3474 6
3475 42
3476 6
3477 76
3478 2
3479 71
3480 9
3481 6
3482 34
3483 3
3484 6
3485 5
3486 9
3487 9
3488 14
3489 2
3490 35
3491 37
3492 9
3493 55
3494 21
3495 3
3496 20
3497 27
3498 6
3499 9
3500 27
3501 21
3502 2
3503 21
3504 3
3505 6
3506 2
3507 77
3508 9
3509 3
3510 9
3511 2
3512 3
3513 70
3514 6
3515 37
3516 8
3517 3
3518 37
3519 46
3520 34
3521 38
3522 6
3523 2
3524 3
3525 9
3526 2
3527 5
3528 35
3529 38
3530 31
3531 6
3532 26
3533 33
3534 6
3535 3
3536 2
3537 9
3538 2
3539 6
3540 33
3541 6
3542 21
3543 46
3544 2
3545 3
3546 6
3547 8
3548 6
3549 7
3550 27
3551 46
3552 6
3553 9
3554 33
3555 6
3556 5
3557 6
3558 5
3559 9
3560 5
3561 2
3562 32
3563 3
3564 6
3565 5
3566 9
3567 9
3568 27
3569 21
3570 53
3571 28
3572 3
3573 33
3574 66
3575 37
3576 27
3577 6
3578 8
3579 2
3580 2
3581 71
3582 3
3583 2
3584 27
3585 6
3586 6
3587 36
3588 77
3589 9
3590 2
3591 9
3592 27
3593 34
3594 3
3595 21
3596 2
3597 76
3598 3
3599 44
3600 72
3601 2
3602 9
3603 2
3604 5
3605 3
3606 77
3607 44
3608 60
3609 6
3610 27
3611 9
3612 13
3613 9
3614 3
3615 8
3616 51
3617 2
3618 27
3619 31
3620 3
3621 23
3622 3
3623 9
3624 6
3625 3
3626 60
3627 27
3628 2
3629 3
3630 2
3631 27
3632 9
3633 82
3634 9
3635 3
3636 9
3637 21
3638 27
3639 32
3640 2
3641 21
3642 2
3643 3
3644 2
3645 33
3646 27
3647 2
3648 26
3649 2
3650 27
3651 9
3652 21
3653 9
3654 77
3655 3
3656 71
3657 3
3658 6
3659 9
3660 3
3661 3
3662 21
3663 33
3664 9
3665 57
3666 6
3667 26
3668 28
3669 20
3670 26
3671 21
3672 6
3673 5
3674 3
3675 53
3676 9
3677 9
3678 71
3679 5
3680 6
3681 9
3682 27
3683 2
3684 3
3685 5
3686 33
3687 71
3688 71
3689 33
3690 63
3691 58
3692 42
3693 9
3694 9
3695 6
3696 6
3697 16
3698 21
3699 33
3700 6
3701 58
3702 27
3703 5
3704 5
3705 27
3706 2
3707 6
3708 80
3709 77
3710 27
3711 3
3712 62
3713 3
3714 9
3715 6
3716 27
3717 53
3718 26
3719 6
3720 20
3721 27
3722 3
3723 33
3724 38
3725 2
3726 2
3727 26
3728 9
3729 6
3730 34
3731 21
3732 2
3733 2
3734 64
3735 27
3736 2
3737 21
3738 3
3739 3
3740 6
3741 2
3742 2
3743 42
3744 58
3745 3
3746 2
3747 3
3748 90
3749 3
3750 6
3751 3
3752 58
3753 11
3754 2
3755 23
3756 6
3757 66
3758 6
3759 5
3760 3
3761 9
3762 3
3763 25
3764 27
3765 0
3766 36
3767 6
3768 9
3769 3
3770 2
3771 9
3772 72
3773 29
3774 13
3775 2
3776 9
3777 5
3778 6
3779 3
3780 9
3781 6
3782 21
3783 53
3784 3
3785 27
3786 42
3787 3
3788 71
3789 2
3790 27
3791 18
3792 2
3793 16
3794 62
3795 3
3796 5
3797 12
3798 20
3799 13
3800 44
3801 2
3802 2
3803 3
3804 32
3805 6
3806 21
3807 21
3808 27
3809 5
3810 44
3811 27
3812 2
3813 6
3814 31
3815 21
3816 5
3817 76
3818 9
3819 2
3820 23
3821 6
3822 17
3823 2
3824 91
3825 3
3826 25
3827 20
3828 11
3829 40
3830 2
3831 9
3832 5
3833 6
3834 21
3835 27
3836 47
3837 21
3838 6
3839 9
3840 2
3841 37
3842 26
3843 3
3844 2
3845 17
3846 23
3847 5
3848 6
3849 3
3850 6
3851 3
3852 3
3853 27
3854 28
3855 21
3856 5
3857 17
3858 6
3859 6
3860 79
3861 3
3862 5
3863 53
3864 51
3865 6
3866 2
3867 62
3868 26
3869 6
3870 9
3871 2
3872 89
3873 23
3874 9
3875 51
3876 2
3877 6
3878 80
3879 65
3880 78
3881 5
3882 6
3883 21
3884 3
3885 0
3886 77
3887 29
3888 51
3889 5
3890 21
3891 53
3892 5
3893 5
3894 27
3895 6
3896 46
3897 79
3898 2
3899 3
3900 6
3901 22
3902 33
3903 39
3904 61
3905 5
3906 6
3907 21
3908 71
3909 3
3910 47
3911 37
3912 42
3913 3
3914 6
3915 27
3916 14
3917 25
3918 1
3919 2
3920 14
3921 21
3922 5
3923 2
3924 28
3925 5
3926 9
3927 60
3928 2
3929 6
3930 6
3931 6
3932 33
3933 5
3934 65
3935 3
3936 3
3937 24
3938 6
3939 3
3940 5
3941 49
3942 6
3943 6
3944 2
3945 77
3946 13
3947 2
3948 80
3949 33
3950 18
3951 6
3952 34
3953 74
3954 3
3955 3
3956 22
3957 3
3958 27
3959 2
3960 2
3961 53
3962 44
3963 2
3964 25
3965 55
3966 9
3967 8
3968 17
3969 47
3970 80
3971 6
3972 21
3973 2
3974 77
3975 6
3976 80
3977 27
3978 5
3979 3
3980 2
3981 22
3982 26
3983 71
3984 21
3985 81
3986 2
3987 71
3988 26
3989 9
3990 3
3991 21
3992 9
3993 6
3994 6
3995 9
3996 2
3997 2
3998 21
3999 6
4000 6
4001 1
4002 27
4003 5
4004 6
4005 6
4006 6
4007 26
4008 3
4009 15
4010 3
4011 9
4012 6
4013 3
4014 6
4015 57
4016 12
4017 3
4018 6
4019 2
4020 76
4021 25
4022 6
4023 3
4024 56
4025 33
4026 27
4027 3
4028 27
4029 6
4030 72
4031 3
4032 78
4033 4
4034 2
4035 2
4036 71
4037 27
4038 21
4039 3
4040 33
4041 9
4042 71
4043 57
4044 3
4045 11
4046 84
4047 9
4048 6
4049 63
4050 33
4051 42
4052 60
4053 2
4054 35
4055 2
4056 2
4057 9
4058 2
4059 33
4060 13
4061 22
4062 44
4063 28
4064 14
4065 27
4066 3
4067 55
4068 1
4069 21
4070 21
4071 27
4072 5
4073 42
4074 2
4075 44
4076 53
4077 34
4078 6
4079 40
4080 6
4081 6
4082 21
4083 21
4084 6
4085 22
4086 6
4087 2
4088 24
4089 9
4090 20
4091 53
4092 78
4093 77
4094 33
4095 53
4096 9
4097 9
4098 73
4099 16
4100 6
4101 17
4102 54
4103 0
4104 23
4105 20
4106 9
4107 6
4108 50
4109 3
4110 3
4111 27
4112 33
4113 9
4114 5
4115 9
4116 13
4117 6
4118 6
4119 17
4120 77
4121 26
4122 15
4123 41
4124 2
4125 5
4126 3
4127 70
4128 9
4129 33
4130 21
4131 65
4132 53
4133 3
4134 6
4135 21
4136 27
4137 31
4138 9
4139 9
4140 17
4141 10
4142 2
4143 27
4144 3
4145 6
4146 63
4147 6
4148 2
4149 0
4150 5
4151 80
4152 9
4153 3
4154 6
4155 46
4156 9
4157 3
4158 17
4159 5
4160 9
4161 85
4162 52
4163 3
4164 9
4165 45
4166 26
4167 61
4168 0
4169 2
4170 17
4171 27
4172 84
4173 9
4174 21
4175 9
4176 9
4177 21
4178 65
4179 63
4180 6
4181 2
4182 2
4183 13
4184 9
4185 13
4186 74
4187 3
4188 70
4189 2
4190 63
4191 2
4192 9
4193 3
4194 53
4195 15
4196 71
4197 5
4198 9
4199 9
4200 3
4201 6
4202 61
4203 2
4204 44
4205 42
4206 80
4207 2
4208 2
4209 7
4210 6
4211 26
4212 55
4213 3
4214 3
4215 9
4216 9
4217 5
4218 28
4219 40
4220 2
4221 6
4222 5
4223 53
4224 27
4225 3
4226 6
4227 6
4228 9
4229 6
4230 2
4231 38
4232 2
4233 6
4234 6
4235 3
4236 10
4237 8
4238 5
4239 23
4240 40
4241 72
4242 2
4243 54
4244 3
4245 59
4246 5
4247 2
4248 2
4249 33
4250 6
4251 27
4252 80
4253 38
4254 65
4255 6
4256 3
4257 9
4258 51
4259 47
4260 26
4261 13
4262 3
4263 2
4264 21
4265 18
4266 48
4267 70
4268 5
4269 2
4270 9
4271 33
4272 43
4273 2
4274 21
4275 9
4276 80
4277 3
4278 5
4279 1
4280 6
4281 31
4282 38
4283 69
4284 27
4285 27
4286 21
4287 34
4288 6
4289 53
4290 3
4291 44
4292 9
4293 3
4294 83
4295 3
4296 27
4297 71
4298 42
4299 9
4300 71
4301 2
4302 81
4303 1
4304 78
4305 6
4306 2
4307 3
4308 6
4309 64
4310 3
4311 52
4312 5
4313 53
4314 2
4315 5
4316 21
4317 2
4318 6
4319 9
4320 3
4321 2
4322 44
4323 71
4324 21
4325 51
4326 71
4327 31
4328 31
4329 25
4330 80
4331 21
4332 27
4333 17
4334 50
4335 74
4336 42
4337 24
4338 8
4339 3
4340 3
4341 2
4342 71
4343 3
4344 42
4345 13
4346 27
4347 58
4348 2
4349 9
4350 3
4351 5
4352 6
4353 52
4354 20
4355 3
4356 91
4357 48
4358 2
4359 6
4360 2
4361 3
4362 54
4363 6
4364 6
4365 40
4366 21
4367 11
4368 21
4369 9
4370 55
4371 52
4372 2
4373 51
4374 2
4375 5
4376 21
4377 74
4378 47
4379 2
4380 90
4381 18
4382 14
4383 80
4384 27
4385 26
4386 5
4387 5
4388 37
4389 30
4390 5
4391 6
4392 53
4393 21
4394 5
4395 25
4396 64
4397 1
4398 3
4399 52
4400 5
4401 3
4402 77
4403 28
4404 6
4405 21
4406 3
4407 9
4408 3
4409 81
4410 21
4411 3
4412 21
4413 6
4414 63
4415 5
4416 2
4417 27
4418 76
4419 2
4420 9
4421 27
4422 6
4423 27
4424 58
4425 17
4426 18
4427 24
4428 5
4429 71
4430 5
4431 2
4432 6
4433 3
4434 3
4435 66
4436 48
4437 21
4438 17
4439 6
4440 71
4441 1
4442 13
4443 5
4444 31
4445 6
4446 59
4447 3
4448 27
4449 3
4450 28
4451 40
4452 69
4453 2
4454 65
4455 7
4456 6
4457 21
4458 39
4459 9
4460 9
4461 5
4462 2
4463 13
4464 27
4465 21
4466 67
4467 2
4468 5
4469 92
4470 14
4471 59
4472 9
4473 68
4474 6
4475 2
4476 66
4477 49
4478 26
4479 21
4480 8
4481 9
4482 34
4483 9
4484 8
4485 2
4486 33
4487 12
4488 84
4489 9
4490 33
4491 6
4492 49
4493 6
4494 39
4495 13
4496 2
4497 6
4498 9
4499 77
4500 3
4501 20
4502 2
4503 26
4504 9
4505 9
4506 27
4507 17
4508 5
4509 2
4510 9
4511 3
4512 5
4513 9
4514 3
4515 5
4516 16
4517 5
4518 23
4519 11
4520 5
4521 5
4522 3
4523 82
4524 30
4525 21
4526 9
4527 6
4528 23
4529 21
4530 3
4531 1
4532 5
4533 2
4534 12
4535 31
4536 21
4537 5
4538 17
4539 2
4540 65
4541 31
4542 2
4543 2
4544 27
4545 47
4546 26
4547 21
4548 1
4549 21
4550 13
4551 6
4552 13
4553 27
4554 3
4555 3
4556 27
4557 2
4558 67
4559 26
4560 2
4561 9
4562 21
4563 5
4564 2
4565 88
4566 29
4567 26
4568 65
4569 48
4570 2
4571 90
4572 9
4573 6
4574 1
4575 2
4576 6
4577 22
4578 73
4579 27
4580 21
4581 80
4582 6
4583 3
4584 21
4585 21
4586 21
4587 63
4588 3
4589 31
4590 57
4591 42
4592 6
4593 55
4594 3
4595 47
4596 78
4597 23
4598 6
4599 71
4600 27
4601 21
4602 5
4603 26
4604 55
4605 13
4606 5
4607 20
4608 2
4609 34
4610 0
4611 3
4612 71
4613 33
4614 9
4615 6
4616 2
4617 9
4618 6
4619 27
4620 25
4621 65
4622 27
4623 28
4624 14
4625 12
4626 57
4627 3
4628 6
4629 6
4630 20
4631 9
4632 21
4633 40
4634 3
4635 21
4636 33
4637 7
4638 44
4639 61
4640 2
4641 9
4642 9
4643 9
4644 6
4645 6
4646 3
4647 31
4648 2
4649 38
4650 3
4651 2
4652 25
4653 6
4654 40
4655 3
4656 13
4657 9
4658 18
4659 63
4660 2
4661 2
4662 32
4663 3
4664 66
4665 6
4666 73
4667 2
4668 3
4669 9
4670 9
4671 3
4672 3
4673 6
4674 2
4675 60
4676 2
4677 21
4678 9
4679 20
4680 8
4681 6
4682 6
4683 32
4684 2
4685 18
4686 3
4687 80
4688 6
4689 3
4690 20
4691 17
4692 2
4693 9
4694 3
4695 25
4696 63
4697 5
4698 3
4699 3
4700 9
4701 65
4702 27
4703 42
4704 1
4705 2
4706 18
4707 9
4708 28
4709 20
4710 2
4711 53
4712 2
4713 2
4714 3
4715 40
4716 55
4717 16
4718 6
4719 6
4720 2
4721 21
4722 27
4723 21
4724 3
4725 25
4726 3
4727 71
4728 21
4729 18
4730 6
4731 32
4732 33
4733 17
4734 5
4735 3
4736 21
4737 45
4738 41
4739 9
4740 6
4741 49
4742 27
4743 5
4744 3
4745 45
4746 6
4747 76
4748 9
4749 21
4750 9
4751 28
4752 9
4753 50
4754 1
4755 9
4756 20
4757 27
4758 2
4759 26
4760 6
4761 3
4762 67
4763 3
4764 3
4765 0
4766 21
4767 48
4768 72
4769 9
4770 4
4771 3
4772 18
4773 5
4774 2
4775 6
4776 40
4777 21
4778 6
4779 6
4780 43
4781 9
4782 27
4783 63
4784 90
4785 14
4786 34
4787 46
4788 3
4789 88
4790 18
4791 2
4792 44
4793 6
4794 27
4795 9
4796 2
4797 9
4798 26
4799 33
4800 26
4801 20
4802 9
4803 25
4804 6
4805 21
4806 2
4807 27
4808 15
4809 2
4810 3
4811 2
4812 27
4813 27
4814 82
4815 26
4816 9
4817 6
4818 30
4819 33
4820 27
4821 6
4822 28
4823 3
4824 3
4825 31
4826 51
4827 3
4828 63
4829 11
4830 6
4831 0
4832 21
4833 6
4834 5
4835 21
4836 3
4837 11
4838 3
4839 2
4840 3
4841 59
4842 3
4843 52
4844 27
4845 6
4846 35
4847 34
4848 6
4849 9
4850 6
4851 3
4852 21
4853 0
4854 48
4855 5
4856 5
4857 17
4858 3
4859 3
4860 27
4861 17
4862 22
4863 6
4864 3
4865 3
4866 21
4867 12
4868 3
4869 17
4870 27
4871 9
4872 37
4873 63
4874 63
4875 26
4876 75
4877 6
4878 6
4879 21
4880 27
4881 2
4882 2
4883 13
4884 37
4885 71
4886 84
4887 2
4888 9
4889 39
4890 26
4891 5
4892 5
4893 52
4894 71
4895 27
4896 33
4897 31
4898 18
4899 6
4900 71
4901 21
4902 2
4903 40
4904 33
4905 3
4906 2
4907 0
4908 80
4909 79
4910 27
4911 20
4912 85
4913 74
4914 3
4915 6
4916 64
4917 21
4918 5
4919 8
4920 6
4921 53
4922 40
4923 5
4924 3
4925 5
4926 51
4927 31
4928 21
4929 5
4930 34
4931 6
4932 26
4933 2
4934 3
4935 6
4936 6
4937 6
4938 9
4939 5
4940 3
4941 33
4942 6
4943 2
4944 3
4945 6
4946 6
4947 53
4948 3
4949 9
4950 33
4951 9
4952 42
4953 17
4954 23
4955 13
4956 9
4957 16
4958 6
4959 6
4960 17
4961 9
4962 3
4963 48
4964 6
4965 28
4966 17
4967 6
4968 23
4969 2
4970 33
4971 2
4972 77
4973 2
4974 9
4975 79
4976 80
4977 9
4978 9
4979 3
4980 4
4981 6
4982 13
4983 83
4984 71
4985 21
4986 21
4987 3
4988 6
4989 3
4990 2
4991 2
4992 51
4993 1
4994 6
4995 48
4996 5
4997 17
4998 43
4999 41
5000 9
5001 3
5002 3
5003 27
5004 9
5005 5
5006 9
5007 20
5008 5
5009 26
5010 33
5011 5
5012 21
5013 40
5014 38
5015 2
5016 9
5017 71
5018 14
5019 2
5020 2
5021 3
5022 2
5023 34
5024 9
5025 21
5026 5
5027 14
5028 40
5029 27
5030 20
5031 3
5032 2
5033 9
5034 3
5035 78
5036 9
5037 5
5038 33
5039 40
5040 27
5041 27
5042 2
5043 17
5044 9
5045 3
5046 3
5047 6
5048 3
5049 34
5050 63
5051 5
5052 5
5053 42
5054 6
5055 5
5056 6
5057 16
5058 13
5059 42
5060 6
5061 33
5062 23
5063 78
5064 6
5065 9
5066 38
5067 6
5068 6
5069 8
5070 26
5071 85
5072 25
5073 17
5074 53
5075 2
5076 2
5077 3
5078 13
5079 14
5080 20
5081 5
5082 6
5083 63
5084 27
5085 1
5086 3
5087 53
5088 3
5089 2
5090 2
5091 80
5092 6
5093 33
5094 25
5095 7
5096 20
5097 39
5098 8
5099 3
5100 26
5101 6
5102 27
5103 21
5104 3
5105 28
5106 6
5107 5
5108 21
5109 16
5110 6
5111 27
5112 71
5113 20
5114 17
5115 28
5116 6
5117 3
5118 12
5119 6
5120 3
5121 75
5122 3
5123 31
5124 9
5125 6
5126 45
5127 2
5128 26
5129 2
5130 42
5131 8
5132 6
5133 5
5134 27
5135 33
5136 6
5137 6
5138 74
5139 6
5140 42
5141 2
5142 9
5143 2
5144 5
5145 3
5146 17
5147 9
5148 26
5149 48
5150 9
5151 3
5152 21
5153 33
5154 76
5155 48
5156 5
5157 28
5158 9
5159 71
5160 3
5161 5
5162 3
5163 2
5164 17
5165 78
5166 33
5167 5
5168 9
5169 2
5170 79
5171 2
5172 16
5173 20
5174 21
5175 71
5176 3
5177 57
5178 16
5179 2
5180 46
5181 9
5182 3
5183 3
5184 6
5185 21
5186 20
5187 6
5188 5
5189 9
5190 21
5191 39
5192 37
5193 3
5194 3
5195 1
5196 3
5197 21
5198 37
5199 6
5200 2
5201 21
5202 6
5203 66
5204 5
5205 9
5206 2
5207 9
5208 71
5209 18
5210 3
5211 23
5212 2
5213 3
5214 6
5215 83
5216 30
5217 69
5218 9
5219 35
5220 5
5221 42
5222 28
5223 20
5224 2
5225 37
5226 2
5227 33
5228 9
5229 9
5230 3
5231 2
5232 48
5233 58
5234 14
5235 6
5236 3
5237 17
5238 21
5239 77
5240 2
5241 70
5242 21
5243 3
5244 21
5245 9
5246 3
5247 8
5248 18
5249 66
5250 21
5251 70
5252 71
5253 63
5254 27
5255 9
5256 27
5257 6
5258 36
5259 2
5260 3
5261 3
5262 5
5263 3
5264 21
5265 34
5266 3
5267 21
5268 40
5269 27
5270 42
5271 3
5272 5
5273 3
5274 13
5275 27
5276 0
5277 70
5278 9
5279 52
5280 5
5281 6
5282 27
5283 47
5284 3
5285 5
5286 54
5287 28
5288 28
5289 33
5290 5
5291 58
5292 21
5293 26
5294 16
5295 84
5296 9
5297 37
5298 9
5299 71
5300 17
5301 27
5302 9
5303 7
5304 5
5305 10
5306 33
5307 6
5308 27
5309 53
5310 28
5311 3
5312 9
5313 71
5314 5
5315 20
5316 5
5317 71
5318 34
5319 3
5320 21
5321 80
5322 5
5323 8
5324 3
5325 3
5326 76
5327 2
5328 9
5329 9
5330 44
5331 76
5332 6
5333 34
5334 38
5335 6
5336 6
5337 27
5338 6
5339 2
5340 13
5341 23
5342 21
5343 3
5344 33
5345 6
5346 37
5347 6
5348 1
5349 2
5350 0
5351 21
5352 21
5353 71
5354 37
5355 42
5356 3
5357 70
5358 5
5359 21
5360 2
5361 9
5362 5
5363 3
5364 18
5365 2
5366 5
5367 3
5368 2
5369 3
5370 17
5371 9
5372 14
5373 6
5374 9
5375 9
5376 2
5377 38
5378 35
5379 6
5380 2
5381 9
5382 65
5383 9
5384 38
5385 47
5386 16
5387 3
5388 2
5389 23
5390 23
5391 3
5392 6
5393 5
5394 54
5395 6
5396 9
5397 17
5398 21
5399 21
5400 6
5401 6
5402 3
5403 9
5404 6
5405 16
5406 9
5407 5
5408 3
5409 6
5410 42
5411 27
5412 9
5413 21
5414 10
5415 6
5416 21
5417 5
5418 14
5419 2
5420 6
5421 9
5422 34
5423 77
5424 9
5425 6
5426 26
5427 21
5428 5
5429 2
5430 5
5431 6
5432 3
5433 21
5434 71
5435 2
5436 3
5437 42
5438 3
5439 2
5440 9
5441 6
5442 21
5443 9
5444 12
5445 17
5446 3
5447 21
5448 0
5449 2
5450 27
5451 5
5452 6
5453 3
5454 21
5455 5
5456 6
5457 3
5458 2
5459 63
5460 58
5461 52
5462 53
5463 2
5464 32
5465 57
5466 2
5467 72
5468 5
5469 24
5470 5
5471 27
5472 61
5473 38
5474 15
5475 2
5476 6
5477 26
5478 40
5479 12
5480 70
5481 5
5482 49
5483 26
5484 30
5485 2
5486 5
5487 6
5488 52
5489 3
5490 18
5491 3
5492 21
5493 88
5494 5
5495 37
5496 3
5497 20
5498 6
5499 9
5500 36
5501 33
5502 9
5503 4
5504 43
5505 12
5506 51
5507 2
5508 6
5509 3
5510 44
5511 3
5512 3
5513 33
5514 37
5515 6
5516 9
5517 6
5518 0
5519 9
5520 5
5521 27
5522 2
5523 6
5524 3
5525 27
5526 8
5527 33
5528 26
5529 1
5530 5
5531 9
5532 33
5533 3
5534 5
5535 44
5536 3
5537 27
5538 3
5539 33
5540 6
5541 11
5542 20
5543 47
5544 3
5545 3
5546 5
5547 30
5548 77
5549 6
5550 5
5551 6
5552 78
5553 5
5554 20
5555 2
5556 77
5557 9
5558 59
5559 21
5560 3
5561 6
5562 21
5563 17
5564 7
5565 2
5566 28
5567 13
5568 3
5569 25
5570 9
5571 2
5572 9
5573 20
5574 9
5575 2
5576 6
5577 2
5578 3
5579 21
5580 92
5581 62
5582 38
5583 2
5584 47
5585 2
5586 3
5587 40
5588 12
5589 6
5590 40
5591 3
5592 3
5593 2
5594 55
5595 80
5596 15
5597 9
5598 18
5599 9
5600 27
5601 6
5602 2
5603 21
5604 6
5605 21
5606 17
5607 36
5608 21
5609 21
5610 9
5611 77
5612 5
5613 6
5614 3
5615 9
5616 57
5617 63
5618 57
5619 16
5620 9
5621 3
5622 2
5623 9
5624 17
5625 3
5626 5
5627 37
5628 6
5629 28
5630 54
5631 63
5632 0
5633 3
5634 9
5635 83
5636 21
5637 27
5638 27
5639 17
5640 3
5641 27
5642 16
5643 18
5644 48
5645 53
5646 27
5647 21
5648 48
5649 27
5650 17
5651 57
5652 53
5653 13
5654 6
5655 27
5656 6
5657 6
5658 70
5659 87
5660 2
5661 74
5662 5
5663 31
5664 3
5665 63
5666 2
5667 5
5668 9
5669 48
5670 56
5671 9
5672 3
5673 9
5674 6
5675 6
5676 3
5677 3
5678 63
5679 21
5680 71
5681 9
5682 17
5683 31
5684 21
5685 6
5686 6
5687 9
5688 9
5689 20
5690 5
5691 2
5692 63
5693 2
5694 6
5695 3
5696 2
5697 9
5698 42
5699 9
5700 35
5701 5
5702 13
5703 3
5704 3
5705 9
5706 20
5707 40
5708 2
5709 2
5710 2
5711 6
5712 6
5713 5
5714 9
5715 17
5716 27
5717 27
5718 3
5719 27
5720 9
5721 6
5722 2
5723 33
5724 2
5725 2
5726 3
5727 6
5728 3
5729 3
5730 27
5731 6
5732 6
5733 69
5734 71
5735 2
5736 79
5737 17
5738 9
5739 20
5740 3
5741 3
5742 5
5743 27
5744 27
5745 71
5746 2
5747 77
5748 46
5749 9
5750 6
5751 6
5752 5
5753 9
5754 66
5755 90
5756 2
5757 13
5758 5
5759 5
5760 2
5761 5
5762 61
5763 3
5764 9
5765 77
5766 33
5767 3
5768 2
5769 6
5770 27
5771 63
5772 37
5773 27
5774 21
5775 27
5776 9
5777 57
5778 6
5779 9
5780 5
5781 77
5782 27
5783 25
5784 85
5785 5
5786 3
5787 3
5788 5
5789 23
5790 64
5791 16
5792 72
5793 51
5794 2
5795 3
5796 21
5797 21
5798 16
5799 2
5800 48
5801 3
5802 33
5803 6
5804 21
5805 26
5806 2
5807 28
5808 2
5809 23
5810 3
5811 51
5812 3
5813 27
5814 42
5815 10
5816 2
5817 3
5818 27
5819 26
5820 44
5821 9
5822 3
5823 21
5824 9
5825 9
5826 40
5827 28
5828 21
5829 9
5830 16
5831 2
5832 46
5833 3
5834 3
5835 3
5836 3
5837 37
5838 18
5839 27
5840 13
5841 42
5842 21
5843 21
5844 5
5845 3
5846 4
5847 18
5848 6
5849 9
5850 48
5851 3
5852 2
5853 9
5854 3
5855 3
5856 21
5857 6
5858 4
5859 2
5860 3
5861 28
5862 23
5863 9
5864 33
5865 0
5866 20
5867 18
5868 6
5869 9
5870 27
5871 27
5872 36
5873 6
5874 82
5875 37
5876 27
5877 33
5878 27
5879 58
5880 5
5881 6
5882 3
5883 9
5884 5
5885 51
5886 3
5887 6
5888 2
5889 2
5890 9
5891 17
5892 21
5893 29
5894 3
5895 3
5896 27
5897 9
5898 0
5899 9
5900 2
5901 26
5902 9
5903 5
5904 80
5905 88
5906 5
5907 1
5908 3
5909 61
5910 5
5911 31
5912 6
5913 21
5914 37
5915 3
5916 27
5917 3
5918 2
5919 2
5920 5
5921 45
5922 3
5923 31
5924 2
5925 5
5926 16
5927 6
5928 3
5929 6
5930 20
5931 18
5932 6
5933 21
5934 33
5935 3
5936 3
5937 9
5938 75
5939 27
5940 10
5941 37
5942 26
5943 6
5944 5
5945 13
5946 1
5947 17
5948 9
5949 9
5950 71
5951 6
5952 3
5953 6
5954 2
5955 3
5956 2
5957 27
5958 3
5959 2
5960 2
5961 90
5962 75
5963 6
5964 3
5965 9
5966 8
5967 58
5968 9
5969 17
5970 21
5971 38
5972 26
5973 9
5974 9
5975 3
5976 2
5977 33
5978 6
5979 2
5980 3
5981 36
5982 5
5983 36
5984 21
5985 27
5986 9
5987 53
5988 2
5989 50
5990 79
5991 9
5992 2
5993 2
5994 6
5995 16
5996 6
5997 38
5998 2
5999 10
6000 20
6001 3
6002 33
6003 6
6004 42
6005 6
6006 6
6007 0
6008 11
6009 44
6010 20
6011 5
6012 27
6013 56
6014 3
6015 26
6016 41
6017 16
6018 42
6019 3
6020 21
6021 3
6022 6
6023 21
6024 9
6025 33
6026 6
6027 27
6028 6
6029 3
6030 5
6031 9
6032 6
6033 33
6034 45
6035 21
6036 82
6037 55
6038 21
6039 68
6040 90
6041 3
6042 6
6043 2
6044 26
6045 9
6046 9
6047 9
6048 2
6049 27
6050 3
6051 2
6052 9
6053 3
6054 2
6055 18
6056 3
6057 2
6058 26
6059 3
6060 10
6061 3
6062 9
6063 2
6064 25
6065 6
6066 3
6067 3
6068 83
6069 21
6070 42
6071 44
6072 20
6073 28
6074 26
6075 6
6076 6
6077 21
6078 71
6079 20
6080 9
6081 9
6082 31
6083 3
6084 3
6085 27
6086 2
6087 2
6088 14
6089 2
6090 2
6091 2
6092 2
6093 5
6094 27
6095 9
6096 9
6097 9
6098 5
6099 20
6100 9
6101 5
6102 9
6103 9
6104 71
6105 77
6106 13
6107 9
6108 2
6109 9
6110 21
6111 41
6112 37
6113 9
6114 53
6115 42
6116 55
6117 14
6118 9
6119 5
6120 6
6121 27
6122 6
6123 17
6124 8
6125 73
6126 27
6127 2
6128 2
6129 17
6130 9
6131 61
6132 3
6133 0
6134 21
6135 5
6136 47
6137 27
6138 9
6139 72
6140 6
6141 5
6142 26
6143 2
6144 6
6145 3
6146 5
6147 3
6148 27
6149 27
6150 2
6151 6
6152 21
6153 46
6154 6
6155 27
6156 6
6157 30
6158 6
6159 76
6160 72
6161 6
6162 27
6163 3
6164 2
6165 68
6166 47
6167 5
6168 21
6169 4
6170 83
6171 21
6172 2
6173 53
6174 23
6175 6
6176 2
6177 3
6178 3
6179 6
6180 2
6181 2
6182 9
6183 2
6184 63
6185 2
6186 35
6187 40
6188 1
6189 6
6190 2
6191 3
6192 35
6193 6
6194 2
6195 3
6196 63
6197 47
6198 0
6199 2
6200 76
6201 6
6202 47
6203 6
6204 79
6205 53
6206 78
6207 15
6208 27
6209 80
6210 6
6211 9
6212 27
6213 6
6214 3
6215 2
6216 6
6217 3
6218 35
6219 77
6220 6
6221 28
6222 9
6223 9
6224 48
6225 5
6226 79
6227 6
6228 20
6229 9
6230 6
6231 6
6232 30
6233 34
6234 26
6235 2
6236 2
6237 2
6238 5
6239 25
6240 2
6241 6
6242 45
6243 6
6244 0
6245 45
6246 3
6247 6
6248 3
6249 5
6250 13
6251 80
6252 26
6253 6
6254 17
6255 2
6256 33
6257 6
6258 39
6259 47
6260 34
6261 24
6262 3
6263 77
6264 2
6265 21
6266 2
6267 37
6268 5
6269 6
6270 9
6271 3
6272 3
6273 9
6274 50
6275 2
6276 6
6277 3
6278 27
6279 71
6280 9
6281 69
6282 9
6283 8
6284 9
6285 51
6286 1
6287 32
6288 28
6289 47
6290 0
6291 28
6292 71
6293 77
6294 66
6295 9
6296 53
6297 71
6298 6
6299 5
6300 3
6301 63
6302 8
6303 5
6304 2
6305 6
6306 9
6307 0
6308 31
6309 3
6310 2
6311 70
6312 27
6313 9
6314 58
6315 9
6316 1
6317 9
6318 3
6319 49
6320 3
6321 47
6322 1
6323 33
6324 21
6325 57
6326 77
6327 2
6328 3
6329 9
6330 6
6331 14
6332 2
6333 33
6334 6
6335 9
6336 20
6337 47
6338 3
6339 2
6340 3
6341 6
6342 21
6343 3
6344 3
6345 3
6346 6
6347 6
6348 9
6349 40
6350 5
6351 5
6352 6
6353 33
6354 3
6355 5
6356 80
6357 71
6358 49
6359 26
6360 6
6361 3
6362 27
6363 5
6364 34
6365 52
6366 5
6367 2
6368 27
6369 42
6370 20
6371 19
6372 3
6373 45
6374 41
6375 6
6376 6
6377 6
6378 9
6379 3
6380 47
6381 33
6382 17
6383 80
6384 5
6385 54
6386 78
6387 78
6388 6
6389 9
6390 3
6391 2
6392 3
6393 27
6394 1
6395 5
6396 77
6397 3
6398 37
6399 5
6400 40
6401 3
6402 6
6403 2
6404 3
6405 6
6406 5
6407 3
6408 6
6409 9
6410 6
6411 58
6412 76
6413 9
6414 20
6415 92
6416 61
6417 3
6418 6
6419 6
6420 26
6421 27
6422 2
6423 22
6424 9
6425 9
6426 27
6427 4
6428 6
6429 5
6430 9
6431 3
6432 6
6433 55
6434 2
6435 2
6436 37
6437 33
6438 9
6439 21
6440 3
6441 21
6442 3
6443 0
6444 65
6445 9
6446 40
6447 9
6448 5
6449 27
6450 2
6451 6
6452 3
6453 28
6454 17
6455 38
6456 5
6457 3
6458 54
6459 48
6460 21
6461 55
6462 9
6463 2
6464 14
6465 6
6466 5
6467 6
6468 77
6469 37
6470 6
6471 27
6472 2
6473 2
6474 45
6475 2
6476 27
6477 72
6478 35
6479 47
6480 6
6481 21
6482 6
6483 5
6484 2
6485 71
6486 2
6487 5
6488 2
6489 50
6490 45
6491 3
6492 5
6493 9
6494 20
6495 2
6496 6
6497 2
6498 47
6499 27
6500 9
6501 31
6502 9
6503 6
6504 3
6505 35
6506 9
6507 34
6508 21
6509 40
6510 9
6511 6
6512 5
6513 6
6514 36
6515 3
6516 67
6517 2
6518 27
6519 65
6520 2
6521 6
6522 3
6523 2
6524 6
6525 27
6526 91
6527 2
6528 2
6529 63
6530 67
6531 3
6532 27
6533 23
6534 3
6535 21
6536 6
6537 21
6538 2
6539 9
6540 21
6541 76
6542 5
6543 9
6544 45
6545 9
6546 13
6547 6
6548 66
6549 5
6550 33
6551 21
6552 57
6553 9
6554 3
6555 21
6556 21
6557 20
6558 2
6559 14
6560 6
6561 5
6562 53
6563 63
6564 63
6565 34
6566 5
6567 3
6568 80
6569 6
6570 3
6571 3
6572 17
6573 21
6574 6
6575 27
6576 33
6577 6
6578 1
6579 9
6580 6
6581 6
6582 86
6583 57
6584 13
6585 63
6586 2
6587 2
6588 77
6589 6
6590 3
6591 9
6592 5
6593 34
6594 17
6595 2
6596 6
6597 6
6598 20
6599 49
6600 6
6601 30
6602 6
6603 3
6604 28
6605 40
6606 76
6607 2
6608 21
6609 37
6610 20
6611 5
6612 9
6613 3
6614 2
6615 5
6616 17
6617 71
6618 3
6619 6
6620 3
6621 3
6622 3
6623 17
6624 33
6625 9
6626 71
6627 44
6628 2
6629 2
6630 6
6631 33
6632 3
6633 70
6634 21
6635 6
6636 38
6637 3
6638 3
6639 21
6640 33
6641 9
6642 21
6643 21
6644 5
6645 18
6646 33
6647 21
6648 27
6649 3
6650 2
6651 9
6652 9
6653 9
6654 28
6655 5
6656 3
6657 9
6658 9
6659 6
6660 44
6661 9
6662 6
6663 2
6664 5
6665 72
6666 3
6667 48
6668 3
6669 71
6670 68
6671 33
6672 27
6673 2
6674 66
6675 2
6676 33
6677 3
6678 6
6679 16
6680 3
6681 5
6682 21
6683 3
6684 60
6685 0
6686 2
6687 51
6688 21
6689 33
6690 6
6691 2
6692 2
6693 33
6694 78
6695 6
6696 3
6697 27
6698 3
6699 5
6700 6
6701 27
6702 66
6703 33
6704 17
6705 28
6706 63
6707 6
6708 3
6709 33
6710 2
6711 9
6712 28
6713 5
6714 2
6715 5
6716 2
6717 21
6718 9
6719 6
6720 40
6721 27
6722 5
6723 9
6724 3
6725 27
6726 15
6727 33
6728 23
6729 2
6730 6
6731 40
6732 28
6733 16
6734 3
6735 2
6736 2
6737 36
6738 53
6739 4
6740 5
6741 34
6742 71
6743 76
6744 67
6745 72
6746 10
6747 65
6748 53
6749 3
6750 9
6751 9
6752 31
6753 71
6754 9
6755 1
6756 9
6757 6
6758 48
6759 2
6760 33
6761 77
6762 6
6763 33
6764 27
6765 9
6766 6
6767 2
6768 6
6769 57
6770 2
6771 3
6772 27
6773 65
6774 2
6775 2
6776 3
6777 48
6778 33
6779 40
6780 34
6781 3
6782 3
6783 6
6784 18
6785 21
6786 3
6787 5
6788 76
6789 9
6790 2
6791 3
6792 2
6793 51
6794 2
6795 9
6796 9
6797 44
6798 24
6799 18
6800 2
6801 9
6802 6
6803 9
6804 5
6805 49
6806 3
6807 0
6808 6
6809 21
6810 83
6811 44
6812 34
6813 3
6814 4
6815 77
6816 5
6817 9
6818 9
6819 2
6820 15
6821 3
6822 3
6823 5
6824 3
6825 5
6826 2
6827 9
6828 5
6829 9
6830 2
6831 55
6832 2
6833 27
6834 27
6835 26
6836 18
6837 3
6838 21
6839 28
6840 3
6841 21
6842 41
6843 9
6844 35
6845 33
6846 6
6847 3
6848 6
6849 9
6850 3
6851 2
6852 2
6853 9
6854 3
6855 21
6856 45
6857 9
6858 19
6859 71
6860 44
6861 26
6862 3
6863 7
6864 33
6865 66
6866 27
6867 31
6868 5
6869 21
6870 9
6871 2
6872 3
6873 43
6874 9
6875 16
6876 6
6877 2
6878 21
6879 3
6880 3
6881 28
6882 37
6883 6
6884 33
6885 6
6886 17
6887 27
6888 2
6889 80
6890 6
6891 9
6892 2
6893 9
6894 5
6895 63
6896 27
6897 31
6898 2
6899 83
6900 3
6901 20
6902 71
6903 6
6904 42
6905 3
6906 2
6907 0
6908 2
6909 3
6910 48
6911 31
6912 47
6913 6
6914 82
6915 8
6916 3
6917 27
6918 9
6919 62
6920 77
6921 5
6922 16
6923 71
6924 9
6925 3
6926 24
6927 71
6928 27
6929 77
6930 9
6931 6
6932 66
6933 3
6934 11
6935 2
6936 2
6937 3
6938 21
6939 1
6940 41
6941 14
6942 5
6943 43
6944 27
6945 21
6946 21
6947 48
6948 33
6949 9
6950 33
6951 21
6952 3
6953 21
6954 2
6955 9
6956 45
6957 3
6958 3
6959 4
6960 2
6961 5
6962 3
6963 33
6964 52
6965 21
6966 27
6967 37
6968 6
6969 6
6970 2
6971 80
6972 33
6973 25
6974 6
6975 5
6976 87
6977 6
6978 27
6979 3
6980 6
6981 33
6982 71
6983 5
6984 74
6985 19
6986 27
6987 3
6988 6
6989 6
6990 2
6991 21
6992 47
6993 42
6994 33
6995 2
6996 27
6997 21
6998 9
6999 27
7000 33
7001 2
7002 9
7003 6
7004 9
7005 16
7006 9
7007 35
7008 56
7009 5
7010 71
7011 26
7012 80
7013 6
7014 5
7015 5
7016 2
7017 27
7018 3
7019 6
7020 17
7021 9
7022 49
7023 23
7024 21
7025 71
7026 3
7027 45
7028 6
7029 9
7030 75
7031 0
7032 21
7033 9
7034 3
7035 4
7036 6
7037 72
7038 5
7039 6
7040 23
7041 6
7042 35
7043 2
7044 20
7045 12
7046 6
7047 5
7048 5
7049 9
7050 23
7051 2
7052 6
7053 36
7054 9
7055 37
7056 1
7057 5
7058 77
7059 34
7060 5
7061 79
7062 6
7063 84
7064 5
7065 2
7066 63
7067 48
7068 82
7069 6
7070 52
7071 6
7072 6
7073 6
7074 6
7075 26
7076 5
7077 9
7078 3
7079 6
7080 3
7081 2
7082 2
7083 3
7084 3
7085 12
7086 9
7087 3
7088 9
7089 3
7090 21
7091 9
7092 13
7093 18
7094 56
7095 27
7096 2
7097 2
7098 21
7099 3
7100 89
7101 6
7102 27
7103 14
7104 21
7105 33
7106 45
7107 17
7108 6
7109 3
7110 2
7111 9
7112 6
7113 13
7114 59
7115 21
7116 33
7117 91
7118 20
7119 40
7120 2
7121 79
7122 9
7123 5
7124 6
7125 26
7126 2
7127 21
7128 6
7129 21
7130 24
7131 3
7132 6
7133 9
7134 3
7135 5
7136 48
7137 23
7138 21
7139 6
7140 27
7141 23
7142 21
7143 5
7144 2
7145 9
7146 2
7147 6
7148 17
7149 5
7150 92
7151 2
7152 6
7153 44
7154 5
7155 9
7156 5
7157 48
7158 5
7159 3
7160 2
7161 14
7162 6
7163 77
7164 9
7165 21
7166 6
7167 9
7168 27
7169 63
7170 3
7171 3
7172 6
7173 53
7174 5
7175 5
7176 3
7177 9
7178 69
7179 40
7180 81
7181 2
7182 3
7183 3
7184 3
7185 2
7186 17
7187 6
7188 9
7189 9
7190 3
7191 71
7192 3
7193 13
7194 18
7195 9
7196 3
7197 58
7198 3
7199 2
7200 2
7201 2
7202 9
7203 6
7204 1
7205 38
7206 6
7207 5
7208 17
7209 10
7210 4
7211 9
7212 9
7213 56
7214 33
7215 9
7216 80
7217 9
7218 6
7219 78
7220 2
7221 71
7222 71
7223 3
7224 35
7225 20
7226 27
7227 3
7228 2
7229 6
7230 6
7231 6
7232 9
7233 3
7234 21
7235 6
7236 2
7237 27
7238 21
7239 40
7240 35
7241 47
7242 9
7243 2
7244 6
7245 14
7246 66
7247 11
7248 6
7249 6
7250 71
7251 73
7252 25
7253 42
7254 6
7255 2
7256 3
7257 3
7258 6
7259 9
7260 6
7261 3
7262 6
7263 3
7264 64
7265 21
7266 44
7267 3
7268 6
7269 55
7270 2
7271 36
7272 33
7273 27
7274 41
7275 55
7276 2
7277 13
7278 18
7279 13
7280 14
7281 61
7282 76
7283 6
7284 3
7285 5
7286 6
7287 2
7288 9
7289 6
7290 3
7291 3
7292 2
7293 33
7294 13
7295 6
7296 6
7297 13
7298 27
7299 3
7300 13
7301 23
7302 52
7303 9
7304 11
7305 6
7306 6
7307 33
7308 21
7309 9
7310 79
7311 3
7312 2
7313 9
7314 38
7315 6
7316 4
7317 23
7318 87
7319 20
7320 3
7321 36
7322 44
7323 6
7324 28
7325 52
7326 21
7327 6
7328 5
7329 62
7330 6
7331 2
7332 33
7333 2
7334 2
7335 9
7336 1
7337 80
7338 25
7339 35
7340 5
7341 74
7342 42
7343 3
7344 26
7345 2
7346 52
7347 40
7348 71
7349 2
7350 24
7351 51
7352 9
7353 26
7354 9
7355 70
7356 5
7357 42
7358 5
7359 2
7360 5
7361 27
7362 9
7363 23
7364 9
7365 47
7366 5
7367 34
7368 6
7369 27
7370 9
7371 33
7372 48
7373 76
7374 6
7375 27
7376 2
7377 5
7378 3
7379 2
7380 2
7381 23
7382 21
7383 3
7384 2
7385 6
7386 27
7387 30
7388 20
7389 31
7390 27
7391 6
7392 5
7393 9
7394 3
7395 21
7396 2
7397 27
7398 53
7399 2
7400 27
7401 3
7402 9
7403 17
7404 58
7405 9
7406 3
7407 3
7408 9
7409 3
7410 21
7411 78
7412 3
7413 2
7414 27
7415 47
7416 42
7417 27
7418 32
7419 6
7420 18
7421 9
7422 27
7423 0
7424 2
7425 26
7426 2
7427 80
7428 3
7429 5
7430 6
7431 2
7432 2
7433 53
7434 42
7435 5
7436 2
7437 31
7438 3
7439 56
7440 10
7441 28
7442 6
7443 27
7444 6
7445 9
7446 78
7447 9
7448 61
7449 47
7450 6
7451 21
7452 6
7453 2
7454 2
7455 5
7456 36
7457 6
7458 2
7459 21
7460 54
7461 5
7462 33
7463 3
7464 33
7465 44
7466 48
7467 34
7468 35
7469 85
7470 27
7471 21
7472 28
7473 5
7474 2
7475 33
7476 9
7477 5
7478 4
7479 26
7480 22
7481 22
7482 5
7483 15
7484 3
7485 39
7486 10
7487 57
7488 36
7489 27
7490 25
7491 37
7492 6
7493 20
7494 66
7495 2
7496 5
7497 11
7498 9
7499 6
7500 35
7501 9
7502 26
7503 34
7504 9
7505 8
7506 9
7507 21
7508 3
7509 33
7510 9
7511 2
7512 9
7513 3
7514 3
7515 63
7516 2
7517 21
7518 6
7519 27
7520 6
7521 3
7522 13
7523 21
7524 6
7525 37
7526 21
7527 18
7528 6
7529 45
7530 34
7531 2
7532 42
7533 6
7534 9
7535 33
7536 5
7537 42
7538 6
7539 3
7540 17
7541 3
7542 18
7543 6
7544 33
7545 3
7546 3
7547 9
7548 2
7549 17
7550 6
7551 77
7552 3
7553 34
7554 47
7555 3
7556 6
7557 25
7558 9
7559 21
7560 2
7561 28
7562 2
7563 28
7564 74
7565 9
7566 21
7567 3
7568 9
7569 70
7570 18
7571 63
7572 6
7573 76
7574 63
7575 28
7576 3
7577 2
7578 3
7579 18
7580 2
7581 23
7582 59
7583 9
7584 3
7585 27
7586 9
7587 6
7588 14
7589 2
7590 2
7591 21
7592 3
7593 6
7594 24
7595 21
7596 6
7597 5
7598 5
7599 2
7600 18
7601 42
7602 5
7603 5
7604 17
7605 9
7606 19
7607 55
7608 40
7609 5
7610 23
7611 63
7612 77
7613 53
7614 5
7615 0
7616 6
7617 24
7618 2
7619 6
7620 2
7621 27
7622 27
7623 13
7624 3
7625 2
7626 3
7627 77
7628 3
7629 44
7630 6
7631 2
7632 9
7633 9
7634 9
7635 4
7636 26
7637 74
7638 2
7639 5
7640 28
7641 2
7642 58
7643 6
7644 9
7645 1
7646 6
7647 26
7648 9
7649 2
7650 53
7651 5
7652 37
7653 6
7654 3
7655 35
7656 60
7657 25
7658 3
7659 20
7660 28
7661 3
7662 3
7663 6
7664 9
7665 9
7666 27
7667 5
7668 21
7669 5
7670 3
7671 63
7672 3
7673 6
7674 17
7675 27
7676 53
7677 9
7678 12
7679 33
7680 3
7681 20
7682 27
7683 33
7684 71
7685 24
7686 3
7687 26
7688 66
7689 2
7690 17
7691 88
7692 3
7693 5
7694 2
7695 2
7696 60
7697 44
7698 27
7699 6
7700 63
7701 5
7702 53
7703 18
7704 33
7705 16
7706 20
7707 2
7708 26
7709 73
7710 3
7711 6
7712 3
7713 33
7714 38
7715 33
7716 6
7717 57
7718 3
7719 6
7720 2
7721 26
7722 3
7723 5
7724 9
7725 3
7726 60
7727 2
7728 3
7729 5
7730 71
7731 5
7732 3
7733 6
7734 17
7735 9
7736 51
7737 2
7738 13
7739 5
7740 5
7741 1
7742 2
7743 6
7744 6
7745 2
7746 2
7747 47
7748 3
7749 5
7750 27
7751 44
7752 8
7753 9
7754 71
7755 31
7756 9
7757 5
7758 18
7759 40
7760 2
7761 9
7762 58
7763 33
7764 47
7765 21
7766 27
7767 6
7768 33
7769 30
7770 27
7771 6
7772 1
7773 3
7774 6
7775 6
7776 6
7777 3
7778 6
7779 52
7780 42
7781 9
7782 3
7783 9
7784 2
7785 6
7786 5
7787 15
7788 2
7789 48
7790 27
7791 1
7792 3
7793 2
7794 6
7795 90
7796 41
7797 2
7798 5
7799 47
7800 23
7801 8
7802 9
7803 11
7804 6
7805 37
7806 2
7807 3
7808 27
7809 9
7810 33
7811 27
7812 21
7813 13
7814 9
7815 21
7816 3
7817 3
7818 9
7819 28
7820 6
7821 3
7822 47
7823 2
7824 5
7825 21
7826 2
7827 27
7828 5
7829 5
7830 2
7831 6
7832 40
7833 21
7834 6
7835 6
7836 9
7837 5
7838 5
7839 6
7840 9
7841 6
7842 47
7843 68
7844 36
7845 3
7846 21
7847 9
7848 35
7849 5
7850 2
7851 45
7852 48
7853 8
7854 5
7855 21
7856 3
7857 2
7858 58
7859 23
7860 32
7861 3
7862 5
7863 5
7864 26
7865 2
7866 3
7867 31
7868 20
7869 6
7870 2
7871 3
7872 17
7873 21
7874 2
7875 9
7876 6
7877 30
7878 17
7879 76
7880 47
7881 57
7882 3
7883 4
7884 0
7885 2
7886 56
7887 53
7888 2
7889 31
7890 6
7891 21
7892 65
7893 21
7894 9
7895 3
7896 6
7897 3
7898 6
7899 2
7900 35
7901 9
7902 6
7903 5
7904 9
7905 21
7906 17
7907 21
7908 6
7909 4
7910 53
7911 2
7912 33
7913 3
7914 3
7915 3
7916 3
7917 3
7918 4
7919 27
7920 9
7921 9
7922 21
7923 6
7924 6
7925 2
7926 9
7927 6
7928 2
7929 2
7930 21
7931 5
7932 2
7933 2
7934 27
7935 9
7936 45
7937 5
7938 33
7939 44
7940 5
7941 12
7942 5
7943 2
7944 9
7945 3
7946 21
7947 5
7948 9
7949 5
7950 28
7951 9
7952 6
7953 42
7954 2
7955 5
7956 27
7957 1
7958 85
7959 21
7960 3
7961 5
7962 2
7963 3
7964 2
7965 2
7966 25
7967 27
7968 35
7969 74
7970 1
7971 57
7972 3
7973 5
7974 21
7975 9
7976 3
7977 5
7978 3
7979 4
7980 17
7981 6
7982 21
7983 9
7984 18
7985 59
7986 58
7987 2
7988 6
7989 9
7990 6
7991 27
7992 3
7993 3
7994 6
7995 27
7996 2
7997 1
7998 52
7999 6
8000 3
8001 2
8002 27
8003 3
8004 9
8005 33
8006 2
8007 5
8008 42
8009 9
8010 6
8011 33
8012 2
8013 9
8014 9
8015 3
8016 9
8017 9
8018 2
8019 2
8020 9
8021 3
8022 21
8023 2
8024 5
8025 28
8026 9
8027 26
8028 0
8029 17
8030 6
8031 49
8032 6
8033 44
8034 6
8035 3
8036 21
8037 9
8038 2
8039 5
8040 21
8041 49
8042 21
8043 51
8044 27
8045 3
8046 40
8047 37
8048 21
8049 6
8050 3
8051 42
8052 3
8053 3
8054 9
8055 1
8056 80
8057 5
8058 21
8059 9
8060 2
8061 16
8062 27
8063 53
8064 40
8065 26
8066 56
8067 27
8068 33
8069 9
8070 27
8071 3
8072 9
8073 2
8074 9
8075 6
8076 3
8077 54
8078 6
8079 47
8080 2
8081 31
8082 21
8083 5
8084 21
8085 62
8086 27
8087 79
8088 3
8089 2
8090 5
8091 73
8092 21
8093 3
8094 3
8095 83
8096 3
8097 9
8098 60
8099 3
8100 26
8101 3
8102 6
8103 2
8104 54
8105 3
8106 66
8107 0
8108 6
8109 6
8110 6
8111 12
8112 21
8113 9
8114 85
8115 5
8116 9
8117 43
8118 6
8119 5
8120 21
8121 6
8122 6
8123 37
8124 3
8125 6
8126 2
8127 17
8128 2
8129 3
8130 9
8131 9
8132 76
8133 74
8134 50
8135 5
8136 49
8137 78
8138 9
8139 5
8140 2
8141 15
8142 27
8143 14
8144 3
8145 3
8146 21
8147 48
8148 2
8149 33
8150 77
8151 13
8152 3
8153 2
8154 6
8155 2
8156 9
8157 3
8158 2
8159 21
8160 65
8161 3
8162 3
8163 17
8164 33
8165 2
8166 6
8167 2
8168 21
8169 9
8170 46
8171 47
8172 21
8173 71
8174 63
8175 5
8176 26
8177 3
8178 33
8179 2
8180 76
8181 2
8182 9
8183 3
8184 6
8185 89
8186 34
8187 46
8188 3
8189 2
8190 5
8191 76
8192 21
8193 3
8194 2
8195 3
8196 6
8197 9
8198 77
8199 6
8200 6
8201 2
8202 78
8203 40
8204 1
8205 84
8206 3
8207 6
8208 17
8209 25
8210 27
8211 6
8212 9
8213 5
8214 74
8215 13
8216 2
8217 3
8218 2
8219 3
8220 9
8221 21
8222 38
8223 9
8224 3
8225 46
8226 3
8227 3
8228 6
8229 21
8230 5
8231 21
8232 21
8233 76
8234 6
8235 9
8236 3
8237 6
8238 2
8239 54
8240 62
8241 4
8242 65
8243 3
8244 3
8245 2
8246 5
8247 2
8248 56
8249 25
8250 37
8251 2
8252 44
8253 9
8254 6
8255 5
8256 27
8257 3
8258 8
8259 9
8260 23
8261 83
8262 3
8263 3
8264 86
8265 17
8266 3
8267 38
8268 6
8269 27
8270 16
8271 6
8272 32
8273 25
8274 2
8275 27
8276 2
8277 3
8278 9
8279 12
8280 27
8281 2
8282 42
8283 28
8284 9
8285 3
8286 0
8287 45
8288 21
8289 6
8290 6
8291 2
8292 6
8293 27
8294 77
8295 42
8296 27
8297 9
8298 5
8299 2
8300 1
8301 71
8302 9
8303 33
8304 7
8305 2
8306 18
8307 74
8308 27
8309 3
8310 3
8311 2
8312 27
8313 2
8314 3
8315 87
8316 23
8317 3
8318 3
8319 26
8320 21
8321 21
8322 9
8323 3
8324 16
8325 2
8326 5
8327 3
8328 3
8329 83
8330 2
8331 2
8332 9
8333 21
8334 25
8335 2
8336 33
8337 53
8338 77
8339 2
8340 6
8341 25
8342 16
8343 21
8344 5
8345 17
8346 17
8347 5
8348 34
8349 37
8350 2
8351 71
8352 52
8353 2
8354 28
8355 17
8356 6
8357 19
8358 3
8359 3
8360 5
8361 9
8362 2
8363 77
8364 3
8365 2
8366 9
8367 54
8368 2
8369 60
8370 47
8371 3
8372 28
8373 2
8374 21
8375 6
8376 3
8377 55
8378 9
8379 9
8380 9
8381 3
8382 2
8383 63
8384 32
8385 2
8386 47
8387 3
8388 23
8389 41
8390 9
8391 27
8392 65
8393 80
8394 9
8395 4
8396 21
8397 21
8398 20
8399 9
8400 26
8401 23
8402 82
8403 26
8404 9
8405 5
8406 56
8407 2
8408 21
8409 3
8410 54
8411 21
8412 84
8413 47
8414 3
8415 74
8416 3
8417 70
8418 9
8419 6
8420 21
8421 5
8422 5
8423 3
8424 9
8425 40
8426 6
8427 71
8428 5
8429 9
8430 2
8431 5
8432 3
8433 74
8434 2
8435 2
8436 21
8437 23
8438 46
8439 5
8440 65
8441 9
8442 92
8443 3
8444 16
8445 21
8446 2
8447 31
8448 26
8449 3
8450 25
8451 9
8452 6
8453 3
8454 2
8455 9
8456 3
8457 26
8458 6
8459 3
8460 6
8461 21
8462 17
8463 2
8464 33
8465 0
8466 5
8467 24
8468 27
8469 47
8470 5
8471 55
8472 5
8473 3
8474 5
8475 21
8476 6
8477 2
8478 3
8479 21
8480 62
8481 27
8482 57
8483 37
8484 3
8485 5
8486 17
8487 2
8488 6
8489 2
8490 13
8491 6
8492 3
8493 2
8494 6
8495 3
8496 5
8497 9
8498 2
8499 9
8500 26
8501 3
8502 16
8503 63
8504 23
8505 85
8506 74
8507 26
8508 39
8509 5
8510 3
8511 65
8512 6
8513 17
8514 3
8515 42
8516 18
8517 3
8518 9
8519 27
8520 3
8521 2
8522 6
8523 17
8524 3
8525 27
8526 77
8527 16
8528 5
8529 0
8530 6
8531 14
8532 20
8533 3
8534 71
8535 15
8536 33
8537 3
8538 6
8539 9
8540 53
8541 9
8542 2
8543 6
8544 2
8545 6
8546 2
8547 13
8548 28
8549 3
8550 2
8551 6
8552 27
8553 31
8554 2
8555 2
8556 49
8557 38
8558 28
8559 5
8560 3
8561 9
8562 6
8563 3
8564 4
8565 21
8566 21
8567 0
8568 28
8569 84
8570 3
8571 21
8572 5
8573 76
8574 46
8575 6
8576 21
8577 3
8578 6
8579 5
8580 9
8581 77
8582 21
8583 37
8584 6
8585 1
8586 9
8587 27
8588 40
8589 3
8590 2
8591 14
8592 45
8593 6
8594 6
8595 3
8596 9
8597 6
8598 5
8599 9
8600 26
8601 14
8602 2
8603 2
8604 5
8605 3
8606 45
8607 6
8608 21
8609 76
8610 2
8611 9
8612 27
8613 3
8614 4
8615 16
8616 9
8617 3
8618 33
8619 16
8620 66
8621 6
8622 2
8623 18
8624 6
8625 18
8626 42
8627 21
8628 28
8629 48
8630 27
8631 5
8632 25
8633 2
8634 21
8635 20
8636 40
8637 5
8638 6
8639 17
8640 20
8641 3
8642 80
8643 17
8644 26
8645 21
8646 79
8647 9
8648 27
8649 16
8650 9
8651 2
8652 40
8653 47
8654 20
8655 20
8656 21
8657 3
8658 34
8659 40
8660 40
8661 9
8662 43
8663 9
8664 6
8665 9
8666 3
8667 21
8668 12
8669 63
8670 6
8671 49
8672 2
8673 9
8674 46
8675 64
8676 3
8677 2
8678 85
8679 3
8680 6
8681 20
8682 33
8683 5
8684 3
8685 27
8686 28
8687 9
8688 33
8689 6
8690 14
8691 76
8692 9
8693 9
8694 3
8695 2
8696 17
8697 0
8698 33
8699 48
8700 33
8701 6
8702 3
8703 49
8704 21
8705 6
8706 9
8707 77
8708 9
8709 6
8710 40
8711 80
8712 34
8713 56
8714 6
8715 27
8716 6
8717 27
8718 27
8719 9
8720 27
8721 17
8722 34
8723 6
8724 23
8725 48
8726 2
8727 3
8728 48
8729 26
8730 28
8731 9
8732 2
8733 5
8734 23
8735 9
8736 6
8737 17
8738 9
8739 2
8740 1
8741 27
8742 6
8743 6
8744 30
8745 2
8746 37
8747 84
8748 21
8749 34
8750 3
8751 6
8752 5
8753 1
8754 20
8755 69
8756 5
8757 21
8758 6
8759 25
8760 31
8761 53
8762 28
8763 3
8764 2
8765 26
8766 26
8767 33
8768 5
8769 3
8770 55
8771 73
8772 2
8773 6
8774 21
8775 6
8776 2
8777 3
8778 37
8779 2
8780 9
8781 2
8782 77
8783 23
8784 6
8785 4
8786 1
8787 2
8788 45
8789 65
8790 78
8791 90
8792 5
8793 9
8794 3
8795 33
8796 55
8797 2
8798 5
8799 2
8800 62
8801 10
8802 3
8803 6
8804 6
8805 21
8806 5
8807 57
8808 6
8809 3
8810 2
8811 21
8812 71
8813 3
8814 2
8815 53
8816 0
8817 2
8818 0
8819 3
8820 5
8821 27
8822 3
8823 9
8824 27
8825 6
8826 47
8827 9
8828 36
8829 6
8830 5
8831 6
8832 52
8833 26
8834 5
8835 39
8836 40
8837 2
8838 9
8839 80
8840 27
8841 6
8842 3
8843 20
8844 27
8845 65
8846 5
8847 6
8848 9
8849 66
8850 9
8851 9
8852 2
8853 16
8854 29
8855 6
8856 9
8857 6
8858 9
8859 9
8860 3
8861 5
8862 9
8863 53
8864 21
8865 9
8866 66
8867 31
8868 20
8869 21
8870 2
8871 6
8872 31
8873 76
8874 9
8875 2
8876 3
8877 21
8878 21
8879 2
8880 27
8881 3
8882 49
8883 2
8884 2
8885 2
8886 6
8887 5
8888 65
8889 21
8890 43
8891 6
8892 9
8893 3
8894 61
8895 9
8896 9
8897 6
8898 27
8899 22
8900 21
8901 27
8902 3
8903 3
8904 6
8905 23
8906 21
8907 19
8908 5
8909 17
8910 2
8911 9
8912 65
8913 71
8914 35
8915 2
8916 5
8917 75
8918 2
8919 20
8920 18
8921 2
8922 47
8923 38
8924 77
8925 47
8926 2
8927 5
8928 9
8929 9
8930 3
8931 33
8932 51
8933 6
8934 26
8935 33
8936 90
8937 72
8938 34
8939 9
8940 13
8941 9
8942 7
8943 15
8944 2
8945 9
8946 21
8947 6
8948 6
8949 6
8950 27
8951 43
8952 3
8953 77
8954 9
8955 6
8956 5
8957 71
8958 5
8959 9
8960 5
8961 6
8962 20
8963 6
8964 58
8965 63
8966 6
8967 85
8968 6
8969 6
8970 29
8971 2
8972 9
8973 42
8974 87
8975 2
8976 21
8977 14
8978 2
8979 5
8980 3
8981 9
8982 5
8983 33
8984 6
8985 49
8986 44
8987 32
8988 2
8989 2
8990 69
8991 79
8992 33
8993 2
8994 44
8995 27
8996 48
8997 6
8998 2
8999 34
9000 5
9001 33
9002 27
9003 8
9004 6
9005 27
9006 3
9007 28
9008 6
9009 42
9010 27
9011 9
9012 3
9013 9
9014 79
9015 21
9016 6
9017 53
9018 56
9019 2
9020 3
9021 3
9022 3
9023 3
9024 9
9025 2
9026 31
9027 2
9028 77
9029 33
9030 5
9031 9
9032 3
9033 27
9034 2
9035 31
9036 65
9037 6
9038 33
9039 27
9040 6
9041 63
9042 67
9043 63
9044 23
9045 3
9046 27
9047 6
9048 21
9049 6
9050 49
9051 82
9052 17
9053 5
9054 47
9055 3
9056 9
9057 2
9058 9
9059 71
9060 83
9061 2
9062 5
9063 33
9064 2
9065 2
9066 21
9067 27
9068 14
9069 53
9070 33
9071 21
9072 9
9073 27
9074 25
9075 8
9076 2
9077 27
9078 3
9079 26
9080 2
9081 45
9082 40
9083 88
9084 2
9085 2
9086 80
9087 48
9088 5
9089 10
9090 2
9091 77
9092 9
9093 3
9094 26
9095 6
9096 9
9097 21
9098 27
9099 73
9100 6
9101 6
9102 6
9103 5
9104 16
9105 2
9106 26
9107 21
9108 3
9109 3
9110 20
9111 38
9112 2
9113 9
9114 3
9115 20
9116 2
9117 21
9118 0
9119 2
9120 3
9121 54
9122 7
9123 0
9124 6
9125 42
9126 21
9127 20
9128 79
9129 80
9130 6
9131 3
9132 21
9133 9
9134 21
9135 5
9136 2
9137 6
9138 5
9139 3
9140 2
9141 9
9142 21
9143 27
9144 17
9145 6
9146 45
9147 21
9148 27
9149 17
9150 6
9151 77
9152 76
9153 6
9154 2
9155 6
9156 5
9157 6
9158 5
9159 33
9160 8
9161 3
9162 27
9163 2
9164 74
9165 9
9166 9
9167 3
9168 43
9169 3
9170 63
9171 6
9172 38
9173 42
9174 61
9175 14
9176 1
9177 5
9178 14
9179 53
9180 10
9181 9
9182 2
9183 53
9184 2
9185 2
9186 3
9187 9
9188 18
9189 9
9190 27
9191 27
9192 3
9193 2
9194 9
9195 0
9196 20
9197 63
9198 69
9199 6
9200 6
9201 61
9202 3
9203 3
9204 6
9205 65
9206 80
9207 42
9208 31
9209 9
9210 9
9211 70
9212 58
9213 78
9214 16
9215 28
9216 53
9217 5
9218 42
9219 65
9220 33
9221 47
9222 21
9223 0
9224 6
9225 9
9226 2
9227 9
9228 9
9229 27
9230 9
9231 27
9232 5
9233 42
9234 5
9235 3
9236 75
9237 71
9238 2
9239 8
9240 4
9241 9
9242 33
9243 2
9244 6
9245 71
9246 26
9247 55
9248 3
9249 2
9250 21
9251 6
9252 3
9253 2
9254 3
9255 3
9256 27
9257 16
9258 6
9259 9
9260 21
9261 6
9262 9
9263 77
9264 80
9265 12
9266 6
9267 9
9268 21
9269 1
9270 18
9271 6
9272 26
9273 6
9274 2
9275 37
9276 1
9277 2
9278 6
9279 2
9280 6
9281 6
9282 6
9283 59
9284 44
9285 3
9286 2
9287 21
9288 23
9289 6
9290 31
9291 26
9292 33
9293 3
9294 2
9295 55
9296 71
9297 9
9298 21
9299 9
9300 48
9301 2
9302 27
9303 2
9304 6
9305 3
9306 9
9307 26
9308 65
9309 20
9310 6
9311 6
9312 27
9313 23
9314 2
9315 3
9316 5
9317 28
9318 2
9319 2
9320 34
9321 27
9322 3
9323 3
9324 3
9325 2
9326 2
9327 27
9328 5
9329 3
9330 3
9331 80
9332 68
9333 41
9334 5
9335 53
9336 27
9337 6
9338 3
9339 2
9340 72
9341 5
9342 45
9343 18
9344 23
9345 9
9346 32
9347 21
9348 5
9349 6
9350 3
9351 5
9352 24
9353 2
9354 25
9355 6
9356 6
9357 90
9358 2
9359 65
9360 2
9361 2
9362 6
9363 5
9364 9
9365 6
9366 3
9367 9
9368 2
9369 51
9370 2
9371 48
9372 27
9373 9
9374 21
9375 31
9376 6
9377 3
9378 9
9379 2
9380 62
9381 50
9382 3
9383 83
9384 6
9385 13
9386 27
9387 9
9388 27
9389 5
9390 8
9391 21
9392 60
9393 31
9394 6
9395 56
9396 9
9397 5
9398 2
9399 9
9400 6
9401 6
9402 3
9403 27
9404 9
9405 3
9406 5
9407 6
9408 6
9409 45
9410 6
9411 2
9412 36
9413 2
9414 2
9415 6
9416 35
9417 28
9418 2
9419 3
9420 2
9421 16
9422 2
9423 3
9424 2
9425 33
9426 18
9427 65
9428 38
9429 2
9430 44
9431 25
9432 61
9433 3
9434 29
9435 9
9436 9
9437 21
9438 6
9439 9
9440 3
9441 17
9442 44
9443 24
9444 23
9445 3
9446 5
9447 71
9448 40
9449 7
9450 3
9451 76
9452 27
9453 9
9454 2
9455 27
9456 6
9457 58
9458 9
9459 20
9460 5
9461 15
9462 6
9463 33
9464 27
9465 3
9466 21
9467 2
9468 35
9469 5
9470 0
9471 21
9472 27
9473 2
9474 9
9475 9
9476 5
9477 3
9478 71
9479 21
9480 7
9481 4
9482 71
9483 27
9484 39
9485 27
9486 9
9487 21
9488 9
9489 45
9490 18
9491 27
9492 71
9493 21
9494 3
9495 2
9496 71
9497 3
9498 6
9499 20
9500 3
9501 14
9502 2
9503 31
9504 27
9505 63
9506 25
9507 17
9508 21
9509 6
9510 71
9511 6
9512 6
9513 71
9514 13
9515 9
9516 58
9517 35
9518 2
9519 2
9520 9
9521 5
9522 4
9523 6
9524 18
9525 2
9526 2
9527 9
9528 57
9529 26
9530 3
9531 2
9532 6
9533 63
9534 6
9535 21
9536 54
9537 21
9538 2
9539 5
9540 5
9541 2
9542 21
9543 9
9544 2
9545 33
9546 9
9547 26
9548 14
9549 21
9550 31
9551 70
9552 2
9553 3
9554 77
9555 21
9556 26
9557 5
9558 2
9559 20
9560 2
9561 63
9562 33
9563 5
9564 6
9565 89
9566 6
9567 26
9568 21
9569 42
9570 3
9571 3
9572 3
9573 2
9574 17
9575 87
9576 23
9577 22
9578 6
9579 55
9580 9
9581 72
9582 6
9583 5
9584 2
9585 5
9586 3
9587 47
9588 37
9589 25
9590 2
9591 33
9592 9
9593 46
9594 37
9595 38
9596 2
9597 6
9598 2
9599 6
9600 3
9601 1
9602 6
9603 71
9604 6
9605 9
9606 6
9607 9
9608 9
9609 52
9610 9
9611 71
9612 2
9613 9
9614 2
9615 47
9616 5
9617 2
9618 2
9619 3
9620 47
9621 2
9622 3
9623 10
9624 2
9625 19
9626 3
9627 2
9628 1
9629 21
9630 5
9631 38
9632 59
9633 2
9634 58
9635 6
9636 3
9637 3
9638 36
9639 27
9640 2
9641 71
9642 21
9643 3
9644 35
9645 12
9646 54
9647 27
9648 27
9649 2
9650 3
9651 3
9652 9
9653 3
9654 25
9655 27
9656 5
9657 6
9658 2
9659 13
9660 6
9661 78
9662 21
9663 2
9664 45
9665 2
9666 3
9667 2
9668 2
9669 6
9670 53
9671 3
9672 27
9673 52
9674 3
9675 3
9676 47
9677 21
9678 12
9679 6
9680 21
9681 6
9682 2
9683 7
9684 2
9685 30
9686 1
9687 5
9688 18
9689 6
9690 33
9691 5
9692 5
9693 5
9694 2
9695 30
9696 27
9697 2
9698 5
9699 5
9700 6
9701 1
9702 6
9703 9
9704 9
9705 2
9706 27
9707 6
9708 78
9709 21
9710 2
9711 3
9712 9
9713 9
9714 9
9715 6
9716 27
9717 47
9718 3
9719 10
9720 2
9721 18
9722 14
9723 83
9724 20
9725 31
9726 6
9727 28
9728 9
9729 6
9730 75
9731 3
9732 9
9733 9
9734 21
9735 13
9736 82
9737 31
9738 3
9739 42
9740 69
9741 4
9742 77
9743 6
9744 26
9745 3
9746 3
9747 5
9748 9
9749 9
9750 2
9751 18
9752 3
9753 5
9754 6
9755 3
9756 3
9757 6
9758 3
9759 47
9760 9
9761 5
9762 9
9763 21
9764 27
9765 3
9766 6
9767 9
9768 9
9769 3
9770 36
9771 5
9772 55
9773 2
9774 3
9775 21
9776 3
9777 3
9778 6
9779 6
9780 59
9781 2
9782 72
9783 3
9784 9
9785 27
9786 9
9787 80
9788 3
9789 9
9790 63
9791 77
9792 77
9793 3
9794 26
9795 27
9796 17
9797 3
9798 6
9799 33
9800 33
9801 53
9802 3
9803 2
9804 6
9805 9
9806 33
9807 9
9808 70
9809 6
9810 9
9811 2
9812 0
9813 27
9814 5
9815 33
9816 9
9817 5
9818 2
9819 9
9820 13
9821 63
9822 2
9823 11
9824 5
9825 2
9826 2
9827 9
9828 8
9829 63
9830 13
9831 17
9832 5
9833 5
9834 9
9835 31
9836 27
9837 2
9838 64
9839 26
9840 6
9841 17
9842 3
9843 21
9844 3
9845 6
9846 3
9847 2
9848 79
9849 27
9850 3
9851 6
9852 4
9853 6
9854 2
9855 2
9856 28
9857 33
9858 21
9859 6
9860 6
9861 57
9862 20
9863 9
9864 17
9865 22
9866 28
9867 9
9868 37
9869 34
9870 3
9871 6
9872 49
9873 6
9874 6
9875 9
9876 38
9877 21
9878 1
9879 35
9880 21
9881 71
9882 9
9883 5
9884 53
9885 2
9886 2
9887 27
9888 6
9889 27
9890 6
9891 2
9892 21
9893 18
9894 37
9895 21
9896 28
9897 8
9898 2
9899 3
9900 27
9901 21
9902 2
9903 6
9904 57
9905 2
9906 66
9907 27
9908 6
9909 38
9910 3
9911 5
9912 51
9913 27
9914 0
9915 9
9916 47
9917 9
9918 24
9919 3
9920 2
9921 2
9922 26
9923 69
9924 2
9925 26
9926 9
9927 2
9928 27
9929 3
9930 3
9931 3
9932 61
9933 2
9934 21
9935 2
9936 6
9937 5
9938 21
9939 9
9940 1
9941 2
9942 2
9943 2
9944 21
9945 5
9946 23
9947 9
9948 13
9949 2
9950 33
9951 84
9952 2
9953 71
9954 53
9955 21
9956 6
9957 21
9958 2
9959 21
9960 52
9961 67
9962 25
9963 33
9964 23
9965 3
9966 22
9967 60
9968 9
9969 20
9970 14
9971 9
9972 38
9973 21
9974 25
9975 5
9976 45
9977 21
9978 17
9979 26
9980 6
9981 5
9982 6
9983 21
9984 71
9985 21
9986 3
9987 3
9988 21
9989 3
9990 5
9991 3
9992 56
9993 27
9994 3
9995 72
9996 2
9997 17
9998 2
9999 9
10000 4
10001 2
10002 6
10003 31
10004 10
10005 21
10006 3
10007 21
10008 12
10009 33
10010 1
10011 9
10012 27
10013 21
10014 71
10015 9
10016 2
10017 14
10018 27
10019 27
10020 89
10021 6
10022 13
10023 47
10024 6
10025 34
10026 27
10027 2
10028 27
10029 40
10030 87
10031 9
10032 26
10033 63
10034 6
10035 5
10036 27
10037 3
10038 3
10039 3
10040 80
10041 42
10042 21
10043 33
10044 9
10045 6
10046 2
10047 21
10048 21
10049 37
10050 6
10051 6
10052 5
10053 27
10054 65
10055 9
10056 82
10057 24
10058 2
10059 56
10060 0
10061 10
10062 3
10063 6
10064 6
10065 21
10066 40
10067 9
10068 44
10069 2
10070 9
10071 2
10072 2
10073 10
10074 9
10075 39
10076 47
10077 9
10078 6
10079 69
10080 5
10081 35
10082 3
10083 21
10084 3
10085 28
10086 2
10087 26
10088 26
10089 0
10090 27
10091 6
10092 6
10093 2
10094 41
10095 40
10096 6
10097 23
10098 21
10099 13
10100 63
10101 7
10102 2
10103 33
10104 6
10105 9
10106 42
10107 83
10108 21
10109 21
10110 27
10111 3
10112 27
10113 6
10114 2
10115 80
10116 21
10117 9
10118 6
10119 5
10120 3
10121 27
10122 35
10123 5
10124 6
10125 3
10126 2
10127 31
10128 2
10129 2
10130 21
10131 21
10132 2
10133 26
10134 6
10135 6
10136 20
10137 13
10138 33
10139 59
10140 27
10141 26
10142 2
10143 89
10144 58
10145 92
10146 33
10147 63
10148 21
10149 17
10150 6
10151 3
10152 65
10153 21
10154 27
10155 6
10156 21
10157 20
10158 9
10159 2
10160 2
10161 34
10162 21
10163 65
10164 71
10165 3
10166 2
10167 54
10168 6
10169 9
10170 6
10171 5
10172 21
10173 9
10174 3
10175 44
10176 3
10177 63
10178 6
10179 6
10180 3
10181 6
10182 20
10183 2
10184 21
10185 5
10186 34
10187 9
10188 10
10189 33
10190 0
10191 3
10192 18
10193 3
10194 5
10195 9
10196 2
10197 31
10198 2
10199 33
10200 2
10201 83
10202 40
10203 5
10204 6
10205 27
10206 6
10207 3
10208 21
10209 3
10210 27
10211 3
10212 9
10213 27
10214 45
10215 5
10216 3
10217 55
10218 27
10219 2
10220 9
10221 3
10222 6
10223 5
10224 27
10225 9
10226 9
10227 23
10228 3
10229 5
10230 42
10231 9
10232 3
10233 21
10234 45
10235 6
10236 9
10237 6
10238 33
10239 2
10240 3
10241 87
10242 5
10243 6
10244 5
10245 2
10246 20
10247 9
10248 21
10249 5
10250 3
10251 65
10252 6
10253 1
10254 11
10255 5
10256 9
10257 3
10258 3
10259 5
10260 27
10261 3
10262 6
10263 2
10264 60
10265 3
10266 23
10267 6
10268 47
10269 54
10270 45
10271 6
10272 9
10273 2
10274 17
10275 6
10276 26
10277 9
10278 5
10279 16
10280 9
10281 3
10282 1
10283 8
10284 14
10285 37
10286 6
10287 21
10288 49
10289 2
10290 33
10291 2
10292 3
10293 80
10294 3
10295 6
10296 27
10297 38
10298 6
10299 53
10300 6
10301 55
10302 16
10303 2
10304 17
10305 5
10306 3
10307 9
10308 5
10309 6
10310 2
10311 5
10312 45
10313 9
10314 37
10315 34
10316 21
10317 5
10318 3
10319 0
10320 21
10321 3
10322 6
10323 17
10324 3
10325 27
10326 9
10327 6
10328 6
10329 21
10330 9
10331 1
10332 5
10333 6
10334 37
10335 33
10336 9
10337 25
10338 2
10339 6
10340 79
10341 0
10342 6
10343 9
10344 25
10345 27
10346 80
10347 13
10348 3
10349 6
10350 42
10351 21
10352 9
10353 3
10354 3
10355 40
10356 5
10357 8
10358 28
10359 62
10360 66
10361 9
10362 6
10363 5
10364 3
10365 6
10366 21
10367 58
10368 5
10369 3
10370 29
10371 40
10372 6
10373 21
10374 2
10375 53
10376 53
10377 20
10378 7
10379 9
10380 21
10381 17
10382 2
10383 27
10384 3
10385 2
10386 9
10387 66
10388 27
10389 34
10390 3
10391 2
10392 2
10393 23
10394 33
10395 27
10396 3
10397 3
10398 6
10399 21
10400 26
10401 9
10402 6
10403 53
10404 54
10405 3
10406 1
10407 47
10408 6
10409 9
10410 17
10411 9
10412 26
10413 6
10414 23
10415 9
10416 2
10417 3
10418 9
10419 27
10420 3
10421 6
10422 40
10423 71
10424 3
10425 27
10426 5
10427 27
10428 3
10429 71
10430 27
10431 44
10432 3
10433 5
10434 42
10435 5
10436 2
10437 9
10438 9
10439 27
10440 85
10441 15
10442 21
10443 5
10444 5
10445 6
10446 42
10447 9
10448 33
10449 17
10450 3
10451 23
10452 27
10453 17
10454 72
10455 5
10456 92
10457 3
10458 2
10459 6
10460 71
10461 69
10462 23
10463 21
10464 3
10465 6
10466 6
10467 27
10468 27
10469 53
10470 2
10471 2
10472 6
10473 2
10474 3
10475 26
10476 9
10477 6
10478 31
10479 73
10480 31
10481 7
10482 6
10483 2
10484 6
10485 19
10486 6
10487 27
10488 20
10489 6
10490 2
10491 34
10492 6
10493 2
10494 27
10495 15
10496 5
10497 2
10498 28
10499 3
10500 3
10501 9
10502 34
10503 16
10504 33
10505 9
10506 6
10507 2
10508 71
10509 21
10510 6
10511 70
10512 6
10513 81
10514 3
10515 27
10516 3
10517 47
10518 9
10519 92
10520 6
10521 6
10522 6
10523 3
10524 32
10525 27
10526 3
10527 21
10528 2
10529 11
10530 2
10531 21
10532 2
10533 3
10534 3
10535 72
10536 5
10537 31
10538 6
10539 5
10540 2
10541 83
10542 5
10543 5
10544 52
10545 3
10546 2
10547 50
10548 9
10549 6
10550 3
10551 76
10552 2
10553 58
10554 15
10555 6
10556 17
10557 6
10558 11
10559 4
10560 20
10561 3
10562 3
10563 6
10564 40
10565 71
10566 6
10567 3
10568 6
10569 2
10570 10
10571 17
10572 77
10573 23
10574 3
10575 67
10576 45
10577 91
10578 9
10579 3
10580 3
10581 42
10582 6
10583 55
10584 27
10585 6
10586 6
10587 5
10588 23
10589 73
10590 9
10591 6
10592 3
10593 21
10594 31
10595 4
10596 13
10597 11
10598 6
10599 2
10600 2
10601 6
10602 2
10603 27
10604 3
10605 6
10606 63
10607 60
10608 21
10609 2
10610 27
10611 65
10612 3
10613 2
10614 5
10615 65
10616 5
10617 34
10618 12
10619 3
10620 31
10621 6
10622 21
10623 6
10624 21
10625 3
10626 9
10627 1
10628 76
10629 5
10630 5
10631 3
10632 13
10633 27
10634 47
10635 6
10636 40
10637 10
10638 9
10639 72
10640 9
10641 7
10642 21
10643 26
10644 21
10645 69
10646 21
10647 2
10648 44
10649 31
10650 3
10651 76
10652 6
10653 3
10654 2
10655 34
10656 2
10657 3
10658 2
10659 45
10660 27
10661 0
10662 7
10663 3
10664 2
10665 33
10666 27
10667 6
10668 2
10669 3
10670 6
10671 5
10672 21
10673 47
10674 33
10675 63
10676 6
10677 2
10678 27
10679 9
10680 3
10681 6
10682 2
10683 2
10684 47
10685 37
10686 3
10687 5
10688 27
10689 6
10690 31
10691 6
10692 5
10693 33
10694 3
10695 80
10696 3
10697 34
10698 27
10699 49
10700 6
10701 9
10702 76
10703 3
10704 89
10705 2
10706 78
10707 48
10708 5
10709 9
10710 20
10711 6
10712 6
10713 21
10714 2
10715 27
10716 3
10717 27
10718 15
10719 2
10720 3
10721 9
10722 13
10723 2
10724 1
10725 44
10726 2
10727 3
10728 9
10729 42
10730 2
10731 9
10732 2
10733 33
10734 3
10735 18
10736 1
10737 21
10738 5
10739 9
10740 2
10741 5
10742 2
10743 63
10744 34
10745 51
10746 6
10747 9
10748 5
10749 17
10750 18
10751 27
10752 13
10753 27
10754 3
10755 87
10756 11
10757 3
10758 26
10759 9
10760 53
10761 21
10762 17
10763 46
10764 74
10765 3
10766 9
10767 33
10768 9
10769 26
10770 51
10771 21
10772 9
10773 20
10774 2
10775 2
10776 26
10777 47
10778 20
10779 77
10780 6
10781 60
10782 2
10783 15
10784 9
10785 34
10786 3
10787 2
10788 71
10789 6
10790 17
10791 2
10792 5
10793 15
10794 51
10795 3
10796 2
10797 5
10798 2
10799 87
10800 9
10801 67
10802 2
10803 33
10804 63
10805 9
10806 68
10807 3
10808 5
10809 9
10810 70
10811 9
10812 39
10813 3
10814 9
10815 9
10816 66
10817 2
10818 23
10819 3
10820 45
10821 23
10822 5
10823 35
10824 33
10825 2
10826 6
10827 9
10828 26
10829 57
10830 5
10831 6
10832 44
10833 2
10834 6
10835 25
10836 33
10837 3
10838 38
10839 14
10840 6
10841 6
10842 63
10843 9
10844 5
10845 27
10846 17
10847 27
10848 9
10849 33
10850 25
10851 2
10852 22
10853 2
10854 5
10855 9
10856 6
10857 9
10858 27
10859 3
10860 3
10861 33
10862 6
10863 16
10864 6
10865 3
10866 9
10867 6
10868 30
10869 2
10870 6
10871 9
10872 35
10873 1
10874 6
10875 21
10876 3
10877 42
10878 2
10879 2
10880 19
10881 6
10882 3
10883 3
10884 2
10885 46
10886 34
10887 27
10888 5
10889 9
10890 18
10891 13
10892 5
10893 37
10894 30
10895 2
10896 3
10897 3
10898 65
10899 74
10900 45
10901 10
10902 1
10903 5
10904 2
10905 28
10906 52
10907 3
10908 9
10909 2
10910 5
10911 27
10912 9
10913 9
10914 5
10915 9
10916 2
10917 28
10918 6
10919 5
10920 48
10921 14
10922 31
10923 0
10924 6
10925 3
10926 25
10927 77
10928 6
10929 27
10930 3
10931 6
10932 88
10933 21
10934 42
10935 3
10936 40
10937 2
10938 2
10939 21
10940 6
10941 27
10942 6
10943 27
10944 3
10945 38
10946 20
10947 2
10948 6
10949 33
10950 3
10951 5
10952 46
10953 5
10954 6
10955 3
10956 2
10957 18
10958 9
10959 3
10960 5
10961 27
10962 2
10963 3
10964 27
10965 53
10966 5
10967 6
10968 9
10969 27
10970 2
10971 56
10972 21
10973 2
10974 26
10975 9
10976 27
10977 28
10978 6
10979 20
10980 6
10981 3
10982 20
10983 64
10984 11
10985 0
10986 54
10987 20
10988 5
10989 5
10990 6
10991 2
10992 3
10993 6
10994 6
10995 21
10996 6
10997 6
10998 47
10999 17
11000 3
11001 6
11002 33
11003 0
11004 6
11005 9
11006 43
11007 8
11008 37
11009 3
11010 9
11011 21
11012 3
11013 9
11014 1
11015 3
11016 9
11017 30
11018 63
11019 87
11020 2
11021 3
11022 49
11023 9
11024 5
11025 6
11026 74
11027 27
11028 20
11029 17
11030 2
11031 9
11032 33
11033 9
11034 37
11035 6
11036 14
11037 6
11038 3
11039 1
11040 33
11041 21
11042 2
11043 3
11044 27
11045 10
11046 77
11047 33
11048 38
11049 6
11050 6
11051 3
11052 3
11053 9
11054 6
11055 5
11056 3
11057 2
11058 53
11059 52
11060 3
11061 57
11062 74
11063 45
11064 28
11065 9
11066 27
11067 6
11068 27
11069 19
11070 17
11071 27
11072 2
11073 21
11074 9
11075 9
11076 3
11077 6
11078 5
11079 6
11080 20
11081 53
11082 5
11083 80
11084 9
11085 2
11086 31
11087 10
11088 9
11089 27
11090 27
11091 25
11092 3
11093 6
11094 2
11095 53
11096 5
11097 2
11098 74
11099 37
11100 6
11101 3
11102 14
11103 5
11104 11
11105 2
11106 3
11107 9
11108 5
11109 3
11110 50
11111 46
11112 79
11113 31
11114 9
11115 66
11116 12
11117 6
11118 3
11119 17
11120 9
11121 35
11122 30
11123 33
11124 20
11125 6
11126 9
11127 6
11128 9
11129 44
11130 5
11131 9
11132 17
11133 37
11134 27
11135 6
11136 3
11137 13
11138 39
11139 47
11140 6
11141 3
11142 89
11143 2
11144 2
11145 9
11146 26
11147 3
11148 6
11149 47
11150 27
11151 5
11152 6
11153 6
11154 21
11155 79
11156 54
11157 3
11158 21
11159 17
11160 2
11161 9
11162 42
11163 2
11164 5
11165 2
11166 8
11167 3
11168 2
11169 11
11170 79
11171 2
11172 9
11173 2
11174 73
11175 0
11176 49
11177 33
11178 27
11179 21
11180 2
11181 6
11182 21
11183 21
11184 6
11185 6
11186 6
11187 13
11188 27
11189 65
11190 58
11191 3
11192 35
11193 9
11194 2
11195 0
11196 21
11197 27
11198 2
11199 9
11200 3
11201 6
11202 6
11203 5
11204 26
11205 43
11206 83
11207 2
11208 3
11209 9
11210 51
11211 8
11212 6
11213 5
11214 6
11215 6
11216 21
11217 3
11218 53
11219 9
11220 9
11221 85
11222 75
11223 2
11224 21
11225 2
11226 3
11227 82
11228 6
11229 0
11230 9
11231 21
11232 9
11233 11
11234 27
11235 2
11236 9
11237 63
11238 72
11239 6
11240 9
11241 59
11242 36
11243 6
11244 6
11245 6
11246 27
11247 2
11248 35
11249 21
11250 9
11251 6
11252 3
11253 66
11254 6
11255 9
11256 63
11257 47
11258 21
11259 77
11260 3
11261 8
11262 71
11263 27
11264 5
11265 74
11266 3
11267 10
11268 27
11269 3
11270 9
11271 48
11272 3
11273 2
11274 6
11275 81
11276 27
11277 76
11278 5
11279 9
11280 2
11281 6
11282 9
11283 6
11284 6
11285 3
11286 2
11287 21
11288 3
11289 14
11290 3
11291 3
11292 6
11293 21
11294 6
11295 21
11296 4
11297 83
11298 6
11299 5
11300 9
11301 2
11302 6
11303 9
11304 21
11305 54
11306 6
11307 5
11308 3
11309 6
11310 9
11311 3
11312 3
11313 54
11314 9
11315 51
11316 9
11317 0
11318 17
11319 9
11320 5
11321 9
11322 27
11323 9
11324 82
11325 2
11326 71
11327 6
11328 77
11329 2
11330 58
11331 35
11332 53
11333 20
11334 2
11335 3
11336 21
11337 21
11338 6
11339 9
11340 49
11341 2
11342 21
11343 2
11344 17
11345 47
11346 9
11347 2
11348 9
11349 2
11350 3
11351 27
11352 13
11353 9
11354 55
11355 47
11356 3
11357 47
11358 77
11359 3
11360 31
11361 2
11362 6
11363 9
11364 8
11365 42
11366 9
11367 27
11368 6
11369 6
11370 2
11371 41
11372 58
11373 10
11374 6
11375 21
11376 44
11377 21
11378 3
11379 31
11380 33
11381 3
11382 42
11383 2
11384 48
11385 2
11386 6
11387 6
11388 21
11389 5
11390 2
11391 35
11392 33
11393 62
11394 53
11395 27
11396 78
11397 74
11398 5
11399 84
11400 27
11401 21
11402 9
11403 9
11404 3
11405 33
11406 9
11407 3
11408 5
11409 27
11410 47
11411 61
11412 26
11413 44
11414 3
11415 3
11416 3
11417 2
11418 71
11419 3
11420 3
11421 6
11422 27
11423 63
11424 27
11425 28
11426 21
11427 3
11428 33
11429 3
11430 1
11431 21
11432 1
11433 17
11434 21
11435 28
11436 23
11437 2
11438 13
11439 5
11440 24
11441 21
11442 5
11443 9
11444 38
11445 3
11446 55
11447 2
11448 9
11449 3
11450 35
11451 26
11452 0
11453 3
11454 74
11455 12
11456 5
11457 8
11458 26
11459 26
11460 31
11461 6
11462 23
11463 77
11464 6
11465 27
11466 33
11467 43
11468 21
11469 53
11470 89
11471 21
11472 27
11473 66
11474 6
11475 3
11476 76
11477 3
11478 6
11479 66
11480 26
11481 6
11482 2
11483 17
11484 60
11485 6
11486 9
11487 37
11488 6
11489 10
11490 35
11491 20
11492 5
11493 2
11494 9
11495 6
11496 3
11497 2
11498 4
11499 6
11500 28
11501 9
11502 33
11503 2
11504 6
11505 5
11506 6
11507 2
11508 9
11509 9
11510 33
11511 27
11512 3
11513 9
11514 9
11515 27
11516 3
11517 6
11518 21
11519 3
11520 15
11521 17
11522 5
11523 33
11524 13
11525 44
11526 5
11527 23
11528 12
11529 3
11530 33
11531 3
11532 58
11533 3
11534 2
11535 2
11536 69
11537 68
11538 24
11539 6
11540 6
11541 18
11542 6
11543 20
11544 83
11545 6
11546 32
11547 6
11548 36
11549 6
11550 21
11551 9
11552 34
11553 37
11554 6
11555 6
11556 2
11557 2
11558 3
11559 6
11560 6
11561 2
11562 3
11563 46
11564 9
11565 66
11566 3
11567 27
11568 71
11569 6
11570 21
11571 9
11572 33
11573 21
11574 2
11575 5
11576 2
11577 58
11578 2
11579 35
11580 9
11581 6
11582 18
11583 70
11584 37
11585 36
11586 31
11587 73
11588 21
11589 20
11590 48
11591 21
11592 0
11593 5
11594 71
11595 20
11596 0
11597 21
11598 60
11599 71
11600 80
11601 5
11602 3
11603 16
11604 3
11605 2
11606 2
11607 2
11608 89
11609 42
11610 6
11611 6
11612 21
11613 6
11614 23
11615 17
11616 26
11617 27
11618 3
11619 3
11620 31
11621 3
11622 3
11623 3
11624 2
11625 3
11626 27
11627 3
11628 31
11629 3
11630 6
11631 16
11632 84
11633 21
11634 26
11635 3
11636 27
11637 3
11638 12
11639 76
11640 21
11641 3
11642 54
11643 38
11644 27
11645 6
11646 21
11647 47
11648 13
11649 9
11650 53
11651 21
11652 2
11653 6
11654 63
11655 6
11656 65
11657 5
11658 6
11659 6
11660 46
11661 9
11662 26
11663 6
11664 3
11665 27
11666 23
11667 3
11668 21
11669 71
11670 6
11671 27
11672 6
11673 27
11674 9
11675 9
11676 76
11677 77
11678 21
11679 5
11680 2
11681 9
11682 9
11683 21
11684 71
11685 6
11686 5
11687 35
11688 38
11689 42
11690 2
11691 9
11692 14
11693 27
11694 28
11695 9
11696 21
11697 69
11698 3
11699 5
11700 89
11701 9
11702 27
11703 35
11704 0
11705 6
11706 21
11707 6
11708 72
11709 71
11710 21
11711 9
11712 2
11713 21
11714 9
11715 21
11716 2
11717 2
11718 2
11719 13
11720 6
11721 33
11722 0
11723 26
11724 6
11725 3
11726 9
11727 48
11728 3
11729 2
11730 6
11731 2
11732 6
11733 21
11734 6
11735 27
11736 12
11737 2
11738 9
11739 21
11740 89
11741 77
11742 6
11743 27
11744 9
11745 53
11746 31
11747 5
11748 8
11749 9
11750 2
11751 3
11752 72
11753 3
11754 33
11755 3
11756 28
11757 14
11758 17
11759 83
11760 3
11761 21
11762 6
11763 57
11764 2
11765 31
11766 6
11767 21
11768 27
11769 27
11770 21
11771 86
11772 40
11773 2
11774 20
11775 3
11776 9
11777 84
11778 34
11779 3
11780 27
11781 3
11782 9
11783 33
11784 1
11785 21
11786 35
11787 3
11788 6
11789 21
11790 11
11791 2
11792 21
11793 21
11794 3
11795 20
11796 38
11797 21
11798 6
11799 8
11800 33
11801 17
11802 6
11803 2
11804 26
11805 6
11806 5
11807 2
11808 18
11809 6
11810 23
11811 73
11812 14
11813 26
11814 9
11815 3
11816 6
11817 2
11818 21
11819 6
11820 75
11821 27
11822 3
11823 71
11824 3
11825 33
11826 9
11827 31
11828 3
11829 33
11830 9
11831 9
11832 5
11833 2
11834 3
11835 5
11836 78
11837 74
11838 3
11839 77
11840 21
11841 27
11842 42
11843 3
11844 2
11845 5
11846 3
11847 2
11848 5
11849 9
11850 9
11851 26
11852 5
11853 2
11854 5
11855 58
11856 9
11857 9
11858 64
11859 21
11860 3
11861 3
11862 5
11863 9
11864 33
11865 9
11866 3
11867 8
11868 9
11869 9
11870 2
11871 26
11872 4
11873 9
11874 4
11875 5
11876 9
11877 9
11878 6
11879 21
11880 42
11881 65
11882 6
11883 9
11884 9
11885 53
11886 6
11887 5
11888 3
11889 63
11890 36
11891 36
11892 65
11893 6
11894 6
11895 26
11896 5
11897 51
11898 20
11899 21
11900 17
11901 2
11902 28
11903 2
11904 9
11905 55
11906 6
11907 72
11908 5
11909 1
11910 9
11911 38
11912 3
11913 9
11914 5
11915 21
11916 9
11917 3
11918 17
11919 9
11920 3
11921 4
11922 2
11923 9
11924 21
11925 84
11926 3
11927 0
11928 2
11929 20
11930 9
11931 31
11932 3
11933 9
11934 3
11935 2
11936 31
11937 17
11938 58
11939 4
11940 21
11941 6
11942 2
11943 5
11944 3
11945 9
11946 2
11947 2
11948 2
11949 63
11950 3
11951 9
11952 17
11953 3
11954 9
11955 21
11956 9
11957 26
11958 16
11959 25
11960 6
11961 44
11962 2
11963 33
11964 3
11965 5
11966 2
11967 2
11968 3
11969 21
11970 20
11971 8
11972 3
11973 21
11974 27
11975 0
11976 17
11977 3
11978 71
11979 14
11980 77
11981 6
11982 9
11983 6
11984 9
11985 4
11986 3
11987 8
11988 6
11989 3
11990 3
11991 2
11992 21
11993 5
11994 9
11995 2
11996 6
11997 2
11998 44
11999 17
12000 26
12001 28
12002 2
12003 63
12004 3
12005 5
12006 2
12007 3
12008 2
12009 9
12010 9
12011 5
12012 5
12013 2
12014 75
12015 3
12016 9
12017 2
12018 3
12019 75
12020 2
12021 57
12022 34
12023 3
12024 3
12025 6
12026 6
12027 2
12028 33
12029 17
12030 6
12031 9
12032 21
12033 24
12034 37
12035 27
12036 6
12037 33
12038 3
12039 63
12040 35
12041 6
12042 53
12043 36
12044 6
12045 9
12046 27
12047 21
12048 23
12049 17
12050 27
12051 9
12052 27
12053 17
12054 8
12055 8
12056 9
12057 6
12058 9
12059 6
12060 3
12061 3
12062 3
12063 6
12064 6
12065 5
12066 5
12067 9
12068 6
12069 6
12070 5
12071 47
12072 2
12073 6
12074 6
12075 48
12076 2
12077 72
12078 9
12079 28
12080 80
12081 5
12082 6
12083 48
12084 6
12085 9
12086 69
12087 17
12088 2
12089 2
12090 2
12091 20
12092 8
12093 47
12094 3
12095 87
12096 6
12097 3
12098 9
12099 9
12100 34
12101 3
12102 83
12103 5
12104 5
12105 5
12106 55
12107 20
12108 3
12109 3
12110 6
12111 1
12112 5
12113 87
12114 27
12115 2
12116 6
12117 3
12118 53
12119 11
12120 5
12121 5
12122 6
12123 21
12124 3
12125 3
12126 33
12127 3
12128 2
12129 57
12130 6
12131 9
12132 47
12133 41
12134 9
12135 2
12136 33
12137 3
12138 42
12139 37
12140 2
12141 2
12142 16
12143 6
12144 5
12145 6
12146 17
12147 49
12148 26
12149 2
12150 9
12151 2
12152 6
12153 2
12154 80
12155 44
12156 5
12157 3
12158 9
12159 6
12160 3
12161 2
12162 5
12163 2
12164 3
12165 6
12166 9
12167 45
12168 26
12169 3
12170 6
12171 33
12172 57
12173 65
12174 5
12175 2
12176 13
12177 70
12178 9
12179 9
12180 44
12181 66
12182 5
12183 21
12184 26
12185 6
12186 9
12187 58
12188 0
12189 3
12190 29
12191 80
12192 3
12193 5
12194 37
12195 55
12196 2
12197 6
12198 5
12199 77
12200 24
12201 2
12202 53
12203 63
12204 2
12205 6
12206 21
12207 3
12208 9
12209 6
12210 5
12211 6
12212 78
12213 3
12214 44
12215 6
12216 9
12217 3
12218 63
12219 21
12220 2
12221 34
12222 3
12223 2
12224 6
12225 21
12226 9
12227 17
12228 3
12229 5
12230 6
12231 13
12232 6
12233 9
12234 6
12235 9
12236 3
12237 27
12238 26
12239 6
12240 80
12241 21
12242 4
12243 26
12244 2
12245 19
12246 9
12247 6
12248 2
12249 3
12250 71
12251 17
12252 21
12253 5
12254 37
12255 6
12256 28
12257 45
12258 5
12259 27
12260 6
12261 48
12262 9
12263 5
12264 5
12265 80
12266 78
12267 9
12268 21
12269 21
12270 6
12271 9
12272 6
12273 37
12274 24
12275 9
12276 37
12277 42
12278 6
12279 5
12280 30
12281 6
12282 21
12283 65
12284 37
12285 3
12286 2
12287 78
12288 3
12289 0
12290 21
12291 2
12292 33
12293 26
12294 17
12295 34
12296 28
12297 50
12298 16
12299 42
12300 54
12301 3
12302 6
12303 13
12304 27
12305 20
12306 6
12307 3
12308 65
12309 23
12310 6
12311 71
12312 4
12313 17
12314 14
12315 3
12316 5
12317 43
12318 2
12319 2
12320 63
12321 2
12322 31
12323 27
12324 6
12325 63
12326 89
12327 53
12328 17
12329 3
12330 77
12331 26
12332 6
12333 11
12334 6
12335 71
12336 9
12337 1
12338 3
12339 5
12340 2
12341 33
12342 3
12343 3
12344 17
12345 3
12346 9
12347 2
12348 6
12349 6
12350 6
12351 3
12352 27
12353 3
12354 2
12355 3
12356 28
12357 9
12358 2
12359 2
12360 17
12361 77
12362 13
12363 6
12364 2
12365 3
12366 3
12367 27
12368 25
12369 6
12370 27
12371 6
12372 77
12373 27
12374 5
12375 5
12376 6
12377 3
12378 78
12379 35
12380 21
12381 33
12382 2
12383 2
12384 71
12385 27
12386 5
12387 70
12388 9
12389 77
12390 47
12391 21
12392 35
12393 65
12394 78
12395 44
12396 27
12397 63
12398 20
12399 9
12400 33
12401 3
12402 2
12403 48
12404 12
12405 9
12406 2
12407 3
12408 75
12409 5
12410 2
12411 1
12412 32
12413 2
12414 5
12415 6
12416 23
12417 6
12418 17
12419 9
12420 26
12421 27
12422 9
12423 3
12424 9
12425 3
12426 1
12427 48
12428 3
12429 27
12430 6
12431 3
12432 6
12433 6
12434 6
12435 2
12436 25
12437 33
12438 5
12439 6
12440 2
12441 9
12442 40
12443 6
12444 9
12445 1
12446 3
12447 27
12448 6
12449 3
12450 6
12451 2
12452 3
12453 2
12454 17
12455 34
12456 21
12457 3
12458 3
12459 15
12460 3
12461 20
12462 5
12463 1
12464 31
12465 2
12466 27
12467 31
12468 18
12469 28
12470 3
12471 5
12472 6
12473 9
12474 3
12475 3
12476 9
12477 25
12478 26
12479 9
12480 9
12481 2
12482 11
12483 2
12484 18
12485 6
12486 1
12487 21
12488 5
12489 16
12490 5
12491 47
12492 3
12493 1
12494 9
12495 31
12496 3
12497 22
12498 21
12499 2
12500 48
12501 2
12502 21
12503 16
12504 6
12505 27
12506 1
12507 80
12508 40
12509 3
12510 6
12511 19
12512 80
12513 33
12514 58
12515 6
12516 3
12517 47
12518 26
12519 53
12520 9
12521 3
12522 71
12523 5
12524 5
12525 6
12526 6
12527 28
12528 1
12529 9
12530 9
12531 3
12532 3
12533 28
12534 34
12535 3
12536 3
12537 35
12538 79
12539 13
12540 38
12541 27
12542 65
12543 27
12544 6
12545 6
12546 20
12547 26
12548 90
12549 5
12550 74
12551 6
12552 9
12553 3
12554 55
12555 71
12556 2
12557 35
12558 3
12559 25
12560 27
12561 3
12562 6
12563 21
12564 5
12565 71
12566 9
12567 71
12568 13
12569 3
12570 13
12571 28
12572 2
12573 27
12574 5
12575 3
12576 2
12577 2
12578 9
12579 3
12580 0
12581 84
12582 21
12583 5
12584 2
12585 30
12586 21
12587 2
12588 47
12589 33
12590 27
12591 27
12592 5
12593 6
12594 79
12595 6
12596 2
12597 27
12598 2
12599 9
12600 27
12601 21
12602 2
12603 55
12604 92
12605 17
12606 53
12607 27
12608 21
12609 37
12610 3
12611 0
12612 3
12613 46
12614 5
12615 65
12616 9
12617 86
12618 8
12619 5
12620 40
12621 2
12622 5
12623 38
12624 20
12625 6
12626 64
12627 3
12628 6
12629 26
12630 27
12631 65
12632 71
12633 9
12634 26
12635 63
12636 27
12637 27
12638 3
12639 73
12640 6
12641 14
12642 3
12643 6
12644 3
12645 3
12646 6
12647 27
12648 46
12649 3
12650 9
12651 0
12652 27
12653 13
12654 18
12655 5
12656 6
12657 39
12658 6
12659 21
12660 2
12661 3
12662 31
12663 12
12664 3
12665 2
12666 24
12667 33
12668 21
12669 23
12670 5
12671 28
12672 71
12673 2
12674 5
12675 21
12676 27
12677 21
12678 90
12679 70
12680 3
12681 27
12682 26
12683 6
12684 2
12685 3
12686 3
12687 6
12688 8
12689 3
12690 31
12691 83
12692 40
12693 9
12694 33
12695 21
12696 37
12697 2
12698 2
12699 42
12700 9
12701 42
12702 91
12703 2
12704 3
12705 27
12706 2
12707 5
12708 26
12709 3
12710 65
12711 79
12712 2
12713 2
12714 9
12715 9
12716 51
12717 33
12718 9
12719 28
12720 5
12721 35
12722 3
12723 5
12724 2
12725 21
12726 5
12727 6
12728 16
12729 42
12730 2
12731 24
12732 6
12733 71
12734 12
12735 2
12736 6
12737 3
12738 20
12739 6
12740 53
12741 2
12742 21
12743 2
12744 2
12745 3
12746 2
12747 2
12748 9
12749 52
12750 54
12751 21
12752 5
12753 33
12754 9
12755 11
12756 25
12757 6
12758 3
12759 5
12760 3
12761 18
12762 3
12763 23
12764 6
12765 5
12766 6
12767 71
12768 27
12769 5
12770 27
12771 63
12772 20
12773 31
12774 9
12775 9
12776 6
12777 2
12778 2
12779 1
12780 2
12781 9
12782 6
12783 3
12784 2
12785 21
12786 73
12787 2
12788 6
12789 71
12790 6
12791 39
12792 89
12793 27
12794 9
12795 3
12796 3
12797 9
12798 76
12799 3
12800 26
12801 3
12802 6
12803 2
12804 12
12805 7
12806 3
12807 3
12808 6
12809 9
12810 5
12811 2
12812 36
12813 49
12814 6
12815 21
12816 37
12817 6
12818 2
12819 38
12820 9
12821 48
12822 6
12823 27
12824 2
12825 9
12826 8
12827 21
12828 17
12829 21
12830 9
12831 5
12832 26
12833 6
12834 35
12835 27
12836 2
12837 5
12838 3
12839 5
12840 2
12841 6
12842 2
12843 4
12844 66
12845 6
12846 5
12847 25
12848 4
12849 27
12850 8
12851 27
12852 34
12853 3
12854 83
12855 2
12856 9
12857 33
12858 71
12859 21
12860 53
12861 6
12862 34
12863 33
12864 26
12865 27
12866 5
12867 2
12868 17
12869 3
12870 21
12871 6
12872 6
12873 37
12874 16
12875 2
12876 23
12877 6
12878 3
12879 21
12880 9
12881 21
12882 21
12883 2
12884 28
12885 26
12886 80
12887 17
12888 11
12889 26
12890 54
12891 6
12892 20
12893 6
12894 48
12895 3
12896 78
12897 3
12898 34
12899 24
12900 51
12901 49
12902 33
12903 9
12904 1
12905 6
12906 2
12907 11
12908 3
12909 26
12910 77
12911 2
12912 9
12913 25
12914 9
12915 21
12916 2
12917 6
12918 46
12919 9
12920 27
12921 9
12922 2
12923 55
12924 3
12925 6
12926 6
12927 3
12928 2
12929 27
12930 63
12931 45
12932 3
12933 28
12934 27
12935 21
12936 3
12937 2
12938 2
12939 21
12940 3
12941 3
12942 21
12943 12
12944 6
12945 6
12946 68
12947 3
12948 2
12949 6
12950 2
12951 3
12952 9
12953 9
12954 76
12955 6
12956 28
12957 3
12958 5
12959 5
12960 27
12961 21
12962 77
12963 6
12964 5
12965 3
12966 3
12967 3
12968 3
12969 0
12970 9
12971 2
12972 2
12973 9
12974 2
12975 20
12976 41
12977 5
12978 9
12979 3
12980 28
12981 9
12982 2
12983 9
12984 83
12985 26
12986 2
12987 3
12988 21
12989 6
12990 27
12991 5
12992 5
12993 11
12994 6
12995 54
12996 51
12997 3
12998 9
12999 3
13000 5
13001 27
13002 6
13003 79
13004 6
13005 28
13006 2
13007 52
13008 9
13009 9
13010 6
13011 5
13012 70
13013 5
13014 30
13015 9
13016 31
13017 27
13018 42
13019 83
13020 63
13021 5
13022 76
13023 27
13024 23
13025 6
13026 54
13027 2
13028 5
13029 27
13030 21
13031 3
13032 21
13033 3
13034 9
13035 17
13036 26
13037 3
13038 3
13039 1
13040 9
13041 3
13042 25
13043 31
13044 5
13045 21
13046 21
13047 85
13048 6
13049 5
13050 3
13051 21
13052 6
13053 6
13054 2
13055 73
13056 27
13057 18
13058 27
13059 5
13060 66
13061 3
13062 55
13063 9
13064 24
13065 21
13066 18
13067 3
13068 21
13069 9
13070 5
13071 1
13072 66
13073 20
13074 15
13075 9
13076 3
13077 3
13078 9
13079 2
13080 33
13081 66
13082 6
13083 26
13084 3
13085 9
13086 6
13087 27
13088 40
13089 13
13090 6
13091 9
13092 27
13093 51
13094 71
13095 3
13096 6
13097 27
13098 2
13099 33
13100 3
13101 6
13102 85
13103 3
13104 45
13105 71
13106 28
13107 21
13108 21
13109 2
13110 3
13111 16
13112 6
13113 72
13114 2
13115 13
13116 7
13117 23
13118 47
13119 3
13120 3
13121 6
13122 25
13123 5
13124 5
13125 49
13126 9
13127 3
13128 63
13129 9
13130 5
13131 5
13132 37
13133 3
13134 17
13135 9
13136 27
13137 5
13138 6
13139 2
13140 89
13141 74
13142 92
13143 9
13144 31
13145 27
13146 27
13147 3
13148 47
13149 5
13150 3
13151 27
13152 2
13153 75
13154 9
13155 5
13156 1
13157 6
13158 28
13159 80
13160 71
13161 9
13162 3
13163 6
13164 5
13165 9
13166 2
13167 6
13168 39
13169 40
13170 5
13171 6
13172 6
13173 27
13174 18
13175 5
13176 21
13177 2
13178 9
13179 3
13180 39
13181 55
13182 9
13183 3
13184 2
13185 33
13186 76
13187 6
13188 5
13189 6
13190 3
13191 2
13192 3
13193 2
13194 21
13195 25
13196 27
13197 3
13198 2
13199 3
13200 2
13201 3
13202 2
13203 6
13204 3
13205 7
13206 2
13207 78
13208 3
13209 2
13210 27
13211 2
13212 37
13213 31
13214 6
13215 2
13216 27
13217 3
13218 9
13219 27
13220 6
13221 9
13222 2
13223 27
13224 27
13225 52
13226 21
13227 9
13228 13
13229 4
13230 2
13231 33
13232 5
13233 64
13234 28
13235 5
13236 1
13237 3
13238 6
13239 2
13240 2
13241 33
13242 66
13243 23
13244 31
13245 3
13246 5
13247 6
13248 6
13249 9
13250 27
13251 33
13252 33
13253 6
13254 25
13255 13
13256 2
13257 2
13258 48
13259 3
13260 44
13261 6
13262 5
13263 14
13264 6
13265 55
13266 2
13267 6
13268 82
13269 2
13270 2
13271 67
13272 6
13273 5
13274 37
13275 26
13276 3
13277 18
13278 48
13279 71
13280 28
13281 9
13282 78
13283 14
13284 9
13285 2
13286 33
13287 3
13288 63
13289 58
13290 6
13291 18
13292 3
13293 3
13294 9
13295 78
13296 2
13297 56
13298 92
13299 9
13300 34
13301 5
13302 6
13303 6
13304 42
13305 2
13306 5
13307 6
13308 70
13309 27
13310 2
13311 3
13312 6
13313 40
13314 3
13315 16
13316 21
13317 3
13318 3
13319 2
13320 3
13321 74
13322 44
13323 3
13324 6
13325 53
13326 3
13327 71
13328 63
13329 45
13330 6
13331 1
13332 27
13333 9
13334 9
13335 21
13336 3
13337 76
13338 28
13339 3
13340 78
13341 23
13342 3
13343 6
13344 23
13345 9
13346 6
13347 5
13348 5
13349 2
13350 11
13351 5
13352 12
13353 6
13354 21
13355 71
13356 3
13357 12
13358 58
13359 26
13360 17
13361 10
13362 6
13363 6
13364 48
13365 13
13366 71
13367 9
13368 37
13369 3
13370 2
13371 35
13372 21
13373 27
13374 28
13375 21
13376 1
13377 15
13378 3
13379 9
13380 5
13381 17
13382 3
13383 9
13384 55
13385 3
13386 69
13387 3
13388 21
13389 2
13390 27
13391 21
13392 20
13393 53
13394 2
13395 3
13396 2
13397 28
13398 53
13399 6
13400 47
13401 6
13402 6
13403 9
13404 27
13405 6
13406 23
13407 9
13408 6
13409 2
13410 2
13411 9
13412 9
13413 3
13414 6
13415 24
13416 6
13417 27
13418 9
13419 3
13420 23
13421 72
13422 5
13423 3
13424 9
13425 70
13426 6
13427 3
13428 2
13429 6
13430 9
13431 6
13432 6
13433 6
13434 6
13435 37
13436 77
13437 9
13438 46
13439 5
13440 6
13441 62
13442 32
13443 6
13444 21
13445 15
13446 3
13447 6
13448 16
13449 2
13450 21
13451 51
13452 2
13453 53
13454 5
13455 21
13456 35
13457 35
13458 2
13459 21
13460 3
13461 53
13462 6
13463 2
13464 3
13465 6
13466 23
13467 89
13468 30
13469 35
13470 69
13471 89
13472 66
13473 21
13474 6
13475 20
13476 20
13477 70
13478 2
13479 40
13480 71
13481 33
13482 47
13483 21
13484 84
13485 3
13486 9
13487 27
13488 42
13489 6
13490 55
13491 37
13492 6
13493 55
13494 6
13495 34
13496 6
13497 31
13498 9
13499 9
13500 12
13501 21
13502 2
13503 6
13504 27
13505 6
13506 21
13507 38
13508 2
13509 2
13510 0
13511 5
13512 6
13513 9
13514 5
13515 63
13516 3
13517 63
13518 77
13519 27
13520 21
13521 6
13522 3
13523 2
13524 3
13525 9
13526 42
13527 3
13528 6
13529 20
13530 48
13531 6
13532 3
13533 3
13534 27
13535 39
13536 3
13537 21
13538 3
13539 9
13540 46
13541 2
13542 3
13543 6
13544 23
13545 6
13546 68
13547 9
13548 6
13549 2
13550 20
13551 5
13552 5
13553 2
13554 6
13555 27
13556 17
13557 6
13558 3
13559 2
13560 2
13561 80
13562 48
13563 21
13564 2
13565 13
13566 25
13567 34
13568 19
13569 63
13570 6
13571 6
13572 6
13573 2
13574 2
13575 6
13576 2
13577 27
13578 9
13579 6
13580 9
13581 9
13582 33
13583 9
13584 27
13585 71
13586 63
13587 26
13588 6
13589 9
13590 0
13591 17
13592 6
13593 9
13594 2
13595 5
13596 3
13597 33
13598 0
13599 6
13600 6
13601 6
13602 21
13603 38
13604 33
13605 26
13606 5
13607 5
13608 5
13609 5
13610 6
13611 9
13612 10
13613 5
13614 2
13615 21
13616 5
13617 9
13618 40
13619 2
13620 67
13621 37
13622 27
13623 2
13624 5
13625 57
13626 37
13627 9
13628 3
13629 47
13630 13
13631 16
13632 34
13633 6
13634 33
13635 6
13636 5
13637 71
13638 9
13639 6
13640 6
13641 60
13642 40
13643 27
13644 9
13645 27
13646 21
13647 17
13648 9
13649 51
13650 5
13651 77
13652 6
13653 37
13654 8
13655 2
13656 5
13657 48
13658 6
13659 6
13660 9
13661 3
13662 6
13663 9
13664 10
13665 21
13666 6
13667 28
13668 87
13669 9
13670 3
13671 31
13672 3
13673 2
13674 5
13675 17
13676 46
13677 7
13678 2
13679 28
13680 3
13681 84
13682 9
13683 27
13684 6
13685 21
13686 21
13687 6
13688 6
13689 5
13690 38
13691 42
13692 6
13693 9
13694 61
13695 31
13696 3
13697 21
13698 3
13699 26
13700 25
13701 3
13702 28
13703 3
13704 56
13705 9
13706 21
13707 6
13708 44
13709 9
13710 3
13711 6
13712 2
13713 3
13714 28
13715 11
13716 9
13717 6
13718 1
13719 2
13720 21
13721 9
13722 3
13723 3
13724 35
13725 6
13726 6
13727 2
13728 9
13729 26
13730 27
13731 5
13732 5
13733 6
13734 63
13735 9
13736 9
13737 3
13738 26
13739 6
13740 36
13741 21
13742 27
13743 6
13744 6
13745 2
13746 3
13747 53
13748 2
13749 53
13750 3
13751 3
13752 3
13753 6
13754 77
13755 21
13756 3
13757 20
13758 2
13759 21
13760 21
13761 28
13762 6
13763 21
13764 37
13765 6
13766 8
13767 27
13768 33
13769 2
13770 9
13771 2
13772 2
13773 55
13774 2
13775 26
13776 17
13777 2
13778 6
13779 13
13780 6
13781 6
13782 33
13783 57
13784 9
13785 26
13786 23
13787 90
13788 75
13789 20
13790 5
13791 3
13792 77
13793 2
13794 6
13795 33
13796 6
13797 19
13798 33
13799 3
13800 21
13801 27
13802 6
13803 2
13804 27
13805 63
13806 37
13807 69
13808 6
13809 76
13810 63
13811 6
13812 3
13813 46
13814 9
13815 14
13816 3
13817 54
13818 9
13819 5
13820 2
13821 71
13822 21
13823 55
13824 6
13825 67
13826 5
13827 2
13828 5
13829 2
13830 27
13831 9
13832 2
13833 31
13834 20
13835 6
13836 2
13837 33
13838 5
13839 9
13840 2
13841 80
13842 18
13843 21
13844 5
13845 80
13846 21
13847 2
13848 6
13849 2
13850 2
13851 2
13852 3
13853 2
13854 2
13855 3
13856 9
13857 47
13858 5
13859 3
13860 5
13861 83
