0 0
1 1
2 1
3 2
4 3
5 4
6 2
7 5
8 6
9 7
10 8
11 9
12 10
13 11
14 12
15 13
16 14
17 15
18 16
19 17
20 5
21 17
22 1
23 18
24 3
25 19
26 20
27 21
28 5
29 1
30 22
31 9
32 23
33 24
34 25
35 9
36 12
37 26
38 27
39 25
40 7
41 22
42 3
43 28
44 18
45 29
46 0
47 30
48 31
49 0
50 23
51 9
52 32
53 33
54 7
55 34
56 35
57 36
58 2
59 37
60 38
61 39
62 11
63 40
64 41
65 42
66 43
67 44
68 11
69 36
70 45
71 13
72 46
73 47
74 31
75 36
76 48
77 49
78 50
79 3
80 51
81 52
82 53
83 54
84 25
85 46
86 20
87 11
88 55
89 25
90 56
91 11
92 57
93 58
94 59
95 60
96 61
97 62
98 63
99 43
100 64
101 50
102 65
103 58
104 50
105 66
106 43
107 7
108 35
109 67
110 45
111 68
112 69
113 70
114 71
115 53
116 5
117 64
118 9
119 28
120 41
121 72
122 2
123 26
124 16
125 54
126 46
127 73
128 31
129 36
130 50
131 6
132 29
133 17
134 74
135 39
136 56
137 71
138 57
139 73
140 20
141 75
142 60
143 48
144 18
145 36
146 10
147 33
148 64
149 58
150 13
151 18
152 44
153 76
154 26
155 70
156 18
157 32
158 18
159 57
160 75
161 11
162 17
163 32
164 25
165 24
166 64
167 77
168 28
169 71
170 15
171 78
172 79
173 76
174 71
175 64
176 9
177 72
178 44
179 16
180 20
181 35
182 63
183 70
184 80
185 43
186 65
187 75
188 20
189 9
190 80
191 71
192 75
193 72
194 60
195 3
196 38
197 38
198 20
199 33
200 77
201 11
202 14
203 71
204 19
205 14
206 77
207 81
208 20
209 17
210 15
211 36
212 43
213 36
214 44
215 38
216 61
217 28
218 48
219 50
220 34
221 69
222 52
223 82
224 83
225 57
226 61
227 35
228 16
229 21
230 40
231 41
232 57
233 32
234 84
235 81
236 59
237 42
238 41
239 67
240 62
241 45
242 51
243 71
244 70
245 56
246 37
247 45
248 1
249 33
250 51
251 40
252 70
253 81
254 76
255 85
256 77
257 11
258 58
259 55
260 8
261 64
262 73
263 64
264 58
265 7
266 58
267 81
268 14
269 86
270 36
271 28
272 79
273 15
274 61
275 82
276 31
277 20
278 9
279 33
280 24
281 48
282 0
283 35
284 69
285 29
286 53
287 29
288 1
289 66
290 27
291 15
292 45
293 75
294 41
295 20
296 45
297 33
298 76
299 18
300 36
301 11
302 31
303 16
304 57
305 24
306 84
307 87
308 17
309 31
310 57
311 3
312 79
313 48
314 5
315 53
316 12
317 36
318 51
319 36
320 70
321 52
322 18
323 14
324 72
325 31
326 43
327 76
328 73
329 36
330 31
331 2
332 20
333 22
334 88
335 70
336 34
337 55
338 47
339 20
340 65
341 62
342 79
343 46
344 55
345 41
346 36
347 55
348 82
349 68
350 52
351 20
352 67
353 81
354 12
355 23
356 2
357 5
358 53
359 7
360 27
361 83
362 26
363 86
364 15
365 5
366 63
367 81
368 57
369 40
370 83
371 9
372 16
373 55
374 79
375 27
376 45
377 12
378 42
379 57
380 20
381 23
382 31
383 53
384 56
385 81
386 79
387 1
388 2
389 2
390 26
391 3
392 47
393 19
394 22
395 16
396 51
397 19
398 83
399 69
400 61
401 58
402 32
403 9
404 5
405 31
406 79
407 9
408 62
409 75
410 76
411 51
412 81
413 36
414 58
415 28
416 20
417 67
418 21
419 32
420 83
421 64
422 74
423 71
424 24
425 83
426 84
427 1
428 26
429 19
430 69
431 23
432 3
433 9
434 23
435 44
436 29
437 73
438 12
439 47
440 44
441 73
442 39
443 11
444 58
445 49
446 34
447 18
448 10
449 58
450 15
451 82
452 10
453 3
454 24
455 55
456 37
457 18
458 34
459 72
460 20
461 62
462 64
463 77
464 81
465 69
466 66
467 52
468 6
469 4
470 77
471 87
472 89
473 19
474 78
475 6
476 77
477 55
478 15
479 15
480 86
481 47
482 39
483 16
484 72
485 48
486 82
487 4
488 70
489 69
490 81
491 1
492 48
493 39
494 84
495 67
496 45
497 63
498 45
499 54
500 38
501 45
502 31
503 87
504 58
505 48
506 68
507 22
508 40
509 39
510 30
511 69
512 89
513 75
514 54
515 66
516 50
517 55
518 29
519 60
520 11
521 57
522 75
523 40
524 64
525 33
526 5
527 59
528 40
529 50
530 14
531 29
532 7
533 6
534 5
535 51
536 4
537 69
538 72
539 22
540 63
541 49
542 65
543 79
544 16
545 21
546 9
547 17
548 23
549 57
550 5
551 21
552 44
553 73
554 80
555 28
556 69
557 54
558 65
559 25
560 18
561 61
562 34
563 32
564 46
565 88
566 41
567 37
568 51
569 30
570 70
571 68
572 76
573 20
574 24
575 22
576 29
577 55
578 44
579 70
580 71
581 76
582 57
583 1
584 16
585 34
586 7
587 45
588 13
589 1
590 23
591 70
592 43
593 38
594 9
595 69
596 62
597 37
598 33
599 31
600 47
601 5
602 11
603 77
604 30
605 35
606 31
607 60
608 0
609 27
610 76
611 77
612 42
613 38
614 42
615 68
616 40
617 26
618 65
619 43
620 6
621 42
622 86
623 50
624 75
625 75
626 54
627 45
628 5
629 86
630 3
631 52
632 28
633 68
634 64
635 1
636 17
637 37
638 50
639 86
640 10
641 16
642 60
643 31
644 29
645 55
646 14
647 11
648 4
649 6
650 77
651 53
652 87
653 39
654 28
655 32
656 57
657 15
658 26
659 21
660 39
661 43
662 6
663 38
664 88
665 45
666 1
667 38
668 63
669 6
670 72
671 72
672 53
673 58
674 35
675 85
676 43
677 4
678 5
679 59
680 64
681 16
682 8
683 39
684 18
685 32
686 9
687 28
688 84
689 88
690 46
691 0
692 84
693 56
694 26
695 82
696 32
697 33
698 86
699 80
700 32
701 81
702 75
703 22
704 78
705 5
706 24
707 77
708 69
709 16
710 79
711 12
712 67
713 84
714 39
715 36
716 1
717 66
718 8
719 61
720 5
721 70
722 51
723 31
724 68
725 71
726 86
727 73
728 41
729 36
730 16
731 35
732 31
733 26
734 64
735 18
736 84
737 31
738 38
739 42
740 58
741 20
742 30
743 60
744 41
745 15
746 33
747 42
748 79
749 19
750 53
751 0
752 34
753 56
754 38
755 47
756 54
757 59
758 25
759 51
760 12
761 81
762 76
763 14
764 43
765 3
766 50
767 77
768 76
769 39
770 12
771 30
772 64
773 87
774 39
775 45
776 17
777 82
778 15
779 11
780 43
781 4
782 51
783 42
784 4
785 58
786 68
787 69
788 34
789 37
790 75
791 16
792 69
793 58
794 76
795 64
796 61
797 37
798 16
799 8
800 54
801 39
802 39
803 65
804 42
805 77
806 23
807 81
808 63
809 38
810 45
811 70
812 35
813 64
814 73
815 28
816 59
817 65
818 76
819 40
820 6
821 20
822 66
823 89
824 72
825 1
826 65
827 11
828 76
829 75
830 74
831 5
832 14
833 11
834 56
835 69
836 4
837 17
838 2
839 57
840 20
841 78
842 68
843 82
844 22
845 68
846 17
847 72
848 52
849 31
850 52
851 18
852 62
853 39
854 20
855 24
856 12
857 34
858 52
859 43
860 51
861 69
862 8
863 9
864 0
865 85
866 81
867 1
868 75
869 47
870 39
871 70
872 48
873 68
874 79
875 0
876 22
877 70
878 69
879 58
880 7
881 48
882 61
883 90
884 61
885 3
886 75
887 48
888 89
889 63
890 84
891 31
892 9
893 75
894 1
895 51
896 79
897 35
898 78
899 56
900 23
901 15
902 76
903 56
904 54
905 47
906 59
907 19
908 74
909 33
910 15
911 21
912 30
913 5
914 77
915 5
916 72
917 52
918 16
919 11
920 69
921 68
922 24
923 63
924 12
925 45
926 5
927 79
928 33
929 49
930 29
931 56
932 8
933 18
934 76
935 5
936 90
937 56
938 5
939 55
940 28
941 54
942 35
943 43
944 19
945 72
946 79
947 25
948 65
949 61
950 2
951 42
952 36
953 63
954 88
955 34
956 63
957 81
958 45
959 65
960 11
961 61
962 1
963 18
964 25
965 3
966 61
967 16
968 28
969 32
970 30
971 28
972 46
973 70
974 26
975 81
976 35
977 78
978 66
979 28
980 83
981 89
982 63
983 17
984 84
985 16
986 81
987 63
988 75
989 73
990 83
991 72
992 63
993 25
994 84
995 14
996 51
997 34
998 36
999 81
1000 43
1001 11
1002 29
1003 6
1004 9
1005 17
1006 35
1007 59
1008 18
1009 66
1010 23
1011 37
1012 17
1013 16
1014 77
1015 17
1016 52
1017 75
1018 33
1019 21
1020 5
1021 53
1022 58
1023 5
1024 75
1025 30
1026 7
1027 41
1028 6
1029 31
1030 50
1031 5
1032 11
1033 22
1034 53
1035 25
1036 1
1037 52
1038 6
1039 24
1040 51
1041 63
1042 64
1043 62
1044 0
1045 74
1046 2
1047 64
1048 64
1049 6
1050 22
1051 45
1052 2
1053 70
1054 78
1055 57
1056 31
1057 40
1058 75
1059 28
1060 14
1061 5
1062 67
1063 9
1064 69
1065 13
1066 36
1067 22
1068 76
1069 82
1070 7
1071 38
1072 44
1073 28
1074 80
1075 86
1076 84
1077 39
1078 36
1079 32
1080 77
1081 17
1082 51
1083 4
1084 58
1085 70
1086 35
1087 35
1088 47
1089 86
1090 3
1091 80
1092 15
1093 55
1094 1
1095 41
1096 36
1097 48
1098 42
1099 2
1100 44
1101 74
1102 47
1103 84
1104 77
1105 62
1106 33
1107 39
1108 78
1109 43
1110 41
1111 39
1112 4
1113 49
1114 59
1115 18
1116 61
1117 20
1118 7
1119 66
1120 58
1121 47
1122 20
1123 50
1124 51
1125 90
1126 10
1127 77
1128 65
1129 17
1130 49
1131 25
1132 69
1133 24
1134 30
1135 90
1136 35
1137 64
1138 65
1139 54
1140 71
1141 79
1142 86
1143 45
1144 34
1145 6
1146 70
1147 40
1148 80
1149 42
1150 33
1151 56
1152 64
1153 4
1154 44
1155 56
1156 15
1157 18
1158 9
1159 31
1160 74
1161 79
1162 0
1163 73
1164 90
1165 66
1166 8
1167 53
1168 82
1169 50
1170 57
1171 79
1172 27
1173 26
1174 79
1175 83
1176 64
1177 33
1178 61
1179 76
1180 37
1181 19
1182 43
1183 64
1184 8
1185 69
1186 89
1187 20
1188 24
1189 36
1190 70
1191 61
1192 10
1193 9
1194 23
1195 50
1196 4
1197 12
1198 17
1199 37
1200 34
1201 5
1202 88
1203 38
1204 13
1205 81
1206 8
1207 5
1208 35
1209 53
1210 47
1211 28
1212 82
1213 55
1214 18
1215 6
1216 5
1217 56
1218 19
1219 81
1220 11
1221 88
1222 18
1223 80
1224 3
1225 65
1226 5
1227 61
1228 56
1229 55
1230 75
1231 67
1232 74
1233 40
1234 3
1235 34
1236 12
1237 18
1238 78
1239 39
1240 38
1241 71
1242 34
1243 56
1244 3
1245 18
1246 37
1247 70
1248 43
1249 36
1250 46
1251 36
1252 62
1253 17
1254 25
1255 12
1256 17
1257 19
1258 74
1259 31
1260 45
1261 73
1262 54
1263 4
1264 38
1265 87
1266 21
1267 74
1268 85
1269 9
1270 89
1271 52
1272 67
1273 68
1274 7
1275 85
1276 52
1277 17
1278 22
1279 49
1280 6
1281 20
1282 63
1283 25
1284 77
1285 70
1286 0
1287 45
1288 79
1289 33
1290 69
1291 23
1292 81
1293 29
1294 78
1295 25
1296 57
1297 45
1298 31
1299 18
1300 20
1301 58
1302 71
1303 20
1304 84
1305 1
1306 18
1307 54
1308 31
1309 77
1310 39
1311 77
1312 1
1313 18
1314 53
1315 57
1316 8
1317 83
1318 20
1319 6
1320 64
1321 28
1322 41
1323 69
1324 16
1325 87
1326 44
1327 13
1328 70
1329 44
1330 27
1331 25
1332 43
1333 53
1334 5
1335 65
1336 82
1337 38
1338 26
1339 10
1340 44
1341 81
1342 26
1343 0
1344 20
1345 17
1346 57
1347 35
1348 63
1349 71
1350 81
1351 40
1352 75
1353 38
1354 5
1355 31
1356 79
1357 83
1358 4
1359 75
1360 19
1361 46
1362 40
1363 71
1364 80
1365 61
1366 13
1367 64
1368 26
1369 7
1370 81
1371 76
1372 32
1373 65
1374 21
1375 85
1376 36
1377 61
1378 58
1379 72
1380 13
1381 0
1382 14
1383 45
1384 36
1385 23
1386 76
1387 73
1388 35
1389 55
1390 66
1391 2
1392 75
1393 20
1394 48
1395 79
1396 73
1397 31
1398 11
1399 88
1400 13
1401 33
1402 1
1403 76
1404 34
1405 61
1406 48
1407 12
1408 9
1409 9
1410 4
1411 65
1412 6
1413 13
1414 80
1415 38
1416 23
1417 11
1418 36
1419 38
1420 28
1421 23
1422 76
1423 55
1424 35
1425 6
1426 51
1427 16
1428 27
1429 73
1430 83
1431 22
1432 3
1433 90
1434 26
1435 57
1436 23
1437 46
1438 4
1439 68
1440 0
1441 48
1442 52
1443 36
1444 66
1445 48
1446 53
1447 86
1448 81
1449 55
1450 37
1451 37
1452 28
1453 18
1454 52
1455 36
1456 81
1457 48
1458 86
1459 37
1460 16
1461 19
1462 27
1463 29
1464 54
1465 4
1466 83
1467 47
1468 35
1469 19
1470 44
1471 4
1472 36
1473 27
1474 76
1475 84
1476 70
1477 17
1478 31
1479 15
1480 23
1481 9
1482 22
1483 84
1484 47
1485 5
1486 87
1487 5
1488 42
1489 59
1490 44
1491 1
1492 35
1493 43
1494 65
1495 48
1496 79
1497 59
1498 79
1499 29
1500 59
1501 51
1502 5
1503 24
1504 69
1505 15
1506 51
1507 77
1508 5
1509 82
1510 43
1511 45
1512 69
1513 70
1514 87
1515 31
1516 83
1517 34
1518 41
1519 72
1520 57
1521 86
1522 23
1523 2
1524 47
1525 14
1526 8
1527 13
1528 77
1529 20
1530 77
1531 39
1532 40
1533 0
1534 19
1535 51
1536 60
1537 16
1538 29
1539 20
1540 56
1541 31
1542 28
1543 87
1544 33
1545 3
1546 4
1547 28
1548 62
1549 37
1550 24
1551 47
1552 35
1553 7
1554 79
1555 61
1556 17
1557 52
1558 83
1559 9
1560 36
1561 35
1562 53
1563 14
1564 6
1565 82
1566 22
1567 2
1568 89
1569 64
1570 62
1571 53
1572 36
1573 88
1574 19
1575 23
1576 83
1577 17
1578 71
1579 45
1580 44
1581 26
1582 5
1583 43
1584 28
1585 36
1586 45
1587 57
1588 67
1589 54
1590 77
1591 58
1592 2
1593 65
1594 42
1595 38
1596 36
1597 81
1598 15
1599 22
1600 61
1601 18
1602 18
1603 6
1604 70
1605 7
1606 39
1607 16
1608 81
1609 25
1610 65
1611 36
1612 83
1613 75
1614 85
1615 41
1616 22
1617 45
1618 13
1619 83
1620 86
1621 82
1622 28
1623 12
1624 1
1625 67
1626 50
1627 5
1628 55
1629 81
1630 26
1631 82
1632 10
1633 9
1634 41
1635 58
1636 21
1637 52
1638 5
1639 27
1640 74
1641 66
1642 6
1643 44
1644 65
1645 80
1646 40
1647 86
1648 64
1649 2
1650 31
1651 54
1652 3
1653 83
1654 86
1655 5
1656 42
1657 46
1658 5
1659 41
1660 45
1661 90
1662 78
1663 31
1664 65
1665 60
1666 18
1667 20
1668 71
1669 76
1670 8
1671 8
1672 38
1673 83
1674 80
1675 28
1676 54
1677 20
1678 1
1679 22
1680 18
1681 58
1682 5
1683 50
1684 73
1685 34
1686 12
1687 45
1688 6
1689 41
1690 2
1691 15
1692 2
1693 69
1694 22
1695 23
1696 15
1697 43
1698 45
1699 56
1700 1
1701 73
1702 6
1703 9
1704 70
1705 19
1706 40
1707 70
1708 6
1709 58
1710 25
1711 60
1712 75
1713 28
1714 68
1715 55
1716 23
1717 50
1718 28
1719 1
1720 78
1721 72
1722 68
1723 34
1724 25
1725 68
1726 72
1727 43
1728 19
1729 28
1730 56
1731 33
1732 25
1733 24
1734 87
1735 30
1736 64
1737 61
1738 64
1739 25
1740 69
1741 40
1742 35
1743 58
1744 65
1745 70
1746 33
1747 77
1748 66
1749 61
1750 39
1751 2
1752 2
1753 33
1754 67
1755 89
1756 16
1757 57
1758 40
1759 54
1760 79
1761 58
1762 5
1763 64
1764 36
1765 42
1766 70
1767 35
1768 6
1769 37
1770 6
1771 52
1772 19
1773 6
1774 2
1775 35
1776 70
1777 39
1778 13
1779 42
1780 15
1781 67
1782 38
1783 35
1784 31
1785 2
1786 43
1787 44
1788 70
1789 18
1790 79
1791 35
1792 36
1793 32
1794 9
1795 36
1796 1
1797 39
1798 83
1799 57
1800 44
1801 31
1802 77
1803 72
1804 43
1805 26
1806 73
1807 7
1808 0
1809 63
1810 77
1811 90
1812 69
1813 5
1814 25
1815 0
1816 44
1817 64
1818 46
1819 56
1820 77
1821 69
1822 16
1823 1
1824 77
1825 45
1826 36
1827 37
1828 62
1829 59
1830 5
1831 47
1832 26
1833 29
1834 11
1835 27
1836 27
1837 85
1838 11
1839 63
1840 77
1841 6
1842 56
1843 39
1844 44
1845 40
1846 48
1847 57
1848 49
1849 63
1850 45
1851 5
1852 70
1853 64
1854 55
1855 25
1856 36
1857 75
1858 71
1859 36
1860 75
1861 4
1862 16
1863 48
1864 23
1865 54
1866 71
1867 54
1868 25
1869 62
1870 40
1871 56
1872 72
1873 19
1874 78
1875 25
1876 66
1877 39
1878 81
1879 49
1880 90
1881 50
1882 15
1883 27
1884 80
1885 32
1886 9
1887 71
1888 67
1889 60
1890 53
1891 6
1892 52
1893 1
1894 50
1895 19
1896 85
1897 56
1898 38
1899 50
1900 37
1901 20
1902 26
1903 42
1904 85
1905 36
1906 32
1907 66
1908 85
1909 69
1910 17
1911 54
1912 81
1913 0
1914 73
1915 26
1916 56
1917 88
1918 44
1919 40
1920 56
1921 22
1922 2
1923 11
1924 83
1925 18
1926 15
1927 47
1928 7
1929 52
1930 19
1931 10
1932 0
1933 70
1934 20
1935 58
1936 46
1937 78
1938 62
1939 36
1940 63
1941 22
1942 82
1943 76
1944 40
1945 25
1946 22
1947 78
1948 5
1949 6
1950 66
1951 12
1952 77
1953 22
1954 22
1955 45
1956 25
1957 65
1958 22
1959 28
1960 86
1961 71
1962 58
1963 17
1964 11
1965 19
1966 63
1967 22
1968 58
1969 11
1970 67
1971 43
1972 42
1973 25
1974 69
1975 52
1976 61
1977 17
1978 51
1979 15
1980 68
1981 1
1982 6
1983 69
1984 31
1985 90
1986 48
1987 44
1988 66
1989 74
1990 65
1991 81
1992 39
1993 25
1994 48
1995 20
1996 80
1997 37
1998 5
1999 46
2000 0
2001 86
2002 70
2003 59
2004 2
2005 0
2006 84
2007 43
2008 42
2009 52
2010 16
2011 56
2012 59
2013 11
2014 74
2015 67
2016 51
2017 29
2018 7
2019 19
2020 40
2021 16
2022 58
2023 26
2024 87
2025 8
2026 9
2027 20
2028 34
2029 40
2030 58
2031 6
2032 68
2033 16
2034 55
2035 75
2036 40
2037 3
2038 13
2039 45
2040 5
2041 17
2042 39
2043 83
2044 65
2045 4
2046 40
2047 16
2048 51
2049 84
2050 16
2051 76
2052 79
2053 79
2054 49
2055 80
2056 72
2057 68
2058 22
2059 24
2060 75
2061 59
2062 1
2063 35
2064 56
2065 55
2066 69
2067 28
2068 74
2069 30
2070 58
2071 71
2072 11
2073 50
2074 27
2075 44
2076 60
2077 21
2078 27
2079 36
2080 26
2081 19
2082 58
2083 30
2084 43
2085 55
2086 72
2087 5
2088 73
2089 36
2090 58
2091 77
2092 5
2093 63
2094 1
2095 15
2096 38
2097 33
2098 16
2099 41
2100 5
2101 77
2102 39
2103 49
2104 83
2105 73
2106 3
2107 72
2108 39
2109 30
2110 16
2111 42
2112 33
2113 22
2114 41
2115 45
2116 30
2117 62
2118 38
2119 22
2120 83
2121 2
2122 58
2123 51
2124 28
2125 47
2126 4
2127 41
2128 74
2129 46
2130 86
2131 37
2132 5
2133 3
2134 61
2135 22
2136 70
2137 19
2138 13
2139 5
2140 3
2141 62
2142 17
2143 81
2144 44
2145 11
2146 5
2147 73
2148 18
2149 0
2150 37
2151 37
2152 35
2153 48
2154 56
2155 31
2156 52
2157 6
2158 17
2159 15
2160 25
2161 25
2162 31
2163 60
2164 18
2165 60
2166 15
2167 69
2168 40
2169 64
2170 15
2171 20
2172 48
2173 4
2174 63
2175 63
2176 79
2177 43
2178 19
2179 42
2180 74
2181 57
2182 77
2183 13
2184 5
2185 50
2186 30
2187 31
2188 48
2189 0
2190 60
2191 52
2192 34
2193 43
2194 16
2195 77
2196 15
2197 12
2198 1
2199 13
2200 79
2201 75
2202 87
2203 34
2204 33
2205 81
2206 78
2207 76
2208 73
2209 87
2210 40
2211 3
2212 54
2213 28
2214 18
2215 9
2216 54
2217 2
2218 4
2219 66
2220 6
2221 13
2222 4
2223 80
2224 30
2225 37
2226 3
2227 23
2228 83
2229 12
2230 77
2231 88
2232 76
2233 1
2234 13
2235 52
2236 31
2237 50
2238 33
2239 58
2240 28
2241 55
2242 73
2243 55
2244 81
2245 29
2246 60
2247 46
2248 77
2249 9
2250 19
2251 42
2252 29
2253 5
2254 25
2255 62
2256 21
2257 10
2258 72
2259 57
2260 42
2261 29
2262 64
2263 50
2264 85
2265 64
2266 61
2267 16
2268 45
2269 33
2270 23
2271 90
2272 42
2273 33
2274 81
2275 57
2276 10
2277 41
2278 17
2279 57
2280 20
2281 71
2282 15
2283 16
2284 79
2285 58
2286 29
2287 73
2288 42
2289 62
2290 68
2291 30
2292 70
2293 79
2294 63
2295 5
2296 72
2297 45
2298 38
2299 39
2300 57
2301 35
2302 66
2303 88
2304 11
2305 46
2306 20
2307 4
2308 35
2309 28
2310 39
2311 50
2312 60
2313 79
2314 55
2315 75
2316 2
2317 18
2318 16
2319 16
2320 77
2321 55
2322 35
2323 4
2324 77
2325 40
2326 51
2327 84
2328 73
2329 56
2330 76
2331 11
2332 57
2333 45
2334 6
2335 74
2336 54
2337 53
2338 19
2339 5
2340 28
2341 48
2342 86
2343 31
2344 48
2345 69
2346 85
2347 63
2348 77
2349 18
2350 25
2351 58
2352 39
2353 31
2354 6
2355 28
2356 19
2357 72
2358 69
2359 29
2360 45
2361 58
2362 84
2363 67
2364 78
2365 69
2366 89
2367 74
2368 70
2369 0
2370 40
2371 53
2372 65
2373 36
2374 38
2375 47
2376 16
2377 17
2378 40
2379 58
2380 69
2381 25
2382 34
2383 29
2384 29
2385 39
2386 68
2387 24
2388 37
2389 39
2390 35
2391 26
2392 45
2393 58
2394 17
2395 18
2396 20
2397 3
2398 5
2399 28
2400 48
2401 89
2402 23
2403 42
2404 1
2405 76
2406 75
2407 87
2408 2
2409 10
2410 40
2411 19
2412 76
2413 4
2414 5
2415 26
2416 39
2417 2
2418 51
2419 3
2420 17
2421 41
2422 66
2423 58
2424 54
2425 73
2426 70
2427 46
2428 1
2429 33
2430 52
2431 36
2432 0
2433 54
2434 79
2435 76
2436 81
2437 31
2438 58
2439 67
2440 34
2441 76
2442 68
2443 81
2444 59
2445 61
2446 56
2447 35
2448 36
2449 42
2450 61
2451 50
2452 82
2453 60
2454 64
2455 45
2456 69
2457 34
2458 86
2459 19
2460 59
2461 5
2462 53
2463 86
2464 79
2465 53
2466 70
2467 84
2468 71
2469 50
2470 8
2471 46
2472 75
2473 6
2474 36
2475 44
2476 63
2477 77
2478 31
2479 15
2480 20
2481 12
2482 48
2483 43
2484 48
2485 48
2486 6
2487 68
2488 13
2489 48
2490 53
2491 56
2492 81
2493 1
2494 38
2495 53
2496 34
2497 64
2498 38
2499 29
2500 46
2501 9
2502 68
2503 37
2504 81
2505 7
2506 79
2507 68
2508 32
2509 26
2510 57
2511 86
2512 35
2513 26
2514 51
2515 54
2516 10
2517 69
2518 25
2519 76
2520 6
2521 71
2522 71
2523 2
2524 47
2525 64
2526 13
2527 38
2528 66
2529 47
2530 61
2531 35
2532 31
2533 5
2534 82
2535 26
2536 69
2537 41
2538 41
2539 84
2540 15
2541 50
2542 18
2543 2
2544 55
2545 51
2546 3
2547 41
2548 18
2549 9
2550 37
2551 5
2552 23
2553 8
2554 86
2555 77
2556 5
2557 50
2558 33
2559 55
2560 46
2561 5
2562 22
2563 20
2564 29
2565 30
2566 29
2567 21
2568 16
2569 13
2570 40
2571 42
2572 2
2573 86
2574 20
2575 2
2576 39
2577 49
2578 59
2579 8
2580 29
2581 76
2582 58
2583 78
2584 6
2585 31
2586 62
2587 19
2588 28
2589 84
2590 5
2591 52
2592 16
2593 5
2594 56
2595 72
2596 39
2597 31
2598 70
2599 18
2600 77
2601 52
2602 14
2603 63
2604 23
2605 50
2606 46
2607 48
2608 77
2609 84
2610 37
2611 4
2612 61
2613 67
2614 16
2615 49
2616 72
2617 79
2618 76
2619 69
2620 38
2621 50
2622 10
2623 78
2624 48
2625 45
2626 4
2627 73
2628 15
2629 77
2630 23
2631 60
2632 53
2633 7
2634 89
2635 70
2636 57
2637 54
2638 55
2639 33
2640 19
2641 41
2642 18
2643 34
2644 32
2645 3
2646 52
2647 33
2648 73
2649 68
2650 31
2651 66
2652 6
2653 7
2654 70
2655 15
2656 84
2657 18
2658 69
2659 42
2660 63
2661 29
2662 15
2663 59
2664 33
2665 38
2666 67
2667 45
2668 59
2669 14
2670 42
2671 63
2672 39
2673 63
2674 4
2675 40
2676 28
2677 55
2678 45
2679 58
2680 36
2681 5
2682 38
2683 22
2684 34
2685 30
2686 87
2687 42
2688 51
2689 25
2690 15
2691 4
2692 40
2693 76
2694 73
2695 31
2696 33
2697 17
2698 38
2699 2
2700 75
2701 49
2702 34
2703 73
2704 77
2705 69
2706 36
2707 15
2708 18
2709 36
2710 89
2711 26
2712 47
2713 66
2714 15
2715 24
2716 22
2717 86
2718 73
2719 82
2720 40
2721 16
2722 2
2723 22
2724 67
2725 63
2726 83
2727 71
2728 64
2729 38
2730 36
2731 19
2732 26
2733 71
2734 11
2735 22
2736 35
2737 25
2738 48
2739 63
2740 15
2741 30
2742 21
2743 67
2744 63
2745 58
2746 42
2747 71
2748 42
2749 38
2750 49
2751 15
2752 51
2753 3
2754 31
2755 8
2756 57
2757 82
2758 81
2759 55
2760 31
2761 61
2762 9
2763 6
2764 28
2765 53
2766 14
2767 19
2768 35
2769 42
2770 21
2771 53
2772 88
2773 67
2774 37
2775 24
2776 20
2777 84
2778 27
2779 59
2780 88
2781 86
2782 77
2783 52
2784 40
2785 42
2786 39
2787 45
2788 76
2789 79
2790 10
2791 36
2792 77
2793 81
2794 58
2795 35
2796 48
2797 22
2798 12
2799 45
2800 73
2801 50
2802 67
2803 28
2804 16
2805 17
2806 67
2807 48
2808 3
2809 39
2810 11
2811 19
2812 77
2813 2
2814 6
2815 77
2816 73
2817 37
2818 61
2819 3
2820 90
2821 50
2822 20
2823 58
2824 33
2825 8
2826 67
2827 84
2828 61
2829 6
2830 88
2831 47
2832 57
2833 1
2834 48
2835 28
2836 36
2837 15
2838 58
2839 81
2840 15
2841 50
2842 1
2843 45
2844 59
2845 46
2846 63
2847 81
2848 80
2849 70
2850 13
2851 36
2852 20
2853 52
2854 43
2855 29
2856 35
2857 61
2858 19
2859 5
2860 69
2861 52
2862 39
2863 7
2864 65
2865 52
2866 71
2867 77
2868 15
2869 36
2870 74
2871 12
2872 38
2873 4
2874 85
2875 44
2876 50
2877 81
2878 75
2879 75
2880 80
2881 8
2882 50
2883 35
2884 33
2885 55
2886 61
2887 11
2888 75
2889 88
2890 28
2891 6
2892 79
2893 6
2894 81
2895 33
2896 20
2897 70
2898 45
2899 11
2900 31
2901 56
2902 64
2903 71
2904 18
2905 26
2906 32
2907 84
2908 26
2909 76
2910 6
2911 22
2912 4
2913 52
2914 34
2915 36
2916 21
2917 62
2918 28
2919 5
2920 46
2921 44
2922 80
2923 38
2924 6
2925 77
2926 64
2927 69
2928 19
2929 18
2930 57
2931 28
2932 7
2933 9
2934 70
2935 46
2936 75
2937 51
2938 36
2939 78
2940 84
2941 5
2942 44
2943 70
2944 17
2945 66
2946 53
2947 35
2948 82
2949 67
2950 15
2951 28
2952 12
2953 25
2954 59
2955 77
2956 61
2957 32
2958 13
2959 6
2960 67
2961 47
2962 69
2963 66
2964 4
2965 65
2966 34
2967 54
2968 18
2969 84
2970 36
2971 18
2972 39
2973 61
2974 66
2975 61
2976 31
2977 69
2978 40
2979 72
2980 2
2981 2
2982 5
2983 20
2984 67
2985 18
2986 30
2987 8
2988 3
2989 18
2990 69
2991 18
2992 78
2993 44
2994 62
2995 17
2996 20
2997 0
2998 54
2999 27
3000 72
3001 15
3002 19
3003 83
3004 9
3005 54
3006 81
3007 79
3008 5
3009 82
3010 56
3011 2
3012 33
3013 76
3014 55
3015 10
3016 70
3017 41
3018 47
3019 69
3020 65
3021 38
3022 5
3023 35
3024 69
3025 51
3026 39
3027 65
3028 20
3029 63
3030 81
3031 18
3032 63
3033 18
3034 69
3035 13
3036 10
3037 86
3038 76
3039 83
3040 29
3041 39
3042 48
3043 86
3044 52
3045 26
3046 45
3047 67
3048 3
3049 55
3050 80
3051 69
3052 6
3053 83
3054 54
3055 34
3056 50
3057 37
3058 35
3059 11
3060 40
3061 1
3062 88
3063 52
3064 67
3065 5
3066 53
3067 9
3068 34
3069 8
3070 45
3071 51
3072 19
3073 68
3074 89
3075 77
3076 66
3077 11
3078 76
3079 51
3080 65
3081 28
3082 36
3083 1
3084 45
3085 38
3086 58
3087 66
3088 81
3089 40
3090 72
3091 23
3092 44
3093 6
3094 25
3095 59
3096 16
3097 4
3098 21
3099 21
3100 76
3101 51
3102 77
3103 53
3104 40
3105 58
3106 48
3107 30
3108 21
3109 57
3110 25
3111 74
3112 16
3113 40
3114 31
3115 44
3116 22
3117 34
3118 42
3119 60
3120 68
3121 62
3122 84
3123 87
3124 49
3125 21
3126 54
3127 18
3128 70
3129 73
3130 50
3131 35
3132 28
3133 5
3134 51
3135 40
3136 83
3137 74
3138 13
3139 80
3140 7
3141 52
3142 2
3143 20
3144 14
3145 52
3146 76
3147 13
3148 43
3149 62
3150 77
3151 1
3152 79
3153 13
3154 54
3155 40
3156 39
3157 71
3158 79
3159 37
3160 27
3161 20
3162 32
3163 72
3164 7
3165 73
3166 3
3167 4
3168 40
3169 78
3170 42
3171 3
3172 25
3173 45
3174 4
3175 12
3176 68
3177 18
3178 56
3179 80
3180 47
3181 11
3182 29
3183 69
3184 2
3185 66
3186 17
3187 68
3188 15
3189 7
3190 60
3191 66
3192 81
3193 45
3194 48
3195 37
3196 34
3197 3
3198 45
3199 16
3200 22
3201 55
3202 88
3203 27
3204 6
3205 36
3206 71
3207 82
3208 23
3209 48
3210 25
3211 6
3212 28
3213 37
3214 50
3215 6
3216 73
3217 51
3218 36
3219 18
3220 23
3221 44
3222 47
3223 83
3224 64
3225 26
3226 8
3227 29
3228 47
3229 25
3230 78
3231 56
3232 58
3233 3
3234 19
3235 44
3236 31
3237 51
3238 55
3239 42
3240 40
3241 48
3242 2
3243 90
3244 5
3245 59
3246 44
3247 77
3248 12
3249 2
3250 15
3251 13
3252 74
3253 15
3254 78
3255 47
3256 37
3257 82
3258 58
3259 1
3260 42
3261 9
3262 17
3263 58
3264 3
3265 38
3266 56
3267 11
3268 47
3269 26
3270 3
3271 1
3272 66
3273 57
3274 5
3275 1
3276 62
3277 90
3278 8
3279 16
3280 62
3281 11
3282 46
3283 34
3284 2
3285 68
3286 42
3287 57
3288 18
3289 6
3290 39
3291 11
3292 37
3293 64
3294 2
3295 80
3296 54
3297 36
3298 22
3299 4
3300 34
3301 18
3302 31
3303 16
3304 26
3305 59
3306 81
3307 86
3308 31
3309 76
3310 10
3311 26
3312 77
3313 46
3314 90
3315 20
3316 48
3317 47
3318 75
3319 15
3320 41
3321 35
3322 55
3323 34
3324 57
3325 69
3326 45
3327 84
3328 2
3329 46
3330 32
3331 20
3332 81
3333 19
3334 70
3335 60
3336 79
3337 40
3338 82
3339 0
3340 45
3341 74
3342 90
3343 48
3344 17
3345 33
3346 10
3347 13
3348 6
3349 15
3350 51
3351 31
3352 81
3353 31
3354 38
3355 66
3356 31
3357 17
3358 52
3359 26
3360 20
3361 90
3362 74
3363 55
3364 15
3365 74
3366 39
3367 69
3368 40
3369 19
3370 78
3371 48
3372 16
3373 87
3374 45
3375 59
3376 41
3377 88
3378 25
3379 0
3380 3
3381 36
3382 13
3383 68
3384 10
3385 12
3386 19
3387 80
3388 40
3389 59
3390 81
3391 73
3392 39
3393 50
3394 9
3395 77
3396 40
3397 46
3398 3
3399 1
3400 57
3401 52
3402 57
3403 40
3404 61
3405 39
3406 6
3407 63
3408 23
3409 27
3410 37
3411 30
3412 74
3413 45
3414 85
3415 28
3416 23
3417 35
3418 14
3419 12
3420 80
3421 55
3422 7
3423 4
3424 64
3425 14
3426 56
3427 38
3428 51
3429 80
3430 59
3431 39
3432 39
3433 85
3434 66
3435 55
3436 42
3437 67
3438 85
3439 58
3440 36
3441 55
3442 4
3443 69
3444 9
3445 27
3446 31
3447 51
3448 35
3449 40
3450 26
3451 65
3452 64
3453 90
3454 40
3455 46
3456 42
3457 18
3458 44
3459 57
3460 35
3461 69
3462 67
3463 57
3464 9
3465 37
3466 82
3467 51
3468 63
3469 79
3470 34
3471 72
3472 31
3473 64
3474 32
3475 10
3476 82
3477 12
3478 71
3479 40
3480 26
3481 34
3482 79
3483 31
3484 60
3485 13
3486 58
3487 16
3488 23
3489 13
3490 73
3491 12
3492 64
3493 30
3494 56
3495 45
3496 8
3497 78
3498 49
3499 3
3500 19
3501 62
3502 26
3503 16
3504 13
3505 87
3506 38
3507 68
3508 84
3509 22
3510 40
3511 48
3512 41
3513 27
3514 59
3515 63
3516 62
3517 84
3518 81
3519 15
3520 64
3521 80
3522 36
3523 3
3524 90
3525 18
3526 17
3527 27
3528 43
3529 69
3530 73
3531 71
3532 70
3533 23
3534 86
3535 64
3536 61
3537 90
3538 65
3539 33
3540 54
3541 36
3542 69
3543 13
3544 16
3545 81
3546 18
3547 11
3548 28
3549 41
3550 43
3551 52
3552 38
3553 9
3554 78
3555 25
3556 19
3557 56
3558 35
3559 78
3560 34
3561 79
3562 82
3563 9
3564 57
3565 0
3566 77
3567 76
3568 80
3569 16
3570 19
3571 47
3572 52
3573 11
3574 85
3575 12
3576 75
3577 2
3578 55
3579 23
3580 22
3581 44
3582 22
3583 13
3584 80
3585 45
3586 40
3587 79
3588 45
3589 37
3590 24
3591 8
3592 81
3593 50
3594 58
3595 70
3596 39
3597 40
3598 35
3599 70
3600 81
3601 70
3602 9
3603 19
3604 80
3605 48
3606 39
3607 47
3608 25
3609 40
3610 25
3611 39
3612 60
3613 89
3614 18
3615 53
3616 62
3617 85
3618 64
3619 45
3620 67
3621 45
3622 74
3623 43
3624 66
3625 50
3626 44
3627 46
3628 48
3629 23
3630 76
3631 67
3632 21
3633 37
3634 13
3635 24
3636 25
3637 55
3638 42
3639 2
3640 51
3641 27
3642 6
3643 58
3644 5
3645 5
3646 45
3647 61
3648 0
3649 28
3650 4
3651 57
3652 69
3653 69
3654 20
3655 51
3656 20
3657 71
3658 15
3659 6
3660 82
3661 70
3662 5
3663 1
3664 43
3665 5
3666 8
3667 11
3668 71
3669 47
3670 0
3671 18
3672 72
3673 15
3674 46
3675 69
3676 55
3677 3
3678 83
3679 4
3680 61
3681 47
3682 76
3683 55
3684 89
3685 37
3686 3
3687 74
3688 35
3689 8
3690 85
3691 89
3692 41
3693 26
3694 81
3695 47
3696 18
3697 75
3698 73
3699 10
3700 55
3701 61
3702 84
3703 41
3704 55
3705 70
3706 64
3707 50
3708 58
3709 57
3710 56
3711 28
3712 26
3713 43
3714 64
3715 74
3716 4
3717 30
3718 6
3719 76
3720 58
3721 65
3722 18
3723 59
3724 21
3725 56
3726 82
3727 10
3728 79
3729 75
3730 73
3731 29
3732 35
3733 76
3734 60
3735 16
3736 75
3737 29
3738 4
3739 21
3740 37
3741 60
3742 5
3743 18
3744 38
3745 63
3746 88
3747 19
3748 69
3749 78
3750 37
3751 69
3752 26
3753 39
3754 35
3755 2
3756 23
3757 25
3758 61
3759 43
3760 5
3761 67
3762 46
3763 29
3764 55
3765 86
3766 12
3767 24
3768 38
3769 26
3770 71
3771 29
3772 41
3773 81
3774 16
3775 31
3776 88
3777 87
3778 1
3779 33
3780 6
3781 5
3782 50
3783 89
3784 84
3785 74
3786 69
3787 46
3788 31
3789 36
3790 57
3791 38
3792 32
3793 66
3794 61
3795 31
3796 6
3797 41
3798 10
3799 11
3800 21
3801 29
3802 31
3803 39
3804 87
3805 18
3806 51
3807 78
3808 44
3809 71
3810 27
3811 75
3812 41
3813 84
3814 33
3815 48
3816 52
3817 40
3818 58
3819 62
3820 64
3821 0
3822 57
3823 13
3824 76
3825 36
3826 71
3827 83
3828 11
3829 20
3830 35
3831 1
3832 18
3833 10
3834 38
3835 82
3836 6
3837 47
3838 90
3839 26
3840 56
3841 58
3842 20
3843 69
3844 38
3845 4
3846 12
3847 69
3848 82
3849 46
3850 16
3851 51
3852 22
3853 37
3854 81
3855 11
3856 6
3857 9
3858 0
3859 74
3860 49
3861 35
3862 80
3863 68
3864 75
3865 60
3866 7
3867 65
3868 16
3869 31
3870 67
3871 39
3872 29
3873 46
3874 36
3875 78
3876 47
3877 11
3878 67
3879 18
3880 17
3881 90
3882 12
3883 44
3884 21
3885 44
3886 81
3887 3
3888 22
3889 0
3890 19
3891 7
3892 18
3893 34
3894 74
3895 30
3896 64
3897 38
3898 55
3899 50
3900 11
3901 75
3902 0
3903 9
3904 57
3905 14
3906 54
3907 51
3908 36
3909 37
3910 0
3911 3
3912 31
3913 69
3914 6
3915 23
3916 18
3917 6
3918 86
3919 42
3920 85
3921 84
3922 41
3923 45
3924 14
3925 52
3926 44
3927 36
3928 33
3929 48
3930 32
3931 15
3932 14
3933 56
3934 46
3935 35
3936 12
3937 41
3938 80
3939 39
3940 20
3941 17
3942 26
3943 1
3944 27
3945 22
3946 28
3947 36
3948 51
3949 58
3950 9
3951 76
3952 49
3953 59
3954 80
3955 77
3956 73
3957 2
3958 66
3959 60
3960 72
3961 84
3962 83
3963 66
3964 64
3965 3
3966 68
3967 62
3968 26
3969 68
3970 9
3971 43
3972 38
3973 42
3974 75
3975 4
3976 24
3977 53
3978 83
3979 52
3980 17
3981 0
3982 1
3983 55
3984 18
3985 82
3986 25
3987 58
3988 6
3989 69
3990 2
3991 76
3992 51
3993 51
3994 51
3995 48
3996 60
3997 12
3998 68
3999 73
4000 79
4001 81
4002 22
4003 46
4004 20
4005 59
4006 37
4007 52
4008 50
4009 17
4010 51
4011 75
4012 51
4013 4
4014 82
4015 58
4016 66
4017 66
4018 35
4019 25
4020 12
4021 77
4022 49
4023 73
4024 22
4025 64
4026 28
4027 69
4028 5
4029 73
4030 37
4031 17
4032 29
4033 50
4034 60
4035 15
4036 51
4037 25
4038 68
4039 80
4040 34
4041 82
4042 67
4043 8
4044 85
4045 30
4046 82
4047 76
4048 45
4049 37
4050 68
4051 80
4052 2
4053 78
4054 37
4055 42
4056 48
4057 30
4058 50
4059 20
4060 44
4061 81
4062 77
4063 41
4064 64
4065 8
4066 70
4067 83
4068 42
4069 31
4070 15
4071 64
4072 18
4073 16
4074 77
4075 39
4076 52
4077 51
4078 9
4079 5
4080 61
4081 5
4082 4
4083 5
4084 34
4085 19
4086 77
4087 27
4088 21
4089 28
4090 61
4091 67
4092 7
4093 34
4094 46
4095 51
4096 23
4097 70
4098 85
4099 37
4100 44
4101 73
4102 43
4103 31
4104 58
4105 28
4106 15
4107 55
4108 70
4109 20
4110 1
4111 61
4112 58
4113 88
4114 36
4115 55
4116 3
4117 80
4118 33
4119 12
4120 48
4121 8
4122 79
4123 24
4124 20
4125 75
4126 71
4127 44
4128 56
4129 9
4130 90
4131 19
4132 63
4133 50
4134 32
4135 2
4136 3
4137 22
4138 44
4139 79
4140 18
4141 12
4142 50
4143 59
4144 37
4145 30
4146 38
4147 40
4148 2
4149 18
4150 23
4151 7
4152 10
4153 42
4154 34
4155 76
4156 77
4157 3
4158 39
4159 18
4160 29
4161 56
4162 19
4163 9
4164 83
4165 77
4166 47
4167 87
4168 86
4169 0
4170 7
4171 10
4172 63
4173 19
4174 13
4175 76
4176 73
4177 8
4178 87
4179 70
4180 54
4181 76
4182 90
4183 67
4184 38
4185 53
4186 13
4187 56
4188 35
4189 56
4190 84
4191 78
4192 47
4193 22
4194 83
4195 63
4196 15
4197 83
4198 66
4199 46
4200 68
4201 45
4202 65
4203 10
4204 55
4205 6
4206 64
4207 51
4208 37
4209 56
4210 87
4211 67
4212 52
4213 5
4214 60
4215 72
4216 17
4217 40
4218 46
4219 76
4220 24
4221 23
4222 70
4223 45
4224 18
4225 34
4226 19
4227 20
4228 28
4229 20
4230 30
4231 29
4232 45
4233 54
4234 37
4235 15
4236 26
4237 3
4238 11
4239 76
4240 89
4241 18
4242 38
4243 26
4244 13
4245 67
4246 27
4247 26
4248 46
4249 18
4250 38
4251 61
4252 42
4253 19
4254 14
4255 75
4256 26
4257 87
4258 78
4259 90
4260 26
4261 19
4262 48
4263 57
4264 38
4265 6
4266 20
4267 76
4268 18
4269 32
4270 75
4271 58
4272 61
4273 1
4274 84
4275 16
4276 40
4277 76
4278 6
4279 58
4280 17
4281 72
4282 0
4283 55
4284 57
4285 63
4286 64
4287 81
4288 25
4289 80
4290 79
4291 64
4292 52
4293 20
4294 38
4295 31
4296 5
4297 37
4298 39
4299 12
4300 58
4301 2
4302 24
4303 85
4304 45
4305 70
4306 37
4307 38
4308 54
4309 24
4310 61
4311 2
4312 68
4313 11
4314 75
4315 48
4316 14
4317 6
4318 2
4319 9
4320 64
4321 87
4322 5
4323 6
4324 19
4325 56
4326 28
4327 81
4328 29
4329 28
4330 59
4331 23
4332 66
4333 63
4334 71
4335 55
4336 56
4337 68
4338 15
4339 35
4340 6
4341 89
4342 76
4343 39
4344 24
4345 14
4346 38
4347 65
4348 50
4349 13
4350 37
4351 63
4352 37
4353 33
4354 11
4355 84
4356 34
4357 3
4358 55
4359 52
4360 6
4361 85
4362 45
4363 14
4364 72
4365 72
4366 52
4367 61
4368 38
4369 23
4370 42
4371 79
4372 31
4373 19
4374 45
4375 89
4376 64
4377 46
4378 67
4379 70
4380 6
4381 84
4382 6
4383 18
4384 76
4385 27
4386 6
4387 5
4388 30
4389 5
4390 17
4391 71
4392 69
4393 40
4394 60
4395 29
4396 19
4397 83
4398 29
4399 64
4400 41
4401 72
4402 45
4403 20
4404 8
4405 66
4406 63
4407 19
4408 47
4409 61
4410 81
4411 40
4412 32
4413 17
4414 18
4415 31
4416 76
4417 23
4418 51
4419 17
4420 28
4421 41
4422 60
4423 86
4424 68
4425 16
4426 90
4427 42
4428 57
4429 69
4430 58
4431 34
4432 64
4433 80
4434 81
4435 57
4436 18
4437 3
4438 56
4439 25
4440 90
4441 47
4442 8
4443 39
4444 25
4445 31
4446 85
4447 7
4448 76
4449 35
4450 56
4451 22
4452 46
4453 0
4454 38
4455 23
4456 56
4457 32
4458 1
4459 46
4460 58
4461 66
4462 41
4463 21
4464 73
4465 48
4466 61
4467 20
4468 26
4469 5
4470 62
4471 64
4472 54
4473 70
4474 0
4475 15
4476 58
4477 86
4478 4
4479 63
4480 12
4481 18
4482 24
4483 4
4484 87
4485 37
4486 6
4487 16
4488 17
4489 15
4490 15
4491 5
4492 45
4493 72
4494 20
4495 42
4496 18
4497 31
4498 46
4499 52
4500 89
4501 0
4502 51
4503 38
4504 39
4505 22
4506 77
4507 9
4508 9
4509 31
4510 31
4511 17
4512 86
4513 39
4514 80
4515 72
4516 54
4517 30
4518 5
4519 4
4520 51
4521 54
4522 41
4523 70
4524 76
4525 61
4526 45
4527 64
4528 60
4529 72
4530 14
4531 45
4532 67
4533 76
4534 18
4535 44
4536 80
4537 51
4538 0
4539 71
4540 40
4541 69
4542 53
4543 69
4544 67
4545 37
4546 40
4547 18
4548 69
4549 58
4550 4
4551 71
4552 20
4553 5
4554 71
4555 12
4556 27
4557 33
4558 27
4559 89
4560 50
4561 11
4562 67
4563 10
4564 83
4565 7
4566 60
4567 61
4568 34
4569 2
4570 9
4571 39
4572 40
4573 51
4574 84
4575 66
4576 68
4577 50
4578 39
4579 4
4580 19
4581 33
4582 45
4583 42
4584 72
4585 34
4586 31
4587 80
4588 30
4589 63
4590 70
4591 44
4592 27
4593 54
4594 73
4595 33
4596 25
4597 83
4598 31
4599 54
4600 26
4601 46
4602 85
4603 16
4604 65
4605 5
4606 83
4607 44
4608 11
4609 16
4610 42
4611 77
4612 56
4613 65
4614 80
4615 69
4616 51
4617 20
4618 45
4619 36
4620 13
4621 49
4622 3
4623 19
4624 3
4625 6
4626 31
4627 5
4628 62
4629 35
4630 68
4631 82
4632 8
4633 32
4634 5
4635 31
4636 73
4637 45
4638 35
4639 14
4640 68
4641 70
4642 50
4643 75
4644 24
4645 44
4646 69
4647 23
4648 27
4649 71
4650 52
4651 84
4652 11
4653 9
4654 28
4655 20
4656 6
4657 52
4658 63
4659 77
4660 5
4661 12
4662 54
4663 9
4664 55
4665 51
4666 57
4667 5
4668 55
4669 85
4670 53
4671 45
4672 5
4673 90
4674 25
4675 76
4676 52
4677 87
4678 5
4679 67
4680 19
4681 22
4682 6
4683 25
4684 72
4685 11
4686 12
4687 46
4688 75
4689 37
4690 10
4691 23
4692 31
4693 19
4694 36
4695 76
4696 7
4697 12
4698 51
4699 11
4700 81
4701 82
4702 76
4703 1
4704 21
4705 40
4706 1
4707 10
4708 53
4709 87
4710 35
4711 56
4712 55
4713 75
4714 79
4715 4
4716 42
4717 90
4718 37
4719 53
4720 37
4721 49
4722 19
4723 76
4724 34
4725 5
4726 39
4727 77
4728 22
4729 2
4730 78
4731 8
4732 45
4733 23
4734 40
4735 16
4736 73
4737 48
4738 30
4739 40
4740 36
4741 4
4742 76
4743 71
4744 69
4745 16
4746 43
4747 75
4748 27
4749 35
4750 6
4751 6
4752 48
4753 69
4754 35
4755 51
4756 9
4757 16
4758 76
4759 61
4760 23
4761 7
4762 52
4763 54
4764 69
4765 61
4766 5
4767 49
4768 64
4769 32
4770 21
4771 11
4772 30
4773 35
4774 73
4775 49
4776 69
4777 23
4778 26
4779 39
4780 70
4781 51
4782 61
4783 23
4784 69
4785 16
4786 8
4787 0
4788 50
4789 39
4790 5
4791 34
4792 25
4793 45
4794 29
4795 4
4796 42
4797 5
4798 47
4799 6
4800 70
4801 45
4802 4
4803 30
4804 15
4805 39
4806 60
4807 55
4808 38
4809 1
4810 20
4811 89
4812 68
4813 31
4814 71
4815 52
4816 53
4817 5
4818 2
4819 3
4820 79
4821 88
4822 33
4823 19
4824 6
4825 59
4826 8
4827 64
4828 62
4829 3
4830 69
4831 19
4832 28
4833 7
4834 65
4835 37
4836 9
4837 39
4838 40
4839 7
4840 56
4841 45
4842 66
4843 86
4844 68
4845 75
4846 6
4847 20
4848 80
4849 8
4850 35
4851 26
4852 64
4853 13
4854 25
4855 67
4856 20
4857 26
4858 33
4859 81
4860 26
4861 59
4862 36
4863 74
4864 40
4865 69
4866 65
4867 5
4868 66
4869 59
4870 74
4871 12
4872 34
4873 65
4874 7
4875 11
4876 5
4877 31
4878 88
4879 35
4880 48
4881 1
4882 67
4883 36
4884 6
4885 2
4886 63
4887 48
4888 62
4889 58
4890 84
4891 39
4892 36
4893 54
4894 44
4895 5
4896 32
4897 27
4898 45
4899 19
4900 32
4901 1
4902 37
4903 39
4904 77
4905 9
4906 69
4907 39
4908 56
4909 64
4910 64
4911 70
4912 57
4913 66
4914 56
4915 20
4916 55
4917 60
4918 65
4919 62
4920 8
4921 36
4922 68
4923 68
4924 68
4925 37
4926 56
4927 33
4928 15
4929 75
4930 9
4931 50
4932 6
4933 61
4934 74
4935 33
4936 81
4937 47
4938 32
4939 3
4940 28
4941 8
4942 48
4943 76
4944 20
4945 41
4946 19
4947 17
4948 66
4949 5
4950 10
4951 24
4952 2
4953 22
4954 17
4955 75
4956 2
4957 49
4958 83
4959 31
4960 39
4961 20
4962 57
4963 34
4964 55
4965 76
4966 52
4967 15
4968 69
4969 27
4970 33
4971 51
4972 16
4973 1
4974 79
4975 83
4976 42
4977 35
4978 55
4979 25
4980 78
4981 21
4982 52
4983 25
4984 25
4985 29
4986 69
4987 25
4988 17
4989 6
4990 79
4991 3
4992 6
4993 45
4994 18
4995 60
4996 36
4997 36
4998 50
4999 59
5000 36
5001 33
5002 51
5003 5
5004 28
5005 7
5006 54
5007 40
5008 30
5009 2
5010 34
5011 6
5012 83
5013 37
5014 61
5015 84
5016 52
5017 42
5018 23
5019 27
5020 0
5021 58
5022 86
5023 4
5024 3
5025 57
5026 9
5027 81
5028 81
5029 48
5030 19
5031 12
5032 58
5033 57
5034 55
5035 26
5036 43
5037 7
5038 54
5039 28
5040 1
5041 43
5042 4
5043 71
5044 8
5045 48
5046 65
5047 58
5048 75
5049 44
5050 4
5051 12
5052 4
5053 71
5054 28
5055 60
5056 65
5057 33
5058 26
5059 76
5060 77
5061 19
5062 31
5063 35
5064 15
5065 68
5066 16
5067 59
5068 17
5069 66
5070 19
5071 43
5072 63
5073 67
5074 9
5075 6
5076 19
5077 82
5078 71
5079 73
5080 57
5081 20
5082 16
5083 48
5084 89
5085 9
5086 36
5087 40
5088 60
5089 15
5090 75
5091 41
5092 44
5093 2
5094 35
5095 67
5096 45
5097 44
5098 50
5099 69
5100 70
5101 19
5102 60
5103 66
5104 54
5105 48
5106 19
5107 75
5108 40
5109 36
5110 70
5111 19
5112 16
5113 69
5114 41
5115 79
5116 40
5117 24
5118 89
5119 1
5120 41
5121 45
5122 18
5123 33
5124 51
5125 85
5126 9
5127 57
5128 44
5129 51
5130 11
5131 84
5132 75
5133 22
5134 77
5135 19
5136 23
5137 57
5138 0
5139 78
5140 76
5141 7
5142 59
5143 6
5144 71
5145 43
5146 81
5147 11
5148 48
5149 51
5150 66
5151 5
5152 4
5153 80
5154 11
5155 40
5156 48
5157 0
5158 37
5159 36
5160 50
5161 4
5162 18
5163 37
5164 38
5165 41
5166 11
5167 73
5168 13
5169 3
5170 75
5171 63
5172 19
5173 66
5174 14
5175 20
5176 15
5177 43
5178 33
5179 24
5180 54
5181 18
5182 6
5183 56
5184 50
5185 64
5186 71
5187 68
5188 22
5189 16
5190 4
5191 31
5192 11
5193 55
5194 14
5195 82
5196 29
5197 46
5198 20
5199 38
5200 45
5201 23
5202 16
5203 67
5204 61
5205 31
5206 47
5207 29
5208 36
5209 60
5210 49
5211 74
5212 79
5213 63
5214 65
5215 58
5216 44
5217 86
5218 73
5219 3
5220 59
5221 36
5222 15
5223 43
5224 58
5225 5
5226 28
5227 23
5228 2
5229 36
5230 84
5231 57
5232 70
5233 36
5234 11
5235 12
5236 62
5237 54
5238 73
5239 57
5240 11
5241 34
5242 25
5243 71
5244 45
5245 31
5246 39
5247 77
5248 53
5249 5
5250 4
5251 38
5252 69
5253 22
5254 44
5255 64
5256 58
5257 70
5258 29
5259 38
5260 8
5261 86
5262 51
5263 15
5264 29
5265 3
5266 57
5267 11
5268 75
5269 58
5270 63
5271 32
5272 5
5273 51
5274 23
5275 0
5276 11
5277 74
5278 23
5279 42
5280 66
5281 81
5282 42
5283 14
5284 33
5285 40
5286 50
5287 12
5288 84
5289 69
5290 37
5291 31
5292 47
5293 15
5294 78
5295 23
5296 48
5297 42
5298 2
5299 54
5300 52
5301 80
5302 62
5303 3
5304 48
5305 5
5306 20
5307 25
5308 68
5309 49
5310 33
5311 11
5312 38
5313 56
5314 77
5315 63
5316 16
5317 18
5318 77
5319 70
5320 27
5321 45
5322 42
5323 16
5324 2
5325 2
5326 23
5327 79
5328 18
5329 51
5330 22
5331 38
5332 33
5333 13
5334 33
5335 81
5336 27
5337 48
5338 40
5339 63
5340 69
5341 4
5342 23
5343 27
5344 12
5345 54
5346 6
5347 73
5348 69
5349 58
5350 72
5351 7
5352 4
5353 26
5354 27
5355 79
5356 79
5357 23
5358 37
5359 23
5360 39
5361 79
5362 37
5363 71
5364 13
5365 38
5366 65
5367 8
5368 5
5369 38
5370 19
5371 53
5372 42
5373 66
5374 3
5375 10
5376 55
5377 19
5378 55
5379 30
5380 48
5381 17
5382 84
5383 30
5384 48
5385 83
5386 81
5387 6
5388 33
5389 36
5390 7
5391 67
5392 20
5393 75
5394 37
5395 76
5396 3
5397 20
5398 24
5399 5
5400 64
5401 6
5402 57
5403 5
5404 59
5405 53
5406 55
5407 74
5408 4
5409 72
5410 54
5411 9
5412 51
5413 57
5414 18
5415 34
5416 20
5417 44
5418 71
5419 5
5420 82
5421 17
5422 6
5423 12
5424 73
5425 23
5426 3
5427 37
5428 77
5429 82
5430 38
5431 82
5432 56
5433 55
5434 7
5435 39
5436 58
5437 72
5438 47
5439 74
5440 71
5441 27
5442 68
5443 79
5444 2
5445 36
5446 45
5447 6
5448 90
5449 51
5450 20
5451 30
5452 78
5453 79
5454 38
5455 61
5456 35
5457 17
5458 58
5459 76
5460 35
5461 51
5462 79
5463 25
5464 38
5465 41
5466 52
5467 46
5468 77
5469 41
5470 45
5471 77
5472 25
5473 7
5474 61
5475 71
5476 15
5477 11
5478 2
5479 3
5480 49
5481 13
5482 71
5483 74
5484 42
5485 6
5486 86
5487 38
5488 65
5489 40
5490 3
5491 45
5492 41
5493 42
5494 42
5495 76
5496 26
5497 40
5498 14
5499 72
5500 53
5501 26
5502 46
5503 52
5504 42
5505 74
5506 81
5507 64
5508 0
5509 74
5510 20
5511 3
5512 15
5513 11
5514 5
5515 86
5516 1
5517 31
5518 6
5519 2
5520 71
5521 85
5522 81
5523 63
5524 6
5525 64
5526 76
5527 62
5528 46
5529 86
5530 32
5531 67
5532 17
5533 45
5534 84
5535 68
5536 71
5537 67
5538 68
5539 41
5540 72
5541 61
5542 21
5543 52
5544 17
5545 6
5546 35
5547 25
5548 58
5549 38
5550 8
5551 16
5552 51
5553 14
5554 51
5555 12
5556 11
5557 54
5558 53
5559 58
5560 71
5561 48
5562 46
5563 38
5564 1
5565 38
5566 49
5567 74
5568 46
5569 87
5570 84
5571 57
5572 8
5573 22
5574 64
5575 40
5576 20
5577 41
5578 12
5579 0
5580 16
5581 81
5582 21
5583 29
5584 55
5585 41
5586 19
5587 3
5588 51
5589 46
5590 57
5591 30
5592 24
5593 24
5594 31
5595 4
5596 59
5597 65
5598 57
5599 27
5600 82
5601 56
5602 52
5603 39
5604 9
5605 83
5606 50
5607 14
5608 39
5609 18
5610 51
5611 67
5612 4
5613 39
5614 74
5615 65
5616 70
5617 17
5618 68
5619 56
5620 19
5621 89
5622 57
5623 78
5624 1
5625 45
5626 35
5627 17
5628 64
5629 14
5630 59
5631 56
5632 19
5633 72
5634 26
5635 51
5636 82
5637 86
5638 51
5639 11
5640 13
5641 64
5642 79
5643 76
5644 80
5645 81
5646 18
5647 51
5648 74
5649 42
5650 84
5651 58
5652 25
5653 24
5654 18
5655 5
5656 34
5657 78
5658 37
5659 45
5660 29
5661 12
5662 25
5663 18
5664 88
5665 22
5666 13
5667 42
5668 57
5669 48
5670 80
5671 18
5672 31
5673 9
5674 57
5675 5
5676 27
5677 81
5678 84
5679 43
5680 41
5681 58
5682 46
5683 75
5684 81
5685 45
5686 1
5687 45
5688 25
5689 72
5690 16
5691 70
5692 43
5693 57
5694 20
5695 28
5696 56
5697 13
5698 28
5699 82
5700 27
5701 10
5702 20
5703 68
5704 43
5705 67
5706 70
5707 62
5708 6
5709 9
5710 53
5711 70
5712 43
5713 26
5714 61
5715 36
5716 64
5717 16
5718 64
5719 50
5720 48
5721 63
5722 26
5723 22
5724 4
5725 84
5726 31
5727 4
5728 56
5729 65
5730 8
5731 18
5732 6
5733 61
5734 70
5735 15
5736 21
5737 55
5738 49
5739 10
5740 2
5741 23
5742 16
5743 9
5744 75
5745 29
5746 35
5747 38
5748 52
5749 19
5750 2
5751 32
5752 67
5753 5
5754 65
5755 26
5756 72
5757 16
5758 61
5759 77
5760 6
5761 52
5762 72
5763 75
5764 68
5765 47
5766 59
5767 87
5768 51
5769 22
5770 65
5771 23
5772 33
5773 66
5774 11
5775 39
5776 50
5777 10
5778 84
5779 53
5780 19
5781 39
5782 26
5783 45
5784 59
5785 34
5786 45
5787 74
5788 13
5789 2
5790 4
5791 34
5792 70
5793 76
5794 85
5795 42
5796 25
5797 57
5798 6
5799 6
5800 30
5801 14
5802 6
5803 17
5804 76
5805 73
5806 30
5807 33
5808 64
5809 19
5810 87
5811 56
5812 22
5813 34
5814 8
5815 12
5816 11
5817 0
5818 81
5819 84
5820 32
5821 64
5822 76
5823 29
5824 87
5825 32
5826 60
5827 82
5828 54
5829 15
5830 57
5831 55
5832 16
5833 0
5834 80
5835 48
5836 65
5837 87
5838 57
5839 33
5840 36
5841 8
5842 64
5843 17
5844 77
5845 52
5846 65
5847 80
5848 85
5849 64
5850 89
5851 85
5852 61
5853 0
5854 7
5855 29
5856 25
5857 39
5858 75
5859 26
5860 20
5861 63
5862 28
5863 37
5864 52
5865 11
5866 35
5867 5
5868 19
5869 6
5870 50
5871 71
5872 36
5873 18
5874 12
5875 54
5876 84
5877 82
5878 38
5879 68
5880 56
5881 54
5882 72
5883 37
5884 31
5885 18
5886 27
5887 82
5888 23
5889 31
5890 5
5891 80
5892 71
5893 5
5894 85
5895 71
5896 23
5897 46
5898 13
5899 10
5900 82
5901 17
5902 1
5903 69
5904 58
5905 16
5906 53
5907 9
5908 45
5909 2
5910 31
5911 4
5912 55
5913 52
5914 51
5915 10
5916 67
5917 76
5918 63
5919 62
5920 15
5921 90
5922 26
5923 85
5924 75
5925 11
5926 68
5927 36
5928 72
5929 58
5930 78
5931 5
5932 5
5933 52
5934 22
5935 65
5936 25
5937 54
5938 69
5939 77
5940 11
5941 3
5942 66
5943 39
5944 31
5945 60
5946 59
5947 75
5948 87
5949 51
5950 83
5951 57
5952 6
5953 26
5954 63
5955 64
5956 68
5957 71
5958 18
5959 79
5960 1
5961 75
5962 61
5963 52
5964 7
5965 26
5966 87
5967 71
5968 61
5969 65
5970 2
5971 23
5972 31
5973 70
5974 40
5975 4
5976 85
5977 72
5978 32
5979 36
5980 31
5981 46
5982 47
5983 41
5984 59
5985 51
5986 37
5987 12
5988 67
5989 87
5990 16
5991 27
5992 56
5993 64
5994 50
5995 27
5996 13
5997 49
5998 38
5999 11
6000 67
6001 84
6002 79
6003 38
6004 78
6005 2
6006 35
6007 22
6008 19
6009 72
6010 19
6011 48
6012 45
6013 20
6014 5
6015 3
6016 40
6017 67
6018 60
6019 19
6020 66
6021 18
6022 2
6023 49
6024 65
6025 54
6026 6
6027 81
6028 77
6029 26
6030 32
6031 5
6032 32
6033 3
6034 69
6035 57
6036 80
6037 24
6038 33
6039 57
6040 65
6041 82
6042 83
6043 62
6044 24
6045 16
6046 25
6047 67
6048 77
6049 32
6050 34
6051 31
6052 50
6053 76
6054 36
6055 33
6056 25
6057 29
6058 75
6059 44
6060 86
6061 15
6062 25
6063 35
6064 51
6065 31
6066 59
6067 34
6068 78
6069 63
6070 13
6071 53
6072 13
6073 76
6074 22
6075 52
6076 48
6077 66
6078 80
6079 48
6080 85
6081 74
6082 46
6083 53
6084 66
6085 81
6086 82
6087 41
6088 16
6089 79
6090 43
6091 33
6092 4
6093 41
6094 57
6095 83
6096 6
6097 53
6098 4
6099 5
6100 70
6101 4
6102 33
6103 20
6104 69
6105 23
6106 36
6107 89
6108 24
6109 31
6110 10
6111 66
6112 43
6113 3
6114 31
6115 16
6116 70
6117 17
6118 75
6119 38
6120 70
6121 58
6122 47
6123 8
6124 62
6125 73
6126 89
6127 76
6128 67
6129 34
6130 45
6131 44
6132 36
6133 65
6134 57
6135 79
6136 39
6137 16
6138 88
6139 11
6140 76
6141 38
6142 81
6143 66
6144 69
6145 54
6146 67
6147 67
6148 72
6149 4
6150 10
6151 72
6152 7
6153 44
6154 32
6155 61
6156 59
6157 4
6158 80
6159 36
6160 59
6161 58
6162 57
6163 75
6164 25
6165 29
6166 29
6167 31
6168 87
6169 13
6170 63
6171 41
6172 1
6173 6
6174 57
6175 53
6176 58
6177 53
6178 6
6179 11
6180 4
6181 80
6182 43
6183 30
6184 43
6185 79
6186 63
6187 50
6188 46
6189 10
6190 1
6191 73
6192 43
6193 14
6194 64
6195 49
6196 35
6197 5
6198 43
6199 66
6200 2
6201 70
6202 65
6203 77
6204 40
6205 22
6206 58
6207 13
6208 37
6209 50
6210 25
6211 18
6212 22
6213 75
6214 18
6215 82
6216 83
6217 71
6218 13
6219 18
6220 49
6221 57
6222 58
6223 71
6224 60
6225 40
6226 44
6227 2
6228 40
6229 26
6230 78
6231 74
6232 88
6233 32
6234 73
6235 37
6236 71
6237 23
6238 31
6239 3
6240 77
6241 33
6242 14
6243 87
6244 71
6245 2
6246 20
6247 72
6248 47
6249 36
6250 48
6251 49
6252 36
6253 5
6254 11
6255 20
6256 14
6257 0
6258 25
6259 61
6260 56
6261 89
6262 17
6263 69
6264 22
6265 20
6266 43
6267 6
6268 87
6269 24
6270 27
6271 81
6272 36
6273 54
6274 26
6275 2
6276 75
6277 47
6278 89
6279 28
6280 28
6281 29
6282 53
6283 69
6284 63
6285 72
6286 73
6287 8
6288 81
6289 5
6290 3
6291 38
6292 26
6293 1
6294 6
6295 70
6296 62
6297 37
6298 50
6299 51
6300 81
6301 48
6302 75
6303 7
6304 81
6305 80
6306 17
6307 84
6308 46
6309 2
6310 6
6311 27
6312 69
6313 45
6314 11
6315 65
6316 36
6317 23
6318 38
6319 83
6320 6
6321 32
6322 27
6323 51
6324 21
6325 9
6326 44
6327 5
6328 28
6329 27
6330 22
6331 51
6332 70
6333 82
6334 53
6335 2
6336 3
6337 30
6338 55
6339 1
6340 73
6341 17
6342 15
6343 34
6344 4
6345 56
6346 60
6347 62
6348 34
6349 35
6350 16
6351 3
6352 11
6353 63
6354 57
6355 31
6356 31
6357 69
6358 80
6359 23
6360 67
6361 35
6362 1
6363 19
6364 87
6365 74
6366 49
6367 28
6368 10
6369 71
6370 39
6371 59
6372 0
6373 63
6374 87
6375 50
6376 20
6377 47
6378 32
6379 4
6380 65
6381 36
6382 70
6383 53
6384 26
6385 10
6386 79
6387 27
6388 55
6389 71
6390 9
6391 30
6392 58
6393 44
6394 40
6395 57
6396 81
6397 90
6398 47
6399 9
6400 44
6401 13
6402 53
6403 31
6404 32
6405 40
6406 15
6407 53
6408 64
6409 55
6410 42
6411 57
6412 90
6413 20
6414 35
6415 48
6416 61
6417 64
6418 87
6419 44
6420 14
6421 32
6422 47
6423 42
6424 8
6425 79
6426 43
6427 43
6428 40
6429 53
6430 65
6431 61
6432 65
6433 54
6434 86
6435 7
6436 0
6437 48
6438 35
6439 2
6440 44
6441 33
6442 32
6443 34
6444 56
6445 67
6446 70
6447 16
6448 85
6449 68
6450 27
6451 39
6452 21
6453 16
6454 39
6455 70
6456 83
6457 34
6458 15
6459 4
6460 49
6461 20
6462 56
6463 50
6464 8
6465 17
6466 8
6467 83
6468 51
6469 80
6470 3
6471 17
6472 11
6473 26
6474 41
6475 35
6476 8
6477 84
6478 48
6479 36
6480 54
6481 69
6482 22
6483 87
6484 39
6485 22
6486 52
6487 77
6488 5
6489 74
6490 66
6491 3
6492 23
6493 12
6494 67
6495 70
6496 87
6497 63
6498 60
6499 25
6500 76
6501 36
6502 79
6503 18
6504 74
6505 38
6506 70
6507 58
6508 36
6509 36
6510 44
6511 4
6512 77
6513 31
6514 39
6515 1
6516 69
6517 5
6518 83
6519 60
6520 55
6521 31
6522 13
6523 54
6524 43
6525 22
6526 17
6527 0
6528 27
6529 18
6530 4
6531 35
6532 85
6533 70
6534 3
6535 87
6536 31
6537 8
6538 3
6539 8
6540 41
6541 82
6542 39
6543 2
6544 64
6545 2
6546 73
6547 22
6548 25
6549 56
6550 60
6551 42
6552 61
6553 37
6554 82
6555 31
6556 74
6557 14
6558 34
6559 50
6560 16
6561 27
6562 19
6563 13
6564 58
6565 75
6566 81
6567 51
6568 87
6569 69
6570 68
6571 5
6572 15
6573 6
6574 52
6575 48
6576 19
6577 3
6578 31
6579 58
6580 53
6581 63
6582 58
6583 72
6584 48
6585 31
6586 30
6587 85
6588 51
6589 35
6590 63
6591 67
6592 11
6593 3
6594 5
6595 88
6596 23
6597 1
6598 81
6599 16
6600 23
6601 70
6602 90
6603 5
6604 30
6605 13
6606 41
6607 73
6608 12
6609 74
6610 23
6611 17
6612 47
6613 70
6614 20
6615 66
6616 43
6617 40
6618 7
6619 7
6620 69
6621 66
6622 33
6623 76
6624 23
6625 6
6626 53
6627 50
6628 81
6629 81
6630 21
6631 80
6632 70
6633 14
6634 27
6635 69
6636 34
6637 76
6638 17
6639 6
6640 61
6641 36
6642 53
6643 72
6644 57
6645 12
6646 7
6647 61
6648 5
6649 54
6650 78
6651 39
6652 16
6653 27
6654 31
6655 36
6656 18
6657 78
6658 16
6659 39
6660 58
6661 33
6662 78
6663 31
6664 61
6665 12
6666 16
6667 33
6668 36
6669 40
6670 6
6671 81
6672 41
6673 11
6674 75
6675 6
6676 33
6677 35
6678 7
6679 19
6680 7
6681 33
6682 83
6683 12
6684 34
6685 59
6686 29
6687 61
6688 69
6689 83
6690 24
6691 87
6692 5
6693 42
6694 57
6695 76
6696 57
6697 0
6698 9
6699 66
6700 68
6701 81
6702 76
6703 67
6704 16
6705 44
6706 5
6707 5
6708 58
6709 29
6710 39
6711 87
6712 64
6713 61
6714 0
6715 7
6716 4
6717 12
6718 85
6719 23
6720 21
6721 21
6722 51
6723 55
6724 16
6725 48
6726 25
6727 7
6728 56
6729 8
6730 79
6731 32
6732 43
6733 49
6734 15
6735 4
6736 53
6737 31
6738 8
6739 62
6740 3
6741 20
6742 25
6743 25
6744 50
6745 4
6746 37
6747 21
6748 5
6749 11
6750 65
6751 20
6752 29
6753 10
6754 21
6755 76
6756 76
6757 35
6758 60
6759 71
6760 70
6761 33
6762 86
6763 65
6764 33
6765 34
6766 48
6767 20
6768 25
6769 69
6770 70
6771 27
6772 43
6773 41
6774 50
6775 52
6776 29
6777 68
6778 4
6779 22
6780 42
6781 3
6782 68
6783 40
6784 78
6785 11
6786 75
6787 77
6788 16
6789 52
6790 86
6791 2
6792 32
6793 5
6794 19
6795 44
6796 55
6797 40
6798 34
6799 26
6800 69
6801 65
6802 67
6803 79
6804 85
6805 82
6806 63
6807 84
6808 53
6809 41
6810 36
6811 70
6812 69
6813 81
6814 23
6815 58
6816 63
6817 42
6818 36
6819 48
6820 4
6821 48
6822 70
6823 26
6824 44
6825 82
6826 46
6827 82
6828 41
6829 22
6830 11
6831 23
6832 22
6833 11
6834 32
6835 37
6836 42
6837 87
6838 87
6839 55
6840 61
6841 42
6842 58
6843 36
6844 36
6845 4
6846 51
6847 71
6848 70
6849 69
6850 63
6851 67
6852 73
6853 77
6854 69
6855 11
6856 52
6857 82
6858 68
6859 66
6860 7
6861 84
6862 70
6863 79
6864 23
6865 20
6866 46
6867 52
6868 78
6869 70
6870 29
6871 62
6872 61
6873 16
6874 17
6875 79
6876 86
6877 43
6878 34
6879 84
6880 30
6881 61
6882 0
6883 69
6884 5
6885 57
6886 47
6887 17
6888 22
6889 45
6890 32
6891 37
6892 62
6893 28
6894 16
6895 37
6896 15
6897 87
6898 1
6899 33
6900 58
6901 26
6902 18
6903 33
6904 1
6905 21
6906 15
6907 72
6908 88
6909 18
6910 64
6911 3
6912 40
6913 38
6914 63
6915 81
6916 18
6917 5
6918 17
6919 77
6920 24
6921 79
6922 48
6923 8
6924 28
6925 76
6926 28
6927 29
6928 5
6929 67
6930 79
6931 53
6932 29
6933 57
6934 48
6935 25
6936 52
6937 42
6938 87
6939 75
6940 25
6941 40
6942 38
6943 50
6944 39
6945 39
6946 52
6947 81
6948 48
6949 64
6950 33
6951 21
6952 66
6953 55
6954 8
6955 64
6956 78
6957 39
6958 79
6959 31
6960 77
6961 5
6962 20
6963 56
6964 79
6965 28
6966 66
6967 69
6968 41
6969 12
6970 75
6971 5
6972 61
6973 78
6974 64
6975 1
6976 37
6977 68
6978 77
6979 6
6980 74
6981 74
6982 61
6983 5
6984 59
6985 76
6986 5
6987 65
6988 37
6989 72
6990 24
6991 55
6992 37
6993 15
6994 5
6995 55
6996 31
6997 84
6998 75
6999 71
7000 53
7001 49
7002 43
7003 50
7004 52
7005 58
7006 42
7007 27
7008 77
7009 31
7010 71
7011 83
7012 3
7013 80
7014 57
7015 28
7016 38
7017 72
7018 56
7019 67
7020 60
7021 1
7022 47
7023 1
7024 62
7025 17
7026 10
7027 78
7028 52
7029 59
7030 12
7031 75
7032 45
7033 22
7034 57
7035 72
7036 26
7037 54
7038 53
7039 45
7040 79
7041 31
7042 54
7043 9
7044 84
7045 5
7046 57
7047 58
7048 59
7049 44
7050 47
7051 8
7052 15
7053 71
7054 50
7055 67
7056 77
7057 39
7058 75
7059 1
7060 70
7061 90
7062 7
7063 30
7064 76
7065 15
7066 69
7067 80
7068 82
7069 48
7070 50
7071 56
7072 33
7073 51
7074 61
7075 7
7076 37
7077 3
7078 40
7079 6
7080 10
7081 28
7082 6
7083 64
7084 33
7085 52
7086 23
7087 0
7088 50
7089 4
7090 64
7091 17
7092 43
7093 58
7094 77
7095 71
7096 39
7097 84
7098 44
7099 72
7100 83
7101 68
7102 69
7103 50
7104 62
7105 56
7106 8
7107 48
7108 10
7109 8
7110 65
7111 16
7112 59
7113 5
7114 56
7115 72
7116 25
7117 70
7118 17
7119 42
7120 36
7121 40
7122 81
7123 65
7124 36
7125 53
7126 81
7127 84
7128 42
7129 26
7130 27
7131 71
7132 64
7133 61
7134 82
7135 21
7136 81
7137 1
7138 89
7139 69
7140 19
7141 30
7142 34
7143 34
7144 51
7145 8
7146 11
7147 84
7148 50
7149 62
7150 41
7151 67
7152 3
7153 45
7154 34
7155 40
7156 30
7157 23
7158 60
7159 61
7160 35
7161 15
7162 83
7163 33
7164 27
7165 84
7166 33
7167 45
7168 31
7169 71
7170 58
7171 23
7172 58
7173 21
7174 48
7175 36
7176 53
7177 14
7178 51
7179 9
7180 35
7181 39
7182 9
7183 88
7184 31
7185 34
7186 64
7187 57
7188 11
7189 36
7190 2
7191 11
7192 19
7193 5
7194 45
7195 12
7196 7
7197 82
7198 15
7199 61
7200 44
7201 56
7202 2
7203 83
7204 74
7205 11
7206 0
7207 8
7208 43
7209 75
7210 17
7211 51
7212 54
7213 64
7214 88
7215 25
7216 42
7217 77
7218 47
7219 67
7220 24
7221 72
7222 8
7223 28
7224 5
7225 3
7226 31
7227 18
7228 61
7229 45
7230 63
7231 18
7232 77
7233 79
7234 16
7235 65
7236 30
7237 82
7238 65
7239 39
7240 74
7241 52
7242 22
7243 39
7244 7
7245 45
7246 55
7247 11
7248 21
7249 70
7250 14
7251 36
7252 3
7253 70
7254 50
7255 89
7256 29
7257 11
7258 47
7259 58
7260 43
7261 34
7262 79
7263 64
7264 11
7265 59
7266 15
7267 26
7268 23
7269 28
7270 64
7271 45
7272 46
7273 20
7274 79
7275 20
7276 40
7277 15
7278 42
7279 25
7280 78
7281 32
7282 19
7283 58
7284 20
7285 40
7286 39
7287 19
7288 84
7289 25
7290 6
7291 38
7292 58
7293 51
7294 58
7295 58
7296 79
7297 58
7298 8
7299 51
7300 79
7301 19
7302 61
7303 42
7304 85
7305 39
7306 61
7307 49
7308 55
7309 50
7310 18
7311 3
7312 36
7313 38
7314 34
7315 89
7316 20
7317 17
7318 28
7319 81
7320 39
7321 24
7322 5
7323 37
7324 15
7325 37
7326 0
7327 6
7328 21
7329 40
7330 21
7331 75
7332 45
7333 14
7334 66
7335 84
7336 37
7337 76
7338 19
7339 72
7340 66
7341 78
7342 74
7343 12
7344 26
7345 59
7346 2
7347 48
7348 28
7349 3
7350 77
7351 58
7352 5
7353 71
7354 17
7355 61
7356 43
7357 5
7358 41
7359 81
7360 18
7361 9
7362 10
7363 68
7364 81
7365 70
7366 16
7367 50
7368 50
7369 14
7370 57
7371 48
7372 5
7373 46
7374 42
7375 61
7376 53
7377 89
7378 5
7379 5
7380 10
7381 56
7382 5
7383 47
7384 81
7385 53
7386 0
7387 38
7388 40
7389 83
7390 15
7391 58
7392 79
7393 82
7394 6
7395 36
7396 62
7397 15
7398 86
7399 67
7400 31
7401 32
7402 86
7403 38
7404 62
7405 70
7406 64
7407 64
7408 81
7409 16
7410 48
7411 76
7412 26
7413 7
7414 58
7415 59
7416 46
7417 16
7418 37
7419 25
7420 72
7421 56
7422 21
7423 6
7424 44
7425 12
7426 61
7427 65
7428 46
7429 69
7430 19
7431 43
7432 72
7433 6
7434 36
7435 33
7436 15
7437 8
7438 67
7439 82
7440 31
7441 53
7442 25
7443 86
7444 44
7445 51
7446 39
7447 42
7448 65
7449 70
7450 75
7451 84
7452 46
7453 38
7454 76
7455 11
7456 51
7457 45
7458 20
7459 26
7460 9
7461 24
7462 40
7463 42
7464 44
7465 48
7466 75
7467 16
7468 40
7469 19
7470 64
7471 83
7472 0
7473 50
7474 75
7475 2
7476 22
7477 22
7478 8
7479 49
7480 23
7481 63
7482 90
7483 52
7484 36
7485 24
7486 43
7487 25
7488 2
7489 81
7490 30
7491 24
7492 63
7493 5
7494 65
7495 38
7496 30
7497 45
7498 5
7499 36
7500 79
7501 68
7502 34
7503 69
7504 47
7505 51
7506 27
7507 50
7508 11
7509 42
7510 40
7511 21
7512 49
7513 9
7514 40
7515 4
7516 49
7517 14
7518 52
7519 2
7520 76
7521 46
7522 31
7523 58
7524 75
7525 11
7526 87
7527 0
7528 89
7529 6
7530 64
7531 72
7532 38
7533 9
7534 4
7535 24
7536 85
7537 55
7538 67
7539 49
7540 5
7541 1
7542 29
7543 74
7544 5
7545 64
7546 50
7547 64
7548 77
7549 81
7550 7
7551 18
7552 47
7553 2
7554 20
7555 33
7556 80
7557 43
7558 72
7559 56
7560 30
7561 17
7562 36
7563 0
7564 11
7565 77
7566 52
7567 35
7568 36
7569 20
7570 0
7571 25
7572 64
7573 5
7574 42
7575 14
7576 30
7577 39
7578 38
7579 27
7580 71
7581 37
7582 8
7583 62
7584 56
7585 53
7586 52
7587 53
7588 90
7589 16
7590 5
7591 13
7592 18
7593 21
7594 18
7595 69
7596 53
7597 4
7598 77
7599 35
7600 50
7601 56
7602 76
7603 69
7604 70
7605 26
7606 65
7607 64
7608 20
7609 32
7610 65
7611 66
7612 36
7613 30
7614 76
7615 58
7616 38
7617 15
7618 6
7619 70
7620 40
7621 19
7622 69
7623 26
7624 84
7625 17
7626 46
7627 70
7628 4
7629 84
7630 75
7631 11
7632 55
7633 34
7634 62
7635 79
7636 84
7637 41
7638 28
7639 61
7640 85
7641 22
7642 51
7643 76
7644 7
7645 51
7646 18
7647 33
7648 69
7649 2
7650 56
7651 55
7652 68
7653 45
7654 26
7655 50
7656 19
7657 42
7658 74
7659 9
7660 6
7661 51
7662 44
7663 36
7664 81
7665 18
7666 44
7667 23
7668 54
7669 61
7670 45
7671 16
7672 42
7673 21
7674 38
7675 14
7676 10
7677 15
7678 25
7679 84
7680 51
7681 13
7682 37
7683 74
7684 73
7685 77
7686 19
7687 0
7688 33
7689 83
7690 51
7691 18
7692 11
7693 58
7694 52
7695 8
7696 77
7697 18
7698 81
7699 19
7700 20
7701 84
7702 56
7703 58
7704 33
7705 58
7706 74
7707 23
7708 67
7709 47
7710 85
7711 51
7712 49
7713 36
7714 36
7715 35
7716 35
7717 63
7718 59
7719 38
7720 47
7721 71
7722 22
7723 45
7724 8
7725 84
7726 57
7727 23
7728 3
7729 44
7730 10
7731 62
7732 18
7733 13
7734 13
7735 29
7736 44
7737 80
7738 16
7739 44
7740 29
7741 40
7742 81
7743 49
7744 79
7745 87
7746 72
7747 81
7748 86
7749 46
7750 10
7751 26
7752 33
7753 18
7754 40
7755 72
7756 61
7757 20
7758 78
7759 68
7760 48
7761 51
7762 2
7763 43
7764 42
7765 75
7766 19
7767 16
7768 6
7769 5
7770 30
7771 1
7772 58
7773 15
7774 67
7775 87
7776 75
7777 39
7778 71
7779 86
7780 68
7781 45
7782 47
7783 44
7784 86
7785 60
7786 15
7787 38
7788 50
7789 13
7790 23
7791 38
7792 56
7793 2
7794 62
7795 34
7796 28
7797 45
7798 26
7799 5
7800 25
7801 33
7802 47
7803 82
7804 52
7805 29
7806 61
7807 56
7808 15
7809 36
7810 4
7811 26
7812 70
7813 82
7814 69
7815 37
7816 19
7817 72
7818 78
7819 0
7820 79
7821 32
7822 45
7823 38
7824 87
7825 77
7826 35
7827 82
7828 17
7829 43
7830 58
7831 43
7832 70
7833 31
7834 79
7835 9
7836 34
7837 24
7838 28
7839 6
7840 15
7841 77
7842 66
7843 54
7844 16
7845 36
7846 16
7847 73
7848 83
7849 84
7850 2
7851 61
7852 22
7853 75
7854 78
7855 17
7856 67
7857 61
7858 52
7859 24
7860 20
7861 85
7862 50
7863 52
7864 5
7865 18
7866 70
7867 40
7868 85
7869 9
7870 51
7871 57
7872 57
7873 39
7874 7
7875 23
7876 48
7877 38
7878 48
7879 49
7880 64
7881 23
7882 75
7883 35
7884 86
7885 23
7886 17
7887 61
7888 2
7889 76
7890 16
7891 79
7892 7
7893 77
7894 23
7895 59
7896 28
7897 39
7898 58
7899 4
7900 39
7901 75
7902 64
7903 24
7904 81
7905 56
7906 59
7907 58
7908 5
7909 83
7910 73
7911 33
7912 12
7913 79
7914 6
7915 53
7916 31
7917 61
7918 26
7919 51
7920 14
7921 28
7922 49
7923 56
7924 18
7925 8
7926 65
7927 20
7928 48
7929 50
7930 58
7931 6
7932 66
7933 74
7934 10
7935 35
7936 48
7937 86
7938 69
7939 16
7940 78
7941 88
7942 45
7943 42
7944 25
7945 44
7946 48
7947 57
7948 54
7949 8
7950 45
7951 12
7952 82
7953 76
7954 51
7955 72
7956 36
7957 27
7958 86
7959 44
7960 83
7961 10
7962 1
7963 54
7964 66
7965 16
7966 39
7967 61
7968 81
7969 70
7970 4
7971 64
7972 56
7973 84
7974 41
7975 39
7976 6
7977 68
7978 82
7979 90
7980 72
7981 6
7982 41
7983 61
7984 79
7985 75
7986 36
7987 15
7988 27
7989 8
7990 60
7991 48
7992 9
7993 70
7994 32
7995 24
7996 16
7997 48
7998 20
7999 86
8000 73
8001 83
8002 22
8003 44
8004 82
8005 6
8006 42
8007 59
8008 70
8009 26
8010 20
8011 72
8012 11
8013 45
8014 22
8015 23
8016 50
8017 5
8018 37
8019 40
8020 52
8021 35
8022 75
8023 42
8024 76
8025 61
8026 17
8027 5
8028 81
8029 65
8030 6
8031 6
8032 21
8033 27
8034 44
8035 62
8036 61
8037 74
8038 23
8039 11
8040 32
8041 23
8042 44
8043 25
8044 5
8045 52
8046 72
8047 43
8048 68
8049 17
8050 59
8051 35
8052 36
8053 52
8054 11
8055 2
8056 13
8057 44
8058 30
8059 37
8060 43
8061 4
8062 29
8063 39
8064 55
8065 60
8066 90
8067 86
8068 69
8069 50
8070 22
8071 29
8072 81
8073 3
8074 1
8075 86
8076 77
8077 64
8078 6
8079 65
8080 80
8081 63
8082 53
8083 53
8084 15
8085 45
8086 4
8087 29
8088 41
8089 11
8090 31
8091 87
8092 48
8093 41
8094 59
8095 1
8096 39
8097 73
8098 53
8099 26
8100 40
8101 43
8102 6
8103 12
8104 5
8105 77
8106 38
8107 53
8108 19
8109 32
8110 38
8111 22
8112 54
8113 83
8114 18
8115 43
8116 59
8117 4
8118 28
8119 42
8120 73
8121 73
8122 57
8123 52
8124 57
8125 36
8126 79
8127 31
8128 28
8129 21
8130 36
8131 11
8132 50
8133 59
8134 72
8135 90
8136 66
8137 77
8138 58
8139 13
8140 8
8141 39
8142 84
8143 46
8144 70
8145 20
8146 9
8147 67
8148 86
8149 67
8150 7
8151 90
8152 20
8153 18
8154 33
8155 39
8156 70
8157 24
8158 24
8159 0
8160 51
8161 72
8162 8
8163 64
8164 6
8165 7
8166 11
8167 73
8168 61
8169 86
8170 35
8171 5
8172 34
8173 20
8174 70
8175 42
8176 44
8177 58
8178 8
8179 79
8180 37
8181 58
8182 48
8183 85
8184 76
8185 84
8186 32
8187 53
8188 48
8189 64
8190 86
8191 33
8192 37
8193 33
8194 81
8195 76
8196 11
8197 85
8198 13
8199 77
8200 87
8201 86
8202 40
8203 4
8204 9
8205 78
8206 72
8207 43
8208 74
8209 0
8210 83
8211 81
8212 19
8213 37
8214 15
8215 58
8216 30
8217 68
8218 40
8219 89
8220 43
8221 73
8222 82
8223 53
8224 19
8225 72
8226 20
8227 3
8228 79
8229 84
8230 60
8231 10
8232 88
8233 9
8234 18
8235 52
8236 15
8237 55
8238 17
8239 70
8240 1
8241 17
8242 18
8243 33
8244 57
8245 51
8246 36
8247 56
8248 38
8249 22
8250 16
8251 58
8252 55
8253 5
8254 49
8255 41
8256 18
8257 76
8258 37
8259 90
8260 38
8261 51
8262 63
8263 54
8264 2
8265 81
8266 18
8267 81
8268 47
8269 86
8270 44
8271 36
8272 84
8273 3
8274 7
8275 81
8276 48
8277 66
8278 89
8279 13
8280 48
8281 28
8282 75
8283 33
8284 70
8285 29
8286 8
8287 48
8288 31
8289 17
8290 40
8291 86
8292 65
8293 21
8294 53
8295 67
8296 64
8297 9
8298 26
8299 55
8300 82
8301 12
8302 24
8303 18
8304 4
8305 37
8306 37
8307 50
8308 29
8309 38
8310 52
8311 5
8312 69
8313 56
8314 42
8315 81
8316 8
8317 86
8318 1
8319 31
8320 38
8321 33
8322 43
8323 16
8324 7
8325 72
8326 66
8327 67
8328 28
8329 56
8330 12
8331 70
8332 75
8333 71
8334 40
8335 9
8336 39
8337 31
8338 64
8339 23
8340 50
8341 38
8342 61
8343 65
8344 71
8345 21
8346 36
8347 25
8348 27
8349 86
8350 81
8351 79
8352 3
8353 67
8354 55
8355 7
8356 2
8357 69
8358 26
8359 34
8360 58
8361 86
8362 32
8363 83
8364 28
8365 49
8366 79
8367 78
8368 50
8369 69
8370 52
8371 75
8372 43
8373 4
8374 26
8375 20
8376 51
8377 67
8378 56
8379 51
8380 16
8381 40
8382 70
8383 81
8384 58
8385 24
8386 48
8387 59
8388 20
8389 31
8390 81
8391 3
8392 10
8393 15
8394 83
8395 72
8396 63
8397 34
8398 43
8399 53
8400 63
8401 23
8402 75
8403 36
8404 55
8405 54
8406 70
8407 46
8408 44
8409 70
8410 42
8411 40
8412 46
8413 57
8414 21
8415 5
8416 33
8417 18
8418 19
8419 5
8420 24
8421 24
8422 51
8423 68
8424 16
8425 17
8426 70
8427 72
8428 35
8429 69
8430 82
8431 51
8432 41
8433 71
8434 18
8435 64
8436 74
8437 62
8438 81
8439 3
8440 44
8441 18
8442 6
8443 16
8444 49
8445 86
8446 60
8447 9
8448 17
8449 47
8450 79
8451 36
8452 28
8453 50
8454 26
8455 52
8456 33
8457 47
8458 20
8459 50
8460 70
8461 79
8462 53
8463 6
8464 60
8465 6
8466 61
8467 31
8468 64
8469 42
8470 65
8471 57
8472 15
8473 4
8474 68
8475 36
8476 72
8477 44
8478 41
8479 63
8480 6
8481 83
8482 23
8483 69
8484 88
8485 65
8486 46
8487 19
8488 37
8489 34
8490 15
8491 1
8492 82
8493 73
8494 77
8495 40
8496 41
8497 15
8498 54
8499 56
8500 81
8501 57
8502 75
8503 5
8504 42
8505 64
8506 38
8507 72
8508 56
8509 90
8510 53
8511 6
8512 86
8513 11
8514 79
8515 64
8516 64
8517 19
8518 79
8519 86
8520 13
8521 28
8522 76
8523 19
8524 68
8525 25
8526 40
8527 47
8528 28
8529 84
8530 15
8531 16
8532 78
8533 58
8534 30
8535 36
8536 7
8537 84
8538 44
8539 59
8540 57
8541 26
8542 76
8543 41
8544 53
8545 83
8546 44
8547 66
8548 22
8549 74
8550 66
8551 82
8552 5
8553 29
8554 9
8555 89
8556 16
8557 83
8558 45
8559 41
8560 69
8561 18
8562 86
8563 36
8564 65
8565 0
8566 61
8567 53
8568 56
8569 8
8570 58
8571 59
8572 38
8573 1
8574 81
8575 77
8576 46
8577 76
8578 20
8579 79
8580 52
8581 68
8582 39
8583 17
8584 65
8585 43
8586 80
8587 16
8588 22
8589 77
8590 61
8591 41
8592 33
8593 52
8594 6
8595 3
8596 58
8597 87
8598 34
8599 60
8600 46
8601 71
8602 10
8603 35
8604 17
8605 52
8606 32
8607 55
8608 66
8609 16
8610 49
8611 59
8612 48
8613 17
8614 67
8615 52
8616 15
8617 34
8618 63
8619 60
8620 73
8621 77
8622 35
8623 33
8624 45
8625 44
8626 75
8627 22
8628 3
8629 26
8630 69
8631 1
8632 27
8633 26
8634 80
8635 56
8636 0
8637 66
8638 42
8639 73
8640 53
8641 37
8642 48
8643 11
8644 26
8645 24
8646 15
8647 36
8648 62
8649 64
8650 50
8651 64
8652 39
8653 39
8654 0
8655 59
8656 27
8657 78
8658 64
8659 48
8660 8
8661 5
8662 62
8663 38
8664 34
8665 44
8666 22
8667 51
8668 37
8669 43
8670 87
8671 52
8672 38
8673 84
8674 15
8675 20
8676 61
8677 13
8678 20
8679 17
8680 61
8681 81
8682 19
8683 28
8684 37
8685 56
8686 38
8687 15
8688 3
8689 13
8690 3
8691 16
8692 78
8693 22
8694 64
8695 61
8696 28
8697 26
8698 36
8699 51
8700 40
8701 2
8702 79
8703 39
8704 69
8705 87
8706 65
8707 6
8708 0
8709 50
8710 57
8711 34
8712 78
8713 58
8714 70
8715 26
8716 32
8717 54
8718 23
8719 7
8720 19
8721 21
8722 59
8723 10
8724 56
8725 6
8726 13
8727 84
8728 4
8729 52
8730 25
8731 54
8732 0
8733 42
8734 17
8735 30
8736 63
8737 39
8738 30
8739 24
8740 85
8741 46
8742 1
8743 59
8744 15
8745 66
8746 54
8747 46
8748 75
8749 79
8750 73
8751 64
8752 45
8753 19
8754 78
8755 86
8756 60
8757 10
8758 81
8759 55
8760 9
8761 77
8762 45
8763 11
8764 52
8765 45
8766 82
8767 66
8768 4
8769 69
8770 30
8771 15
8772 81
8773 62
8774 4
8775 49
8776 55
8777 10
8778 56
8779 68
8780 54
8781 68
8782 29
8783 44
8784 56
8785 2
8786 65
8787 59
8788 20
8789 52
8790 34
8791 22
8792 64
8793 71
8794 63
8795 57
8796 76
8797 6
8798 5
8799 69
8800 40
8801 65
8802 40
8803 39
8804 65
8805 6
8806 44
8807 61
8808 30
8809 4
8810 72
8811 54
8812 23
8813 64
8814 61
8815 50
8816 36
8817 45
8818 18
8819 29
8820 46
8821 25
8822 82
8823 17
8824 56
8825 66
8826 17
8827 75
8828 75
8829 36
8830 79
8831 35
8832 16
8833 61
8834 84
8835 55
8836 4
8837 72
8838 31
8839 65
8840 4
8841 82
8842 23
8843 73
8844 33
8845 16
8846 16
8847 55
8848 73
8849 9
8850 12
8851 35
8852 18
8853 50
8854 16
8855 50
8856 25
8857 37
8858 22
8859 34
8860 70
8861 21
8862 79
8863 23
8864 73
8865 87
8866 56
8867 5
8868 28
8869 34
8870 23
8871 36
8872 56
8873 1
8874 38
8875 68
8876 18
8877 30
8878 80
8879 0
8880 45
8881 89
8882 15
8883 13
8884 67
8885 0
8886 78
8887 58
8888 16
8889 20
8890 5
8891 84
8892 86
8893 54
8894 31
8895 25
8896 19
8897 61
8898 58
8899 35
8900 51
8901 76
8902 44
8903 68
8904 55
8905 64
8906 90
8907 60
8908 44
8909 61
8910 2
8911 36
8912 78
8913 58
8914 65
8915 27
8916 57
8917 45
8918 27
8919 16
8920 4
8921 4
8922 74
8923 19
8924 14
8925 18
8926 67
8927 45
8928 51
8929 6
8930 79
8931 17
8932 42
8933 24
8934 11
8935 75
8936 21
8937 13
8938 47
8939 81
8940 39
8941 75
8942 42
8943 16
8944 15
8945 67
8946 46
8947 78
8948 4
8949 79
8950 56
8951 70
8952 55
8953 68
8954 52
8955 41
8956 34
8957 84
8958 41
8959 69
8960 80
8961 40
8962 63
8963 24
8964 55
8965 37
8966 22
8967 6
8968 52
8969 69
8970 22
8971 84
8972 44
8973 74
8974 13
8975 3
8976 44
8977 67
8978 63
8979 11
8980 88
8981 22
8982 40
8983 80
8984 50
8985 31
8986 63
8987 25
8988 4
8989 16
8990 51
8991 20
8992 74
8993 15
8994 47
8995 33
8996 53
8997 27
8998 76
8999 29
9000 64
9001 84
9002 47
9003 62
9004 75
9005 60
9006 4
9007 29
9008 12
9009 8
9010 19
9011 58
9012 83
9013 45
9014 58
9015 19
9016 31
9017 67
9018 60
9019 14
9020 87
9021 36
9022 51
9023 29
9024 43
9025 12
9026 59
9027 32
9028 29
9029 62
9030 73
9031 84
9032 12
9033 29
9034 50
9035 76
9036 33
9037 8
9038 78
9039 25
9040 65
9041 50
9042 50
9043 76
9044 69
9045 19
9046 45
9047 61
9048 62
9049 31
9050 12
9051 23
9052 44
9053 6
9054 77
9055 52
9056 32
9057 39
9058 17
9059 6
9060 45
9061 19
9062 46
9063 69
9064 15
9065 81
9066 28
9067 60
9068 43
9069 9
9070 45
9071 28
9072 77
9073 86
9074 85
9075 4
9076 21
9077 9
9078 25
9079 6
9080 8
9081 16
9082 19
9083 16
9084 51
9085 31
9086 28
9087 86
9088 34
9089 73
9090 5
9091 79
9092 44
9093 79
9094 9
9095 39
9096 42
9097 16
9098 16
9099 24
9100 27
9101 50
9102 26
9103 31
9104 3
9105 72
9106 12
9107 37
9108 25
9109 38
9110 76
9111 7
9112 65
9113 25
9114 60
9115 73
9116 5
9117 24
9118 7
9119 29
9120 44
9121 61
9122 7
9123 5
9124 57
9125 19
9126 16
9127 60
9128 39
9129 86
9130 34
9131 47
9132 35
9133 73
9134 78
9135 28
9136 45
9137 18
9138 51
9139 69
9140 20
9141 82
9142 83
9143 26
9144 44
9145 73
9146 36
9147 69
9148 38
9149 48
9150 58
9151 3
9152 58
9153 11
9154 11
9155 57
9156 87
9157 17
9158 19
9159 40
9160 0
9161 81
9162 48
9163 51
9164 50
9165 56
9166 4
9167 19
9168 53
9169 21
9170 17
9171 5
9172 19
9173 50
9174 26
9175 19
9176 65
9177 52
9178 15
9179 39
9180 5
9181 16
9182 80
9183 40
9184 18
9185 18
9186 5
9187 52
9188 75
9189 88
9190 28
9191 26
9192 53
9193 25
9194 88
9195 73
9196 31
9197 28
9198 89
9199 51
9200 70
9201 67
9202 25
9203 31
9204 34
9205 76
9206 19
9207 86
9208 19
9209 76
9210 71
9211 69
9212 66
9213 23
9214 61
9215 40
9216 40
9217 19
9218 65
9219 3
9220 73
9221 10
9222 22
9223 56
9224 68
9225 42
9226 67
9227 74
9228 44
9229 40
9230 24
9231 8
9232 78
9233 48
9234 60
9235 3
9236 75
9237 60
9238 46
9239 10
9240 13
9241 56
9242 23
9243 77
9244 14
9245 57
9246 43
9247 5
9248 38
9249 35
9250 27
9251 46
9252 42
9253 88
9254 16
9255 16
9256 30
9257 28
9258 38
9259 9
9260 57
9261 21
9262 38
9263 38
9264 45
9265 87
9266 20
9267 69
9268 31
9269 69
9270 65
9271 51
9272 77
9273 60
9274 70
9275 54
9276 77
9277 63
9278 73
9279 33
9280 14
9281 64
9282 38
9283 28
9284 63
9285 40
9286 15
9287 4
9288 68
9289 51
9290 3
9291 5
9292 52
9293 25
9294 48
9295 76
9296 28
9297 55
9298 48
9299 81
9300 3
9301 23
9302 40
9303 5
9304 84
9305 4
9306 37
9307 48
9308 9
9309 22
9310 76
9311 16
9312 5
9313 51
9314 16
9315 57
9316 33
9317 62
9318 45
9319 32
9320 72
9321 33
9322 18
9323 51
9324 40
9325 14
9326 12
9327 34
9328 27
9329 26
9330 68
9331 11
9332 87
9333 32
9334 62
9335 38
9336 81
9337 86
9338 79
9339 36
9340 65
9341 6
9342 53
9343 79
9344 19
9345 82
9346 38
9347 53
9348 24
9349 50
9350 70
9351 33
9352 48
9353 48
9354 81
9355 38
9356 74
9357 57
9358 23
9359 6
9360 28
9361 65
9362 38
9363 25
9364 88
9365 58
9366 76
9367 65
9368 4
9369 67
9370 71
9371 34
9372 67
9373 9
9374 17
9375 89
9376 25
9377 19
9378 16
9379 43
9380 87
9381 17
9382 6
9383 66
9384 7
9385 59
9386 65
9387 72
9388 75
9389 31
9390 84
9391 27
9392 44
9393 70
9394 38
9395 78
9396 81
9397 2
9398 69
9399 87
9400 23
9401 56
9402 74
9403 16
9404 77
9405 29
9406 47
9407 86
9408 64
9409 20
9410 77
9411 81
9412 40
9413 58
9414 40
9415 3
9416 78
9417 31
9418 76
9419 79
9420 45
9421 18
9422 48
9423 51
9424 50
9425 15
9426 6
9427 64
9428 44
9429 18
9430 85
9431 56
9432 11
9433 33
9434 29
9435 22
9436 79
9437 18
9438 19
9439 18
9440 42
9441 5
9442 53
9443 45
9444 75
9445 26
9446 57
9447 44
9448 35
9449 20
9450 61
9451 84
9452 42
9453 24
9454 47
9455 31
9456 74
9457 22
9458 2
9459 16
9460 6
9461 47
9462 58
9463 36
9464 61
9465 85
9466 44
9467 60
9468 52
9469 61
9470 11
9471 69
9472 73
9473 57
9474 14
9475 17
9476 62
9477 87
9478 20
9479 15
9480 29
9481 20
9482 75
9483 86
9484 55
9485 56
9486 41
9487 19
9488 67
9489 26
9490 76
9491 4
9492 10
9493 32
9494 31
9495 45
9496 64
9497 83
9498 45
9499 31
9500 32
9501 58
9502 53
9503 76
9504 37
9505 73
9506 58
9507 72
9508 87
9509 25
9510 25
9511 73
9512 38
9513 90
9514 31
9515 18
9516 51
9517 20
9518 6
9519 64
9520 72
9521 4
9522 67
9523 11
9524 0
9525 18
9526 53
9527 44
9528 45
9529 86
9530 85
9531 61
9532 25
9533 75
9534 20
9535 87
9536 90
9537 20
9538 39
9539 64
9540 86
9541 73
9542 38
9543 85
9544 68
9545 44
9546 26
9547 36
9548 29
9549 33
9550 24
9551 1
9552 60
9553 75
9554 45
9555 5
9556 50
9557 81
9558 67
9559 61
9560 12
9561 66
9562 63
9563 66
9564 77
9565 58
9566 42
9567 56
9568 46
9569 22
9570 80
9571 31
9572 45
9573 69
9574 70
9575 9
9576 34
9577 71
9578 77
9579 18
9580 16
9581 71
9582 5
9583 8
9584 47
9585 84
9586 8
9587 9
9588 51
9589 31
9590 77
9591 20
9592 15
9593 68
9594 69
9595 79
9596 41
9597 17
9598 75
9599 11
9600 50
9601 55
9602 26
9603 58
9604 18
9605 70
9606 66
9607 80
9608 39
9609 63
9610 54
9611 61
9612 15
9613 60
9614 89
9615 3
9616 83
9617 26
9618 34
9619 79
9620 55
9621 87
9622 46
9623 51
9624 44
9625 53
9626 64
9627 18
9628 83
9629 38
9630 57
9631 50
9632 48
9633 31
9634 19
9635 59
9636 79
9637 13
9638 48
9639 9
9640 33
9641 16
9642 47
9643 5
9644 15
9645 59
9646 13
9647 71
9648 36
9649 22
9650 42
9651 47
9652 59
9653 12
9654 67
9655 80
9656 40
9657 57
9658 7
9659 6
9660 52
9661 44
9662 36
9663 49
9664 77
9665 37
9666 51
9667 52
9668 49
9669 42
9670 17
9671 53
9672 83
9673 42
9674 24
9675 6
9676 86
9677 86
9678 29
9679 52
9680 52
9681 62
9682 31
9683 17
9684 74
9685 20
9686 77
9687 87
9688 46
9689 44
9690 23
9691 33
9692 66
9693 88
9694 52
9695 59
9696 26
9697 58
9698 26
9699 86
9700 44
9701 16
9702 15
9703 48
9704 39
9705 87
9706 40
9707 67
9708 61
9709 54
9710 57
9711 19
9712 88
9713 3
9714 82
9715 3
9716 11
9717 67
9718 11
9719 77
9720 78
9721 58
9722 86
9723 82
9724 0
9725 69
9726 64
9727 83
9728 67
9729 83
9730 41
9731 66
9732 76
9733 76
9734 70
9735 74
9736 12
9737 18
9738 15
9739 73
9740 10
9741 58
9742 82
9743 66
9744 86
9745 45
9746 5
9747 36
9748 52
9749 51
9750 7
9751 19
9752 75
9753 20
9754 69
9755 1
9756 84
9757 24
9758 62
9759 46
9760 51
9761 34
9762 25
9763 6
9764 55
9765 58
9766 39
9767 63
9768 20
9769 77
9770 79
9771 71
9772 77
9773 40
9774 82
9775 65
9776 62
9777 26
9778 77
9779 44
9780 28
9781 8
9782 67
9783 25
9784 25
9785 30
9786 22
9787 65
9788 70
9789 53
9790 86
9791 18
9792 16
9793 41
9794 48
9795 51
9796 28
9797 39
9798 2
9799 23
9800 19
9801 13
9802 43
9803 79
9804 69
9805 31
9806 9
9807 80
9808 46
9809 49
9810 51
9811 29
9812 23
9813 20
9814 5
9815 44
9816 42
9817 16
9818 11
9819 5
9820 80
9821 30
9822 76
9823 59
9824 7
9825 75
9826 25
9827 81
9828 5
9829 0
9830 5
9831 28
9832 32
9833 74
9834 5
9835 5
9836 6
9837 34
9838 73
9839 2
9840 6
9841 12
9842 55
9843 67
9844 12
9845 55
9846 17
9847 40
9848 56
9849 81
9850 12
9851 30
9852 84
9853 2
9854 8
9855 83
9856 39
9857 18
9858 71
9859 31
9860 51
9861 59
9862 68
9863 60
9864 58
9865 77
9866 52
9867 23
9868 36
9869 72
9870 55
9871 36
9872 17
9873 76
9874 5
9875 11
9876 73
9877 26
9878 19
9879 17
9880 19
9881 45
9882 81
9883 90
9884 63
9885 1
9886 47
9887 8
9888 57
9889 6
9890 89
9891 64
9892 70
9893 7
9894 19
9895 30
9896 69
9897 15
9898 11
9899 89
9900 46
9901 72
9902 22
9903 62
9904 27
9905 53
9906 55
9907 42
9908 48
9909 31
9910 39
9911 7
9912 66
9913 23
9914 37
9915 9
9916 52
9917 18
9918 85
9919 56
9920 47
9921 18
9922 20
9923 67
9924 35
9925 18
9926 87
9927 5
9928 24
9929 63
9930 19
9931 29
9932 34
9933 81
9934 83
9935 57
9936 76
9937 14
9938 65
9939 76
9940 5
9941 77
9942 36
9943 72
9944 50
9945 86
9946 85
9947 6
9948 5
9949 38
9950 73
9951 33
9952 51
9953 8
9954 47
9955 12
9956 81
9957 17
9958 11
9959 46
9960 12
9961 21
9962 8
9963 67
9964 6
9965 33
9966 80
9967 19
9968 26
9969 38
9970 72
9971 25
9972 75
9973 28
9974 75
9975 65
9976 49
9977 63
9978 35
9979 22
9980 23
9981 5
9982 48
9983 8
9984 55
9985 82
9986 72
9987 50
9988 69
9989 31
9990 87
9991 52
9992 54
9993 31
9994 52
9995 29
9996 83
9997 12
9998 62
9999 58
