0 0
1 1
2 2
3 3
4 4
5 5
6 6
7 7
8 8
9 9
10 10
11 11
12 12
13 13
14 14
15 15
16 16
17 17
18 0
19 18
20 19
21 19
22 20
23 21
24 22
25 23
26 24
27 25
28 26
29 27
30 28
31 29
32 30
33 31
34 14
35 6
36 32
37 2
38 33
39 13
40 34
41 35
42 29
43 36
44 25
45 37
46 36
47 38
48 25
49 39
50 40
51 41
52 42
53 43
54 19
55 14
56 6
57 44
58 5
59 45
60 46
61 47
62 15
63 18
64 48
65 21
66 49
67 43
68 50
69 11
70 7
71 51
72 21
73 33
74 52
75 41
76 48
77 53
78 54
79 55
80 56
81 25
82 57
83 14
84 18
85 31
86 58
87 16
88 59
89 4
90 11
91 60
92 61
93 21
94 34
95 62
96 24
97 10
98 14
99 49
100 26
101 30
102 63
103 1
104 41
105 23
106 14
107 64
108 21
109 11
110 65
111 66
112 67
113 68
114 42
115 69
116 55
117 21
118 23
119 26
120 70
121 71
122 72
123 10
124 73
125 1
126 64
127 24
128 69
129 74
130 37
131 75
132 76
133 77
134 78
135 16
136 13
137 19
138 79
139 80
140 81
141 11
142 81
143 3
144 30
145 33
146 66
147 37
148 82
149 39
150 19
151 76
152 48
153 83
154 15
155 30
156 84
157 65
158 43
159 8
160 61
161 20
162 85
163 68
164 76
165 18
166 18
167 6
168 71
169 28
170 39
171 23
172 34
173 23
174 8
175 81
176 54
177 26
178 86
179 36
180 87
181 34
182 13
183 79
184 65
185 13
186 71
187 39
188 63
189 78
190 86
191 88
192 66
193 15
194 25
195 45
196 89
197 63
198 90
199 53
200 28
201 18
202 24
203 83
204 20
205 76
206 41
207 36
208 28
209 51
210 54
211 84
212 76
213 66
214 81
215 39
216 51
217 90
218 19
219 28
220 31
221 39
222 86
223 21
224 18
225 46
226 13
227 13
228 20
229 13
230 84
231 35
232 46
233 7
234 91
235 92
236 4
237 85
238 65
239 29
240 68
241 29
242 69
243 21
244 5
245 86
246 51
247 93
248 64
249 94
250 48
251 91
252 95
253 90
254 93
255 28
256 50
257 96
258 14
259 10
260 54
261 20
262 40
263 44
264 82
265 48
266 59
267 18
268 22
269 51
270 87
271 53
272 28
273 48
274 39
275 68
276 97
277 96
278 64
279 80
280 55
281 1
282 93
283 51
284 49
285 14
286 19
287 76
288 30
289 41
290 28
291 1
292 39
293 51
294 19
295 28
296 31
297 74
298 98
299 51
300 3
301 62
302 42
303 99
304 69
305 86
306 96
307 81
308 46
309 24
310 97
311 10
312 17
313 11
314 92
315 14
316 66
317 86
318 50
319 82
320 68
321 58
322 39
323 83
324 64
325 6
326 30
327 33
328 3
329 66
330 89
331 56
332 97
333 97
334 14
335 55
336 42
337 34
338 10
339 73
340 19
341 83
342 68
343 6
344 34
345 86
346 64
347 2
348 51
349 34
350 55
351 47
352 46
353 22
354 95
355 68
356 0
357 55
358 27
359 9
360 23
361 51
362 49
363 72
364 3
365 26
366 50
367 86
368 26
369 11
370 84
371 35
372 51
373 30
374 43
375 100
376 33
377 63
378 80
379 64
380 100
381 101
382 11
383 86
384 69
385 23
386 11
387 86
388 8
389 97
390 85
391 7
392 18
393 54
394 30
395 19
396 0
397 73
398 71
399 55
400 28
401 59
402 8
403 24
404 53
405 55
406 21
407 94
408 7
409 91
410 79
411 72
412 18
413 22
414 36
415 17
416 73
417 16
418 7
419 24
420 58
421 71
422 92
423 87
424 86
425 36
426 68
427 73
428 14
429 55
430 92
431 37
432 24
433 65
434 71
435 1
436 28
437 69
438 21
439 95
440 41
441 27
442 26
443 17
444 34
445 80
446 72
447 31
448 24
449 95
450 68
451 37
452 30
453 75
454 59
455 56
456 102
457 54
458 31
459 64
460 51
461 27
462 21
463 103
464 48
465 90
466 25
467 42
468 58
469 101
470 60
471 12
472 2
473 24
474 34
475 60
476 56
477 21
478 90
479 63
480 28
481 20
482 19
483 72
484 74
485 86
486 25
487 19
488 24
489 66
490 93
491 99
492 60
493 99
494 55
495 23
496 71
497 98
498 43
499 22
500 21
501 65
502 34
503 80
504 25
505 59
506 18
507 7
508 66
509 46
510 66
511 61
512 48
513 16
514 67
515 10
516 73
517 39
518 81
519 34
520 76
521 26
522 57
523 60
524 55
525 14
526 30
527 57
528 92
529 89
530 13
531 75
532 42
533 71
534 84
535 85
536 37
537 38
538 31
539 18
540 57
541 0
542 82
543 2
544 28
545 75
546 50
547 104
548 94
549 73
550 53
551 95
552 97
553 71
554 65
555 46
556 39
557 69
558 75
559 2
560 20
561 5
562 62
563 0
564 64
565 49
566 9
567 104
568 49
569 24
570 72
571 91
572 77
573 101
574 92
575 51
576 81
577 85
578 92
579 62
580 6
581 55
582 75
583 41
584 33
585 79
586 29
587 93
588 9
589 45
590 59
591 63
592 16
593 93
594 69
595 22
596 8
597 46
598 93
599 93
600 78
601 13
602 27
603 32
604 62
605 71
606 40
607 48
608 14
609 64
610 30
611 44
612 53
613 7
614 47
615 85
616 8
617 70
618 34
619 54
620 34
621 61
622 66
623 83
624 35
625 3
626 90
627 94
628 84
629 4
630 2
631 7
632 30
633 46
634 73
635 72
636 80
637 61
638 96
639 37
640 101
641 86
642 22
643 89
644 102
645 71
646 19
647 66
648 90
649 74
650 72
651 85
652 70
653 88
654 29
655 71
656 51
657 93
658 90
659 82
660 56
661 50
662 77
663 41
664 47
665 16
666 9
667 70
668 48
669 51
670 46
671 75
672 51
673 98
674 36
675 82
676 95
677 47
678 59
679 75
680 98
681 19
682 55
683 76
684 33
685 31
686 76
687 82
688 84
689 48
690 32
691 8
692 84
693 93
694 16
695 71
696 41
697 97
698 42
699 84
700 34
701 26
702 48
703 33
704 76
705 42
706 99
707 48
708 7
709 60
710 100
711 15
712 85
713 86
714 63
715 88
716 80
717 14
718 57
719 51
720 42
721 29
722 26
723 4
724 56
725 12
726 89
727 40
728 2
729 98
730 17
731 97
732 100
733 3
734 28
735 71
736 50
737 41
738 22
739 47
740 94
741 56
742 5
743 75
744 87
745 69
746 44
747 31
748 27
749 25
750 79
751 13
752 92
753 72
754 68
755 33
756 9
757 63
758 32
759 101
760 101
761 101
762 3
763 68
764 99
765 88
766 86
767 68
768 8
769 50
770 13
771 7
772 91
773 27
774 73
775 59
776 19
777 32
778 4
779 23
780 90
781 23
782 89
783 90
784 36
785 94
786 101
787 57
788 89
789 29
790 79
791 61
792 45
793 75
794 66
795 43
796 14
797 40
798 89
799 99
800 26
801 82
802 78
803 59
804 39
805 92
806 82
807 67
808 4
809 56
810 31
811 74
812 7
813 33
814 67
815 16
816 77
817 86
818 20
819 37
820 7
821 92
822 89
823 84
824 82
825 16
826 0
827 9
828 93
829 99
830 73
831 56
832 2
833 68
834 24
835 22
836 16
837 72
838 70
839 68
840 38
841 42
842 16
843 16
844 81
845 84
846 53
847 66
848 89
849 58
850 39
851 37
852 73
853 36
854 1
855 51
856 31
857 6
858 27
859 19
860 82
861 73
862 97
863 68
864 18
865 61
866 6
867 87
868 23
869 50
870 36
871 101
872 37
873 42
874 62
875 97
876 98
877 73
878 13
879 21
880 73
881 53
882 43
883 23
884 51
885 39
886 96
887 59
888 63
889 55
890 99
891 1
892 2
893 3
894 19
895 89
896 26
897 3
898 82
899 90
900 27
901 29
902 37
903 41
904 77
905 95
906 33
907 82
908 27
909 71
910 104
911 68
912 54
913 84
914 16
915 43
916 96
917 32
918 78
919 97
920 18
921 47
922 46
923 61
924 84
925 21
926 96
927 23
928 104
929 63
930 18
931 25
932 63
933 41
934 100
935 5
936 83
937 68
938 21
939 82
940 18
941 83
942 14
943 79
944 40
945 101
946 15
947 11
948 104
949 64
950 81
951 48
952 61
953 60
954 36
955 89
956 69
957 54
958 61
959 38
960 90
961 72
962 83
963 42
964 86
965 51
966 67
967 21
968 60
969 1
970 74
971 60
972 51
973 31
974 14
975 8
976 84
977 95
978 34
979 97
980 76
981 95
982 1
983 54
984 51
985 7
986 100
987 66
988 45
989 6
990 82
991 20
992 33
993 6
994 66
995 99
996 17
997 5
998 32
999 6
1000 16
1001 33
1002 82
1003 13
1004 11
1005 16
1006 97
1007 27
1008 68
1009 57
1010 79
1011 23
1012 68
1013 81
1014 71
1015 0
1016 17
1017 76
1018 45
1019 84
1020 14
1021 80
1022 80
1023 90
1024 41
1025 29
1026 46
1027 15
1028 40
1029 30
1030 51
1031 50
1032 7
1033 65
1034 10
1035 75
1036 19
1037 91
1038 26
1039 66
1040 14
1041 16
1042 78
1043 74
1044 34
1045 30
1046 41
1047 0
1048 55
1049 18
1050 78
1051 41
1052 63
1053 62
1054 49
1055 23
1056 56
1057 32
1058 39
1059 30
1060 19
1061 29
1062 12
1063 9
1064 60
1065 77
1066 50
1067 19
1068 20
1069 92
1070 58
1071 39
1072 95
1073 36
1074 20
1075 77
1076 74
1077 80
1078 51
1079 4
1080 15
1081 6
1082 41
1083 92
1084 95
1085 28
1086 40
1087 7
1088 25
1089 76
1090 49
1091 5
1092 10
1093 104
1094 15
1095 48
1096 68
1097 4
1098 3
1099 17
1100 93
1101 76
1102 55
1103 105
1104 19
1105 55
1106 90
1107 14
1108 9
1109 13
1110 13
1111 23
1112 100
1113 43
1114 61
1115 50
1116 12
1117 31
1118 12
1119 43
1120 86
1121 91
1122 30
1123 72
1124 86
1125 0
1126 81
1127 102
1128 57
1129 89
1130 18
1131 58
1132 41
1133 13
1134 13
1135 78
1136 76
1137 100
1138 22
1139 54
1140 26
1141 75
1142 95
1143 34
1144 34
1145 11
1146 67
1147 19
1148 34
1149 24
1150 86
1151 19
1152 62
1153 34
1154 91
1155 24
1156 84
1157 49
1158 54
1159 31
1160 33
1161 17
1162 30
1163 18
1164 29
1165 46
1166 47
1167 13
1168 73
1169 55
1170 29
1171 60
1172 79
1173 76
1174 25
1175 47
1176 84
1177 43
1178 100
1179 92
1180 59
1181 31
1182 4
1183 30
1184 6
1185 2
1186 102
1187 51
1188 93
1189 38
1190 30
1191 48
1192 101
1193 10
1194 10
1195 59
1196 93
1197 76
1198 86
1199 81
1200 6
1201 27
1202 104
1203 100
1204 101
1205 55
1206 40
1207 98
1208 60
1209 15
1210 82
1211 6
1212 51
1213 80
1214 6
1215 47
1216 10
1217 43
1218 55
1219 101
1220 42
1221 10
1222 49
1223 0
1224 86
1225 71
1226 85
1227 56
1228 4
1229 63
1230 49
1231 31
1232 32
1233 26
1234 80
1235 0
1236 9
1237 62
1238 99
1239 16
1240 27
1241 62
1242 92
1243 42
1244 27
1245 49
1246 2
1247 22
1248 86
1249 93
1250 72
1251 4
1252 100
1253 79
1254 2
1255 22
1256 13
1257 56
1258 61
1259 89
1260 49
1261 61
1262 19
1263 31
1264 73
1265 87
1266 102
1267 86
1268 21
1269 96
1270 81
1271 11
1272 84
1273 84
1274 70
1275 18
1276 70
1277 24
1278 72
1279 99
1280 70
1281 81
1282 97
1283 15
1284 21
1285 21
1286 13
1287 71
1288 63
1289 18
1290 99
1291 41
1292 82
1293 95
1294 61
1295 95
1296 47
1297 12
1298 61
1299 98
1300 24
1301 63
1302 73
1303 24
1304 63
1305 75
1306 6
1307 3
1308 77
1309 21
1310 86
1311 30
1312 29
1313 80
1314 91
1315 63
1316 24
1317 88
1318 13
1319 7
1320 101
1321 89
1322 77
1323 86
1324 101
1325 91
1326 19
1327 16
1328 25
1329 28
1330 76
1331 33
1332 49
1333 13
1334 34
1335 7
1336 3
1337 11
1338 65
1339 6
1340 77
1341 36
1342 97
1343 58
1344 7
1345 0
1346 31
1347 20
1348 39
1349 87
1350 51
1351 59
1352 68
1353 67
1354 31
1355 92
1356 96
1357 98
1358 65
1359 46
1360 86
1361 20
1362 76
1363 104
1364 44
1365 0
1366 66
1367 84
1368 74
1369 86
1370 39
1371 58
1372 75
1373 6
1374 33
1375 66
1376 106
1377 0
1378 40
1379 54
1380 38
1381 61
1382 80
1383 38
1384 0
1385 104
1386 34
1387 91
1388 104
1389 65
1390 30
1391 54
1392 74
1393 43
1394 12
1395 87
1396 83
1397 14
1398 13
1399 82
1400 31
1401 32
1402 79
1403 51
1404 78
1405 51
1406 28
1407 19
1408 90
1409 35
1410 61
1411 64
1412 21
1413 101
1414 85
1415 33
1416 7
1417 5
1418 34
1419 63
1420 84
1421 48
1422 65
1423 26
1424 13
1425 13
1426 92
1427 75
1428 20
1429 81
1430 78
1431 89
1432 32
1433 67
1434 51
1435 70
1436 92
1437 66
1438 47
1439 20
1440 88
1441 57
1442 97
1443 91
1444 97
1445 73
1446 48
1447 11
1448 88
1449 26
1450 26
1451 94
1452 57
1453 18
1454 40
1455 34
1456 64
1457 66
1458 59
1459 40
1460 7
1461 7
1462 64
1463 13
1464 5
1465 16
1466 76
1467 104
1468 68
1469 69
1470 37
1471 14
1472 39
1473 65
1474 4
1475 26
1476 73
1477 41
1478 80
1479 46
1480 68
1481 6
1482 89
1483 30
1484 80
1485 5
1486 64
1487 3
1488 18
1489 31
1490 50
1491 47
1492 22
1493 43
1494 5
1495 77
1496 1
1497 45
1498 38
1499 12
1500 55
1501 33
1502 54
1503 63
1504 92
1505 6
1506 10
1507 1
1508 48
1509 15
1510 69
1511 0
1512 54
1513 51
1514 46
1515 29
1516 89
1517 56
1518 55
1519 6
1520 67
1521 83
1522 81
1523 30
1524 10
1525 7
1526 12
1527 87
1528 74
1529 102
1530 44
1531 82
1532 36
1533 60
1534 9
1535 30
1536 46
1537 82
1538 89
1539 26
1540 36
1541 28
1542 102
1543 63
1544 0
1545 59
1546 31
1547 89
1548 50
1549 101
1550 15
1551 68
1552 24
1553 9
1554 102
1555 74
1556 51
1557 56
1558 73
1559 57
1560 30
1561 6
1562 36
1563 90
1564 18
1565 49
1566 73
1567 25
1568 42
1569 48
1570 26
1571 95
1572 104
1573 51
1574 30
1575 28
1576 53
1577 31
1578 24
1579 34
1580 9
1581 93
1582 74
1583 81
1584 65
1585 88
1586 14
1587 80
1588 51
1589 40
1590 13
1591 40
1592 107
1593 69
1594 72
1595 74
1596 78
1597 93
1598 6
1599 43
1600 94
1601 86
1602 77
1603 73
1604 17
1605 49
1606 92
1607 102
1608 41
1609 24
1610 50
1611 74
1612 48
1613 39
1614 66
1615 18
1616 21
1617 21
1618 20
1619 18
1620 82
1621 15
1622 84
1623 80
1624 91
1625 33
1626 48
1627 33
1628 45
1629 10
1630 53
1631 19
1632 90
1633 7
1634 0
1635 25
1636 34
1637 100
1638 0
1639 71
1640 84
1641 16
1642 6
1643 101
1644 97
1645 42
1646 41
1647 6
1648 2
1649 84
1650 73
1651 79
1652 71
1653 91
1654 33
1655 7
1656 68
1657 72
1658 21
1659 86
1660 75
1661 84
1662 36
1663 78
1664 48
1665 26
1666 10
1667 10
1668 55
1669 14
1670 41
1671 79
1672 57
1673 23
1674 31
1675 9
1676 22
1677 84
1678 29
1679 21
1680 90
1681 84
1682 7
1683 34
1684 66
1685 104
1686 56
1687 99
1688 51
1689 82
1690 42
1691 31
1692 0
1693 67
1694 76
1695 88
1696 31
1697 59
1698 62
1699 86
1700 61
1701 17
1702 68
1703 41
1704 29
1705 79
1706 53
1707 96
1708 16
1709 37
1710 28
1711 33
1712 86
1713 15
1714 61
1715 104
1716 6
1717 80
1718 61
1719 17
1720 71
1721 40
1722 66
1723 31
1724 86
1725 61
1726 8
1727 47
1728 69
1729 75
1730 76
1731 29
1732 42
1733 44
1734 62
1735 4
1736 34
1737 41
1738 16
1739 58
1740 99
1741 15
1742 51
1743 90
1744 31
1745 70
1746 97
1747 86
1748 16
1749 76
1750 42
1751 41
1752 63
1753 4
1754 15
1755 86
1756 71
1757 13
1758 53
1759 49
1760 31
1761 44
1762 39
1763 60
1764 37
1765 66
1766 18
1767 40
1768 47
1769 32
1770 38
1771 98
1772 84
1773 59
1774 99
1775 83
1776 91
1777 21
1778 82
1779 78
1780 19
1781 29
1782 74
1783 5
1784 19
1785 67
1786 93
1787 20
1788 19
1789 30
1790 101
1791 35
1792 58
1793 95
1794 19
1795 59
1796 82
1797 57
1798 40
1799 44
1800 104
1801 7
1802 13
1803 48
1804 14
1805 47
1806 90
1807 57
1808 29
1809 49
1810 31
1811 97
1812 97
1813 56
1814 93
1815 76
1816 59
1817 19
1818 22
1819 13
1820 19
1821 49
1822 27
1823 18
1824 80
1825 56
1826 16
1827 38
1828 97
1829 57
1830 7
1831 100
1832 84
1833 74
1834 57
1835 19
1836 13
1837 72
1838 102
1839 63
1840 3
1841 82
1842 31
1843 15
1844 24
1845 93
1846 97
1847 24
1848 1
1849 5
1850 24
1851 27
1852 54
1853 64
1854 7
1855 30
1856 77
1857 15
1858 86
1859 81
1860 41
1861 78
1862 19
1863 42
1864 101
1865 81
1866 26
1867 32
1868 19
1869 31
1870 50
1871 13
1872 19
1873 33
1874 86
1875 50
1876 17
1877 61
1878 71
1879 50
1880 17
1881 71
1882 100
1883 60
1884 68
1885 49
1886 54
1887 7
1888 14
1889 2
1890 21
1891 88
1892 73
1893 6
1894 73
1895 101
1896 99
1897 74
1898 42
1899 0
1900 94
1901 18
1902 28
1903 90
1904 85
1905 22
1906 49
1907 42
1908 13
1909 16
1910 96
1911 71
1912 44
1913 56
1914 76
1915 96
1916 51
1917 82
1918 44
1919 63
1920 61
1921 65
1922 33
1923 83
1924 104
1925 40
1926 14
1927 1
1928 34
1929 56
1930 81
1931 74
1932 54
1933 92
1934 22
1935 88
1936 92
1937 97
1938 77
1939 92
1940 70
1941 34
1942 76
1943 18
1944 46
1945 104
1946 57
1947 104
1948 73
1949 76
1950 63
1951 34
1952 79
1953 64
1954 11
1955 101
1956 76
1957 41
1958 45
1959 76
1960 62
1961 101
1962 59
1963 53
1964 55
1965 75
1966 68
1967 82
1968 60
1969 12
1970 30
1971 71
1972 65
1973 49
1974 84
1975 51
1976 31
1977 93
1978 104
1979 38
1980 49
1981 42
1982 4
1983 4
1984 102
1985 16
1986 78
1987 68
1988 10
1989 48
1990 9
1991 47
1992 39
1993 70
1994 7
1995 54
1996 6
1997 11
1998 27
1999 12
2000 40
2001 53
2002 67
2003 7
2004 46
2005 3
2006 64
2007 62
2008 74
2009 17
2010 47
2011 49
2012 40
2013 83
2014 77
2015 36
2016 99
2017 94
2018 24
2019 26
2020 18
2021 81
2022 79
2023 49
2024 94
2025 50
2026 6
2027 17
2028 80
2029 84
2030 1
2031 59
2032 101
2033 60
2034 78
2035 39
2036 24
2037 60
2038 85
2039 104
2040 63
2041 50
2042 1
2043 73
2044 80
2045 24
2046 13
2047 35
2048 22
2049 4
2050 36
2051 8
2052 13
2053 30
2054 22
2055 41
2056 84
2057 30
2058 22
2059 44
2060 86
2061 108
2062 27
2063 74
2064 46
2065 74
2066 84
2067 20
2068 2
2069 46
2070 51
2071 58
2072 55
2073 30
2074 22
2075 101
2076 2
2077 84
2078 37
2079 55
2080 77
2081 3
2082 49
2083 76
2084 54
2085 54
2086 59
2087 39
2088 72
2089 47
2090 68
2091 101
2092 6
2093 39
2094 49
2095 99
2096 30
2097 31
2098 91
2099 92
2100 86
2101 74
2102 15
2103 109
2104 81
2105 24
2106 67
2107 19
2108 20
2109 5
2110 33
2111 63
2112 28
2113 26
2114 101
2115 76
2116 68
2117 47
2118 15
2119 3
2120 30
2121 15
2122 40
2123 65
2124 88
2125 34
2126 26
2127 69
2128 67
2129 9
2130 26
2131 102
2132 26
2133 90
2134 95
2135 51
2136 86
2137 68
2138 84
2139 95
2140 65
2141 3
2142 34
2143 88
2144 100
2145 6
2146 73
2147 40
2148 94
2149 47
2150 12
2151 64
2152 61
2153 48
2154 36
2155 91
2156 91
2157 84
2158 31
2159 38
2160 24
2161 68
2162 24
2163 50
2164 6
2165 11
2166 55
2167 28
2168 110
2169 69
2170 53
2171 34
2172 96
2173 34
2174 59
2175 6
2176 71
2177 69
2178 61
2179 51
2180 13
2181 18
2182 7
2183 55
2184 9
2185 13
2186 16
2187 13
2188 11
2189 57
2190 78
2191 23
2192 25
2193 62
2194 87
2195 96
2196 83
2197 13
2198 61
2199 13
2200 64
2201 77
2202 26
2203 11
2204 11
2205 102
2206 24
2207 72
2208 104
2209 90
2210 49
2211 86
2212 49
2213 51
2214 31
2215 18
2216 34
2217 49
2218 94
2219 59
2220 22
2221 32
2222 102
2223 13
2224 0
2225 76
2226 66
2227 57
2228 0
2229 54
2230 25
2231 83
2232 80
2233 35
2234 0
2235 6
2236 92
2237 9
2238 7
2239 85
2240 49
2241 94
2242 64
2243 72
2244 0
2245 3
2246 31
2247 18
2248 94
2249 64
2250 84
2251 29
2252 66
2253 33
2254 42
2255 82
2256 54
2257 89
2258 4
2259 47
2260 76
2261 23
2262 100
2263 9
2264 6
2265 91
2266 97
2267 71
2268 104
2269 97
2270 73
2271 47
2272 68
2273 85
2274 30
2275 6
2276 80
2277 49
2278 79
2279 13
2280 85
2281 18
2282 48
2283 78
2284 90
2285 32
2286 77
2287 46
2288 30
2289 85
2290 87
2291 26
2292 18
2293 82
2294 49
2295 90
2296 26
2297 87
2298 76
2299 61
2300 60
2301 58
2302 98
2303 67
2304 78
2305 77
2306 46
2307 45
2308 25
2309 97
2310 89
2311 89
2312 86
2313 86
2314 8
2315 80
2316 7
2317 63
2318 56
2319 26
2320 75
2321 53
2322 28
2323 20
2324 60
2325 40
2326 9
2327 46
2328 70
2329 8
2330 0
2331 25
2332 50
2333 5
2334 59
2335 19
2336 17
2337 36
2338 49
2339 61
2340 34
2341 80
2342 82
2343 78
2344 55
2345 57
2346 54
2347 75
2348 78
2349 8
2350 82
2351 76
2352 20
2353 82
2354 36
2355 56
2356 48
2357 11
2358 74
2359 8
2360 75
2361 18
2362 31
2363 7
2364 10
2365 28
2366 77
2367 38
2368 36
2369 63
2370 48
2371 30
2372 31
2373 90
2374 39
2375 75
2376 90
2377 81
2378 26
2379 100
2380 13
2381 38
2382 81
2383 92
2384 79
2385 13
2386 73
2387 75
2388 48
2389 90
2390 8
2391 84
2392 11
2393 68
2394 80
2395 60
2396 80
2397 12
2398 42
2399 20
2400 35
2401 28
2402 24
2403 34
2404 84
2405 0
2406 67
2407 15
2408 71
2409 61
2410 23
2411 56
2412 104
2413 48
2414 2
2415 97
2416 102
2417 15
2418 48
2419 90
2420 44
2421 14
2422 104
2423 15
2424 6
2425 7
2426 42
2427 49
2428 34
2429 87
2430 36
2431 15
2432 55
2433 8
2434 74
2435 18
2436 97
2437 14
2438 39
2439 40
2440 32
2441 65
2442 28
2443 87
2444 26
2445 7
2446 79
2447 22
2448 42
2449 24
2450 90
2451 93
2452 99
2453 15
2454 25
2455 100
2456 21
2457 13
2458 48
2459 7
2460 51
2461 79
2462 90
2463 47
2464 18
2465 13
2466 0
2467 27
2468 89
2469 30
2470 67
2471 70
2472 25
2473 61
2474 53
2475 48
2476 97
2477 84
2478 6
2479 91
2480 6
2481 41
2482 75
2483 26
2484 78
2485 12
2486 50
2487 15
2488 62
2489 74
2490 6
2491 29
2492 7
2493 65
2494 40
2495 57
2496 61
2497 64
2498 30
2499 2
2500 26
2501 68
2502 4
2503 73
2504 48
2505 75
2506 77
2507 74
2508 71
2509 27
2510 82
2511 27
2512 33
2513 40
2514 74
2515 65
2516 51
2517 0
2518 69
2519 1
2520 81
2521 13
2522 102
2523 0
2524 18
2525 40
2526 12
2527 9
2528 84
2529 70
2530 31
2531 13
2532 26
2533 36
2534 33
2535 18
2536 47
2537 73
2538 72
2539 48
2540 47
2541 0
2542 63
2543 17
2544 70
2545 47
2546 29
2547 18
2548 24
2549 71
2550 34
2551 65
2552 42
2553 68
2554 85
2555 13
2556 67
2557 19
2558 76
2559 34
2560 95
2561 9
2562 85
2563 47
2564 96
2565 66
2566 15
2567 31
2568 83
2569 78
2570 9
2571 84
2572 77
2573 47
2574 86
2575 49
2576 55
2577 6
2578 55
2579 48
2580 24
2581 24
2582 69
2583 81
2584 9
2585 69
2586 33
2587 18
2588 34
2589 97
2590 69
2591 86
2592 67
2593 97
2594 94
2595 32
2596 0
2597 28
2598 10
2599 57
2600 88
2601 77
2602 99
2603 78
2604 47
2605 15
2606 80
2607 91
2608 24
2609 36
2610 57
2611 32
2612 10
2613 81
2614 95
2615 0
2616 65
2617 50
2618 61
2619 20
2620 17
2621 4
2622 36
2623 31
2624 27
2625 87
2626 54
2627 51
2628 34
2629 94
2630 100
2631 28
2632 67
2633 30
2634 82
2635 85
2636 86
2637 96
2638 75
2639 68
2640 13
2641 69
2642 89
2643 14
2644 15
2645 83
2646 72
2647 90
2648 27
2649 100
2650 0
2651 21
2652 48
2653 101
2654 91
2655 89
2656 65
2657 51
2658 39
2659 13
2660 0
2661 47
2662 92
2663 5
2664 71
2665 23
2666 10
2667 54
2668 96
2669 4
2670 27
2671 63
2672 31
2673 104
2674 51
2675 9
2676 69
2677 30
2678 22
2679 37
2680 90
2681 31
2682 89
2683 37
2684 71
2685 19
2686 23
2687 60
2688 27
2689 47
2690 67
2691 24
2692 89
2693 8
2694 24
2695 50
2696 86
2697 40
2698 65
2699 25
2700 29
2701 76
2702 55
2703 83
2704 95
2705 15
2706 61
2707 76
2708 10
2709 18
2710 57
2711 15
2712 99
2713 67
2714 46
2715 29
2716 29
2717 97
2718 7
2719 1
2720 12
2721 0
2722 25
2723 16
2724 31
2725 19
2726 41
2727 90
2728 57
2729 97
2730 104
2731 91
2732 89
2733 89
2734 68
2735 67
2736 59
2737 51
2738 79
2739 48
2740 95
2741 93
2742 26
2743 44
2744 74
2745 90
2746 94
2747 97
2748 104
2749 6
2750 94
2751 82
2752 6
2753 16
2754 72
2755 3
2756 101
2757 60
2758 102
2759 31
2760 59
2761 93
2762 65
2763 34
2764 12
2765 50
2766 37
2767 1
2768 10
2769 51
2770 30
2771 97
2772 39
2773 60
2774 34
2775 13
2776 25
2777 67
2778 83
2779 26
2780 78
2781 61
2782 3
2783 75
2784 83
2785 36
2786 81
2787 76
2788 29
2789 29
2790 57
2791 100
2792 68
2793 85
2794 101
2795 70
2796 6
2797 90
2798 65
2799 74
2800 77
2801 34
2802 15
2803 85
2804 64
2805 25
2806 36
2807 16
2808 69
2809 6
2810 93
2811 31
2812 81
2813 17
2814 85
2815 26
2816 56
2817 6
2818 25
2819 1
2820 82
2821 42
2822 11
2823 41
2824 41
2825 61
2826 13
2827 70
2828 35
2829 21
2830 42
2831 13
2832 75
2833 28
2834 71
2835 58
2836 41
2837 11
2838 21
2839 85
2840 70
2841 4
2842 79
2843 24
2844 68
2845 44
2846 48
2847 27
2848 20
2849 101
2850 55
2851 42
2852 22
2853 34
2854 62
2855 96
2856 51
2857 67
2858 55
2859 68
2860 20
2861 17
2862 84
2863 94
2864 61
2865 82
2866 63
2867 47
2868 28
2869 72
2870 45
2871 102
2872 76
2873 19
2874 38
2875 21
2876 74
2877 13
2878 42
2879 44
2880 9
2881 81
2882 79
2883 4
2884 36
2885 96
2886 93
2887 48
2888 33
2889 48
2890 79
2891 26
2892 57
2893 34
2894 94
2895 67
2896 104
2897 81
2898 76
2899 59
2900 26
2901 84
2902 98
2903 13
2904 101
2905 58
2906 59
2907 4
2908 68
2909 13
2910 15
2911 34
2912 30
2913 82
2914 89
2915 102
2916 34
2917 7
2918 47
2919 18
2920 49
2921 97
2922 68
2923 91
2924 42
2925 62
2926 78
2927 15
2928 90
2929 39
2930 26
2931 92
2932 5
2933 57
2934 51
2935 25
2936 14
2937 11
2938 84
2939 59
2940 56
2941 15
2942 1
2943 57
2944 53
2945 61
2946 63
2947 26
2948 51
2949 100
2950 20
2951 73
2952 48
2953 48
2954 81
2955 31
2956 60
2957 26
2958 82
2959 7
2960 30
2961 18
2962 83
2963 61
2964 19
2965 11
2966 34
2967 104
2968 35
2969 76
2970 68
2971 6
2972 10
2973 69
2974 25
2975 63
2976 81
2977 53
2978 13
2979 16
2980 12
2981 100
2982 10
2983 19
2984 58
2985 89
2986 16
2987 27
2988 31
2989 18
2990 9
2991 68
2992 64
2993 15
2994 18
2995 68
2996 75
2997 90
2998 32
2999 101
3000 2
3001 82
3002 74
3003 54
3004 48
3005 70
3006 18
3007 63
3008 75
3009 39
3010 46
3011 34
3012 75
3013 2
3014 4
3015 15
3016 65
3017 82
3018 101
3019 55
3020 26
3021 70
3022 82
3023 9
3024 7
3025 70
3026 6
3027 76
3028 6
3029 16
3030 22
3031 79
3032 39
3033 46
3034 15
3035 63
3036 68
3037 59
3038 93
3039 4
3040 14
3041 24
3042 94
3043 78
3044 4
3045 98
3046 55
3047 100
3048 90
3049 55
3050 81
3051 83
3052 21
3053 96
3054 89
3055 2
3056 27
3057 3
3058 28
3059 72
3060 87
3061 60
3062 20
3063 96
3064 70
3065 40
3066 44
3067 26
3068 13
3069 17
3070 25
3071 23
3072 3
3073 97
3074 4
3075 57
3076 101
3077 45
3078 54
3079 47
3080 36
3081 70
3082 90
3083 7
3084 32
3085 74
3086 55
3087 87
3088 88
3089 97
3090 48
3091 53
3092 49
3093 50
3094 16
3095 0
3096 95
3097 7
3098 84
3099 12
3100 68
3101 64
3102 78
3103 38
3104 94
3105 77
3106 99
3107 13
3108 18
3109 24
3110 33
3111 36
3112 14
3113 17
3114 87
3115 19
3116 102
3117 61
3118 23
3119 55
3120 13
3121 76
3122 75
3123 2
3124 80
3125 49
3126 16
3127 79
3128 6
3129 15
3130 74
3131 74
3132 48
3133 82
3134 3
3135 13
3136 90
3137 24
3138 72
3139 33
3140 7
3141 79
3142 17
3143 13
3144 70
3145 68
3146 80
3147 31
3148 32
3149 35
3150 82
3151 8
3152 81
3153 67
3154 6
3155 15
3156 31
3157 50
3158 85
3159 74
3160 104
3161 90
3162 62
3163 88
3164 73
3165 65
3166 80
3167 42
3168 26
3169 53
3170 40
3171 3
3172 7
3173 39
3174 80
3175 55
3176 82
3177 53
3178 69
3179 82
3180 61
3181 12
3182 104
3183 61
3184 49
3185 104
3186 84
3187 48
3188 59
3189 46
3190 36
3191 30
3192 48
3193 40
3194 13
3195 58
3196 59
3197 39
3198 54
3199 15
3200 83
3201 97
3202 77
3203 9
3204 74
3205 64
3206 102
3207 49
3208 61
3209 63
3210 85
3211 13
3212 74
3213 36
3214 24
3215 26
3216 24
3217 57
3218 36
3219 74
3220 17
3221 1
3222 48
3223 30
3224 49
3225 82
3226 78
3227 76
3228 63
3229 69
3230 25
3231 56
3232 95
3233 3
3234 35
3235 18
3236 71
3237 33
3238 93
3239 86
3240 31
3241 38
3242 0
3243 66
3244 55
3245 51
3246 47
3247 98
3248 17
3249 55
3250 20
3251 88
3252 72
3253 80
3254 75
3255 88
3256 7
3257 36
3258 13
3259 60
3260 46
3261 90
3262 91
3263 79
3264 39
3265 13
3266 30
3267 61
3268 71
3269 3
3270 17
3271 76
3272 29
3273 31
3274 97
3275 45
3276 102
3277 92
3278 26
3279 93
3280 26
3281 91
3282 39
3283 72
3284 63
3285 96
3286 0
3287 35
3288 99
3289 18
3290 30
3291 23
3292 76
3293 63
3294 55
3295 23
3296 80
3297 81
3298 63
3299 78
3300 18
3301 51
3302 28
3303 74
3304 19
3305 86
3306 6
3307 83
3308 14
3309 90
3310 40
3311 3
3312 15
3313 73
3314 77
3315 35
3316 30
3317 83
3318 57
3319 8
3320 83
3321 37
3322 90
3323 49
3324 68
3325 59
3326 7
3327 27
3328 104
3329 58
3330 18
3331 48
3332 2
3333 0
3334 31
3335 10
3336 104
3337 61
3338 12
3339 51
3340 30
3341 61
3342 102
3343 58
3344 42
3345 66
3346 3
3347 72
3348 101
3349 76
3350 63
3351 59
3352 76
3353 31
3354 16
3355 10
3356 2
3357 62
3358 47
3359 82
3360 32
3361 9
3362 37
3363 67
3364 33
3365 89
3366 101
3367 87
3368 46
3369 7
3370 86
3371 87
3372 85
3373 46
3374 72
3375 78
3376 0
3377 68
3378 13
3379 69
3380 48
3381 81
3382 93
3383 97
3384 45
3385 26
3386 78
3387 75
3388 29
3389 81
3390 48
3391 93
3392 102
3393 68
3394 104
3395 87
3396 83
3397 88
3398 84
3399 53
3400 66
3401 72
3402 11
3403 74
3404 61
3405 82
3406 26
3407 72
3408 47
3409 23
3410 33
3411 13
3412 26
3413 30
3414 50
3415 80
3416 11
3417 37
3418 58
3419 50
3420 66
3421 20
3422 19
3423 76
3424 95
3425 91
3426 90
3427 53
3428 16
3429 7
3430 64
3431 73
3432 4
3433 1
3434 102
3435 26
3436 56
3437 10
3438 100
3439 41
3440 50
3441 55
3442 9
3443 2
3444 26
3445 40
3446 99
3447 66
3448 57
3449 88
3450 33
3451 30
3452 68
3453 15
3454 74
3455 86
3456 16
3457 27
3458 62
3459 22
3460 97
3461 90
3462 90
3463 15
3464 64
3465 19
3466 77
3467 24
3468 33
3469 111
3470 68
3471 93
3472 90
3473 54
3474 84
3475 73
3476 36
3477 23
3478 77
3479 58
3480 94
3481 25
3482 3
3483 11
3484 68
3485 26
3486 59
3487 72
3488 23
3489 21
3490 41
3491 75
3492 82
3493 60
3494 91
3495 24
3496 99
3497 32
3498 57
3499 63
3500 35
3501 14
3502 31
3503 24
3504 85
3505 0
3506 15
3507 49
3508 14
3509 59
3510 57
3511 59
3512 67
3513 77
3514 57
3515 4
3516 82
3517 55
3518 10
3519 75
3520 53
3521 94
3522 71
3523 55
3524 41
3525 69
3526 36
3527 11
3528 82
3529 72
3530 72
3531 36
3532 60
3533 25
3534 99
3535 13
3536 59
3537 73
3538 72
3539 6
3540 73
3541 78
3542 68
3543 90
3544 6
3545 34
3546 40
3547 11
3548 92
3549 53
3550 24
3551 68
3552 5
3553 58
3554 50
3555 14
3556 102
3557 26
3558 31
3559 54
3560 82
3561 86
3562 55
3563 41
3564 84
3565 49
3566 81
3567 66
3568 5
3569 27
3570 1
3571 20
3572 10
3573 60
3574 79
3575 84
3576 19
3577 76
3578 96
3579 24
3580 0
3581 5
3582 112
3583 41
3584 64
3585 72
3586 61
3587 84
3588 31
3589 89
3590 84
3591 88
3592 16
3593 54
3594 59
3595 92
3596 77
3597 45
3598 70
3599 70
3600 35
3601 24
3602 39
3603 50
3604 75
3605 30
3606 28
3607 102
3608 86
3609 96
3610 51
3611 0
3612 45
3613 50
3614 80
3615 48
3616 53
3617 50
3618 90
3619 97
3620 43
3621 79
3622 15
3623 28
3624 18
3625 72
3626 75
3627 65
3628 33
3629 90
3630 81
3631 1
3632 113
3633 7
3634 96
3635 39
3636 78
3637 51
3638 26
3639 68
3640 19
3641 12
3642 61
3643 104
3644 48
3645 36
3646 68
3647 92
3648 77
3649 30
3650 88
3651 96
3652 13
3653 96
3654 14
3655 17
3656 84
3657 34
3658 61
3659 57
3660 63
3661 95
3662 74
3663 34
3664 65
3665 63
3666 96
3667 19
3668 55
3669 50
3670 96
3671 14
3672 35
3673 26
3674 59
3675 85
3676 66
3677 101
3678 30
3679 44
3680 10
3681 50
3682 18
3683 102
3684 100
3685 61
3686 79
3687 95
3688 41
3689 9
3690 16
3691 46
3692 61
3693 31
3694 51
3695 45
3696 55
3697 33
3698 56
3699 4
3700 91
3701 36
3702 84
3703 24
3704 36
3705 63
3706 73
3707 27
3708 93
3709 93
3710 42
3711 41
3712 81
3713 20
3714 97
3715 91
3716 7
3717 27
3718 84
3719 4
3720 81
3721 93
3722 28
3723 27
3724 7
3725 0
3726 39
3727 3
3728 17
3729 7
3730 31
3731 96
3732 23
3733 56
3734 20
3735 5
3736 10
3737 7
3738 49
3739 51
3740 12
3741 6
3742 86
3743 77
3744 91
3745 23
3746 68
3747 57
3748 34
3749 68
3750 89
3751 10
3752 88
3753 36
3754 0
3755 49
3756 21
3757 15
3758 46
3759 89
3760 95
3761 70
3762 85
3763 10
3764 76
3765 36
3766 29
3767 53
3768 4
3769 3
3770 89
3771 3
3772 59
3773 102
3774 25
3775 2
3776 59
3777 56
3778 33
3779 33
3780 97
3781 75
3782 65
3783 77
3784 89
3785 22
3786 16
3787 90
3788 90
3789 61
3790 19
3791 81
3792 65
3793 49
3794 60
3795 26
3796 80
3797 15
3798 31
3799 59
3800 87
3801 5
3802 0
3803 19
3804 78
3805 102
3806 104
3807 25
3808 10
3809 91
3810 48
3811 84
3812 67
3813 27
3814 19
3815 0
3816 36
3817 63
3818 92
3819 88
3820 33
3821 93
3822 82
3823 104
3824 9
3825 26
3826 53
3827 66
3828 97
3829 23
3830 100
3831 33
3832 63
3833 21
3834 19
3835 100
3836 54
3837 4
3838 40
3839 1
3840 26
3841 27
3842 28
3843 33
3844 17
3845 53
3846 13
3847 67
3848 93
3849 27
3850 72
3851 56
3852 83
3853 47
3854 42
3855 13
3856 17
3857 5
3858 68
3859 6
3860 36
3861 114
3862 98
3863 6
3864 51
3865 79
3866 51
3867 41
3868 45
3869 96
3870 72
3871 30
3872 45
3873 77
3874 49
3875 59
3876 67
3877 6
3878 68
3879 4
3880 2
3881 26
3882 19
3883 67
3884 65
3885 73
3886 86
3887 38
3888 26
3889 20
3890 10
3891 32
3892 69
3893 30
3894 80
3895 101
3896 30
3897 30
3898 98
3899 0
3900 22
3901 35
3902 84
3903 83
3904 38
3905 70
3906 6
3907 85
3908 54
3909 9
3910 100
3911 21
3912 51
3913 86
3914 53
3915 74
3916 41
3917 51
3918 23
3919 17
3920 82
3921 16
3922 74
3923 10
3924 63
3925 6
3926 79
3927 27
3928 26
3929 60
3930 79
3931 3
3932 97
3933 66
3934 36
3935 46
3936 68
3937 53
3938 21
3939 34
3940 66
3941 53
3942 75
3943 87
3944 55
3945 86
3946 44
3947 82
3948 15
3949 13
3950 94
3951 47
3952 82
3953 27
3954 26
3955 80
3956 25
3957 68
3958 24
3959 27
3960 64
3961 69
3962 37
3963 57
3964 74
3965 78
3966 90
3967 57
3968 13
3969 99
3970 79
3971 55
3972 70
3973 82
3974 12
3975 23
3976 23
3977 16
3978 89
3979 43
3980 16
3981 46
3982 83
3983 12
3984 42
3985 44
3986 15
3987 38
3988 13
3989 99
3990 99
3991 27
3992 36
3993 45
3994 39
3995 72
3996 21
3997 70
3998 41
3999 13
4000 99
4001 20
4002 26
4003 74
4004 45
4005 23
4006 55
4007 30
4008 58
4009 92
4010 10
4011 16
4012 67
4013 31
4014 22
4015 39
4016 93
4017 40
4018 36
4019 22
4020 38
4021 93
4022 1
4023 82
4024 56
4025 15
4026 55
4027 58
4028 97
4029 39
4030 92
4031 64
4032 14
4033 56
4034 59
4035 100
4036 50
4037 34
4038 26
4039 2
4040 41
4041 24
4042 76
4043 9
4044 81
4045 18
4046 24
4047 65
4048 38
4049 84
4050 39
4051 39
4052 102
4053 77
4054 43
4055 68
4056 50
4057 13
4058 12
4059 30
4060 26
4061 8
4062 90
4063 86
4064 49
4065 82
4066 96
4067 68
4068 2
4069 35
4070 2
4071 93
4072 86
4073 9
4074 59
4075 41
4076 57
4077 18
4078 89
4079 29
4080 85
4081 51
4082 31
4083 71
4084 89
4085 53
4086 40
4087 68
4088 59
4089 47
4090 29
4091 10
4092 24
4093 96
4094 0
4095 75
4096 51
4097 57
4098 89
4099 80
4100 51
4101 68
4102 89
4103 41
4104 4
4105 17
4106 79
4107 16
4108 89
4109 78
4110 16
4111 13
4112 9
4113 85
4114 85
4115 70
4116 31
4117 78
4118 32
4119 65
4120 22
4121 25
4122 48
4123 73
4124 38
4125 78
4126 16
4127 89
4128 59
4129 38
4130 73
4131 16
4132 10
4133 12
4134 2
4135 49
4136 42
4137 33
4138 104
4139 26
4140 27
4141 91
4142 49
4143 25
4144 42
4145 15
4146 87
4147 29
4148 65
4149 49
4150 23
4151 24
4152 76
4153 102
4154 19
4155 89
4156 25
4157 38
4158 16
4159 97
4160 75
4161 51
4162 86
4163 11
4164 97
4165 8
4166 66
4167 92
4168 84
4169 30
4170 71
4171 1
4172 42
4173 30
4174 19
4175 11
4176 99
4177 59
4178 51
4179 24
4180 26
4181 53
4182 82
4183 75
4184 13
4185 26
4186 78
4187 18
4188 76
4189 50
4190 48
4191 8
4192 10
4193 87
4194 2
4195 33
4196 76
4197 28
4198 39
4199 29
4200 31
4201 23
4202 56
4203 65
4204 59
4205 80
4206 25
4207 68
4208 7
4209 76
4210 79
4211 44
4212 3
4213 97
4214 91
4215 68
4216 36
4217 63
4218 24
4219 90
4220 62
4221 24
4222 11
4223 37
4224 64
4225 5
4226 13
4227 73
4228 69
4229 30
4230 50
4231 54
4232 51
4233 59
4234 92
4235 89
4236 37
4237 48
4238 16
4239 26
4240 96
4241 67
4242 13
4243 14
4244 83
4245 102
4246 77
4247 97
4248 84
4249 26
4250 64
4251 47
4252 77
4253 39
4254 70
4255 75
4256 7
4257 73
4258 86
4259 69
4260 44
4261 5
4262 45
4263 68
4264 28
4265 3
4266 69
4267 23
4268 0
4269 82
4270 104
4271 80
4272 41
4273 49
4274 53
4275 87
4276 22
4277 61
4278 49
4279 62
4280 89
4281 51
4282 82
4283 13
4284 24
4285 76
4286 55
4287 18
4288 15
4289 49
4290 84
4291 65
4292 34
4293 65
4294 55
4295 91
4296 88
4297 20
4298 45
4299 88
4300 7
4301 47
4302 67
4303 104
4304 33
4305 75
4306 9
4307 51
4308 88
4309 1
4310 53
4311 0
4312 47
4313 104
4314 39
4315 57
4316 54
4317 66
4318 99
4319 45
4320 95
4321 46
4322 28
4323 61
4324 35
4325 14
4326 54
4327 70
4328 91
4329 32
4330 1
4331 15
4332 13
4333 77
4334 9
4335 42
4336 13
4337 104
4338 38
4339 66
4340 31
4341 55
4342 64
4343 65
4344 39
4345 27
4346 64
4347 96
4348 46
4349 9
4350 84
4351 101
4352 43
4353 23
4354 30
4355 28
4356 90
4357 28
4358 25
4359 23
4360 86
4361 16
4362 32
4363 100
4364 96
4365 45
4366 65
4367 96
4368 64
4369 41
4370 26
4371 89
4372 7
4373 86
4374 82
4375 78
4376 18
4377 92
4378 88
4379 28
4380 53
4381 63
4382 27
4383 31
4384 47
4385 42
4386 2
4387 20
4388 61
4389 82
4390 8
4391 78
4392 89
4393 54
4394 23
4395 20
4396 19
4397 71
4398 69
4399 59
4400 42
4401 4
4402 104
4403 1
4404 59
4405 68
4406 61
4407 36
4408 35
4409 84
4410 30
4411 83
4412 90
4413 59
4414 67
4415 77
4416 20
4417 84
4418 68
4419 1
4420 14
4421 87
4422 41
4423 99
4424 74
4425 18
4426 81
4427 87
4428 65
4429 71
4430 34
4431 7
4432 74
4433 29
4434 46
4435 22
4436 82
4437 102
4438 49
4439 15
4440 68
4441 70
4442 34
4443 66
4444 65
4445 18
4446 9
4447 4
4448 91
4449 92
4450 62
4451 90
4452 76
4453 98
4454 81
4455 19
4456 1
4457 24
4458 97
4459 51
4460 71
4461 99
4462 7
4463 0
4464 78
4465 95
4466 65
4467 79
4468 47
4469 66
4470 46
4471 5
4472 97
4473 78
4474 97
4475 115
4476 84
4477 4
4478 64
4479 38
4480 25
4481 60
4482 41
4483 53
4484 9
4485 86
4486 96
4487 41
4488 78
4489 35
4490 89
4491 26
4492 64
4493 17
4494 44
4495 70
4496 57
4497 36
4498 68
4499 31
4500 84
4501 84
4502 83
4503 84
4504 15
4505 82
4506 51
4507 49
4508 90
4509 55
4510 55
4511 71
4512 47
4513 68
4514 50
4515 13
4516 19
4517 7
4518 49
4519 23
4520 87
4521 65
4522 4
4523 45
4524 91
4525 15
4526 31
4527 49
4528 101
4529 7
4530 30
4531 4
4532 55
4533 72
4534 85
4535 93
4536 74
4537 100
4538 7
4539 17
4540 47
4541 97
4542 14
4543 3
4544 39
4545 26
4546 100
4547 101
4548 15
4549 84
4550 89
4551 78
4552 55
4553 88
4554 7
4555 101
4556 15
4557 19
4558 61
4559 94
4560 38
4561 27
4562 13
4563 27
4564 116
4565 60
4566 53
4567 14
4568 73
4569 66
4570 67
4571 48
4572 59
4573 68
4574 5
4575 10
4576 83
4577 16
4578 31
4579 34
4580 6
4581 67
4582 6
4583 1
4584 73
4585 14
4586 1
4587 3
4588 16
4589 51
4590 83
4591 68
4592 94
4593 93
4594 19
4595 60
4596 61
4597 4
4598 104
4599 11
4600 46
4601 63
4602 30
4603 73
4604 42
4605 90
4606 74
4607 59
4608 102
4609 0
4610 59
4611 9
4612 91
4613 49
4614 96
4615 32
4616 67
4617 95
4618 45
4619 6
4620 78
4621 23
4622 59
4623 102
4624 4
4625 24
4626 67
4627 34
4628 74
4629 66
4630 22
4631 3
4632 61
4633 15
4634 37
4635 94
4636 45
4637 22
4638 0
4639 22
4640 49
4641 89
4642 15
4643 104
4644 40
4645 81
4646 82
4647 37
4648 95
4649 65
4650 14
4651 23
4652 60
4653 60
4654 104
4655 101
4656 51
4657 95
4658 37
4659 41
4660 86
4661 82
4662 83
4663 79
4664 43
4665 24
4666 117
4667 43
4668 45
4669 39
4670 0
4671 33
4672 67
4673 31
4674 10
4675 69
4676 82
4677 76
4678 51
4679 46
4680 4
4681 87
4682 7
4683 6
4684 32
4685 6
4686 57
4687 74
4688 61
4689 15
4690 23
4691 67
4692 73
4693 46
4694 15
4695 68
4696 90
4697 48
4698 77
4699 95
4700 87
4701 26
4702 23
4703 55
4704 7
4705 4
4706 78
4707 60
4708 96
4709 87
4710 39
4711 76
4712 6
4713 78
4714 42
4715 95
4716 59
4717 7
4718 57
4719 91
4720 0
4721 44
4722 51
4723 90
4724 75
4725 69
4726 77
4727 22
4728 53
4729 68
4730 41
4731 18
4732 65
4733 40
4734 40
4735 93
4736 16
4737 61
4738 95
4739 89
4740 20
4741 62
4742 53
4743 2
4744 57
4745 66
4746 61
4747 12
4748 99
4749 95
4750 14
4751 72
4752 63
4753 41
4754 65
4755 25
4756 36
4757 9
4758 39
4759 74
4760 40
4761 22
4762 50
4763 75
4764 27
4765 36
4766 76
4767 81
4768 55
4769 95
4770 57
4771 64
4772 74
4773 7
4774 51
4775 95
4776 71
4777 21
4778 75
4779 55
4780 6
4781 65
4782 15
4783 1
4784 18
4785 94
4786 34
4787 118
4788 6
4789 9
4790 25
4791 64
4792 27
4793 66
4794 82
4795 97
4796 41
4797 36
4798 17
4799 68
4800 33
4801 39
4802 46
4803 79
4804 22
4805 61
4806 7
4807 44
4808 99
4809 10
4810 88
4811 6
4812 13
4813 72
4814 19
4815 91
4816 19
4817 100
4818 119
4819 6
4820 19
4821 77
4822 19
4823 104
4824 0
4825 77
4826 19
4827 62
4828 27
4829 37
4830 51
4831 45
4832 13
4833 24
4834 0
4835 29
4836 40
4837 14
4838 64
4839 21
4840 64
4841 23
4842 21
4843 62
4844 57
4845 70
4846 79
4847 30
4848 18
4849 21
4850 13
4851 98
4852 24
4853 91
4854 100
4855 36
4856 38
4857 47
4858 40
4859 74
4860 104
4861 49
4862 78
4863 26
4864 53
4865 19
4866 55
4867 56
4868 91
4869 58
4870 55
4871 25
4872 88
4873 89
4874 78
4875 8
4876 58
4877 101
4878 19
4879 7
4880 17
4881 47
4882 17
4883 74
4884 39
4885 23
4886 80
4887 98
4888 70
4889 75
4890 84
4891 37
4892 62
4893 21
4894 51
4895 14
4896 35
4897 90
4898 81
4899 26
4900 2
4901 57
4902 71
4903 63
4904 18
4905 58
4906 15
4907 20
4908 68
4909 96
4910 5
4911 33
4912 51
4913 32
4914 9
4915 55
4916 46
4917 67
4918 6
4919 81
4920 22
4921 35
4922 0
4923 15
4924 22
4925 39
4926 93
4927 81
4928 74
4929 102
4930 12
4931 104
4932 51
4933 47
4934 31
4935 69
4936 69
4937 56
4938 4
4939 34
4940 82
4941 92
4942 33
4943 38
4944 96
4945 100
4946 30
4947 82
4948 13
4949 16
4950 72
4951 16
4952 36
4953 42
4954 51
4955 18
4956 0
4957 50
4958 68
4959 15
4960 15
4961 75
4962 40
4963 13
4964 51
4965 97
4966 4
4967 36
4968 33
4969 95
4970 81
4971 44
4972 64
4973 84
4974 59
4975 29
4976 31
4977 8
4978 84
4979 40
4980 10
4981 68
4982 74
4983 50
4984 46
4985 99
4986 25
4987 73
4988 7
4989 41
4990 48
4991 86
4992 59
4993 95
4994 62
4995 82
4996 54
4997 70
4998 14
4999 20
5000 10
5001 66
5002 99
5003 40
5004 41
5005 16
5006 74
5007 98
5008 62
5009 47
5010 47
5011 15
5012 13
5013 6
5014 66
5015 10
5016 87
5017 90
5018 32
5019 81
5020 75
5021 36
5022 13
5023 63
5024 53
5025 77
5026 77
5027 32
5028 32
5029 22
5030 17
5031 89
5032 89
5033 96
5034 32
5035 33
5036 55
5037 58
5038 77
5039 90
5040 21
5041 7
5042 92
5043 62
5044 40
5045 15
5046 85
5047 63
5048 100
5049 12
5050 85
5051 31
5052 12
5053 23
5054 18
5055 82
5056 31
5057 45
5058 33
5059 34
5060 100
5061 16
5062 8
5063 7
5064 46
5065 79
5066 51
5067 33
5068 55
5069 50
5070 42
5071 42
5072 6
5073 84
5074 55
5075 9
5076 56
5077 33
5078 31
5079 23
5080 76
5081 24
5082 88
5083 75
5084 0
5085 29
5086 81
5087 26
5088 34
5089 82
5090 5
5091 48
5092 0
5093 15
5094 3
5095 48
5096 35
5097 75
5098 47
5099 34
5100 80
5101 47
5102 66
5103 96
5104 78
5105 13
5106 1
5107 30
5108 90
5109 65
5110 7
5111 31
5112 51
5113 11
5114 64
5115 95
5116 59
5117 17
5118 24
5119 27
5120 79
5121 84
5122 60
5123 5
5124 74
5125 34
5126 100
5127 84
5128 51
5129 85
5130 63
5131 79
5132 49
5133 49
5134 66
5135 77
5136 84
5137 54
5138 51
5139 31
5140 49
5141 42
5142 24
5143 35
5144 94
5145 91
5146 1
5147 61
5148 18
5149 29
5150 93
5151 91
5152 22
5153 76
5154 59
5155 90
5156 16
5157 92
5158 12
5159 63
5160 66
5161 50
5162 72
5163 70
5164 95
5165 65
5166 50
5167 10
5168 104
5169 53
5170 58
5171 76
5172 87
5173 42
5174 23
5175 8
5176 66
5177 49
5178 99
5179 73
5180 3
5181 45
5182 35
5183 81
5184 22
5185 4
5186 99
5187 80
5188 49
5189 32
5190 85
5191 77
5192 64
5193 30
5194 59
5195 36
5196 45
5197 3
5198 70
5199 51
5200 14
5201 16
5202 10
5203 53
5204 19
5205 76
5206 45
5207 97
5208 81
5209 4
5210 23
5211 23
5212 36
5213 26
5214 45
5215 85
5216 0
5217 57
5218 88
5219 6
5220 80
5221 102
5222 33
5223 66
5224 42
5225 33
5226 1
5227 62
5228 3
5229 93
5230 15
5231 66
5232 86
5233 34
5234 68
5235 72
5236 14
5237 43
5238 6
5239 33
5240 7
5241 59
5242 13
5243 80
5244 65
5245 66
5246 55
5247 57
5248 95
5249 60
5250 13
5251 82
5252 99
5253 24
5254 93
5255 30
5256 51
5257 97
5258 57
5259 68
5260 1
5261 27
5262 15
5263 80
5264 96
5265 43
5266 50
5267 45
5268 40
5269 55
5270 34
5271 13
5272 104
5273 100
5274 68
5275 66
5276 32
5277 92
5278 89
5279 79
5280 87
5281 33
5282 27
5283 6
5284 82
5285 66
5286 78
5287 68
5288 39
5289 54
5290 40
5291 46
5292 34
5293 33
5294 61
5295 26
5296 23
5297 85
5298 17
5299 84
5300 32
5301 55
5302 78
5303 71
5304 2
5305 24
5306 71
5307 86
5308 71
5309 86
5310 20
5311 6
5312 90
5313 70
5314 67
5315 80
5316 100
5317 48
5318 68
5319 95
5320 0
5321 36
5322 18
5323 28
5324 38
5325 36
5326 86
5327 24
5328 102
5329 57
5330 86
5331 80
5332 26
5333 24
5334 88
5335 81
5336 40
5337 10
5338 33
5339 18
5340 30
5341 89
5342 36
5343 54
5344 75
5345 86
5346 99
5347 21
5348 42
5349 86
5350 57
5351 42
5352 82
5353 82
5354 63
5355 104
5356 36
5357 97
5358 72
5359 89
5360 9
5361 54
5362 6
5363 77
5364 77
5365 66
5366 83
5367 120
5368 84
5369 23
5370 82
5371 19
5372 24
5373 10
5374 36
5375 32
5376 75
5377 8
5378 83
5379 69
5380 42
5381 79
5382 75
5383 82
5384 16
5385 60
5386 82
5387 5
5388 23
5389 93
5390 45
5391 24
5392 16
5393 0
5394 2
5395 71
5396 85
5397 26
5398 92
5399 42
5400 50
5401 10
5402 97
5403 7
5404 84
5405 42
5406 54
5407 80
5408 6
5409 12
5410 97
5411 24
5412 77
5413 29
5414 69
5415 36
5416 74
5417 68
5418 81
5419 10
5420 83
5421 41
5422 5
5423 41
5424 79
5425 77
5426 14
5427 37
5428 83
5429 80
5430 26
5431 85
5432 34
5433 91
5434 58
5435 101
5436 37
5437 72
5438 66
5439 13
5440 0
5441 8
5442 61
5443 68
5444 104
5445 102
5446 27
5447 31
5448 78
5449 75
5450 80
5451 51
5452 26
5453 102
5454 14
5455 3
5456 44
5457 24
5458 39
5459 101
5460 82
5461 2
5462 27
5463 71
5464 28
5465 2
5466 51
5467 16
5468 6
5469 5
5470 84
5471 86
5472 34
5473 78
5474 74
5475 9
5476 68
5477 23
5478 76
5479 47
5480 93
5481 13
5482 16
5483 24
5484 100
5485 39
5486 93
5487 47
5488 24
5489 84
5490 4
5491 18
5492 81
5493 24
5494 23
5495 51
5496 86
5497 3
5498 89
5499 50
5500 79
5501 59
5502 93
5503 64
5504 42
5505 102
5506 18
5507 56
5508 33
5509 83
5510 37
5511 82
5512 100
5513 49
5514 92
5515 96
5516 90
5517 71
5518 95
5519 41
5520 14
5521 6
5522 8
5523 38
5524 89
5525 8
5526 15
5527 6
5528 60
5529 18
5530 102
5531 61
5532 101
5533 96
5534 85
5535 34
5536 25
5537 68
5538 88
5539 47
5540 40
5541 44
5542 89
5543 53
5544 23
5545 96
5546 93
5547 50
5548 4
5549 86
5550 48
5551 50
5552 95
5553 28
5554 19
5555 10
5556 4
5557 89
5558 74
5559 99
5560 55
5561 55
5562 8
5563 45
5564 104
5565 41
5566 61
5567 94
5568 25
5569 61
5570 39
5571 71
5572 45
5573 93
5574 28
5575 89
5576 71
5577 34
5578 89
5579 67
5580 100
5581 66
5582 44
5583 5
5584 96
5585 65
5586 42
5587 74
5588 7
5589 69
5590 84
5591 48
5592 28
5593 84
5594 86
5595 84
5596 4
5597 14
5598 17
5599 34
5600 53
5601 15
5602 35
5603 33
5604 89
5605 47
5606 54
5607 31
5608 54
5609 46
5610 26
5611 15
5612 66
5613 23
5614 16
5615 13
5616 5
5617 24
5618 40
5619 18
5620 42
5621 10
5622 26
5623 26
5624 59
5625 61
5626 55
5627 4
5628 75
5629 56
5630 54
5631 82
5632 73
5633 23
5634 7
5635 64
5636 16
5637 44
5638 80
5639 61
5640 91
5641 56
5642 2
5643 75
5644 31
5645 86
5646 33
5647 13
5648 84
5649 104
5650 81
5651 69
5652 19
5653 84
5654 77
5655 76
5656 49
5657 6
5658 90
5659 13
5660 32
5661 81
5662 26
5663 88
5664 96
5665 21
5666 80
5667 3
5668 7
5669 6
5670 41
5671 60
5672 0
5673 49
5674 25
5675 43
5676 18
5677 62
5678 31
5679 51
5680 55
5681 79
5682 34
5683 64
5684 45
5685 66
5686 6
5687 92
5688 100
5689 84
5690 46
5691 69
5692 96
5693 101
5694 89
5695 49
5696 48
5697 15
5698 65
5699 10
5700 67
5701 46
5702 56
5703 44
5704 4
5705 30
5706 75
5707 48
5708 58
5709 100
5710 55
5711 34
5712 93
5713 7
5714 71
5715 74
5716 21
5717 73
5718 68
5719 62
5720 73
5721 75
5722 21
5723 24
5724 15
5725 23
5726 38
5727 97
5728 83
5729 6
5730 13
5731 95
5732 99
5733 32
5734 91
5735 27
5736 47
5737 49
5738 5
5739 26
5740 60
5741 33
5742 69
5743 42
5744 2
5745 13
5746 74
5747 36
5748 99
5749 68
5750 28
5751 68
5752 100
5753 66
5754 49
5755 75
5756 40
5757 100
5758 25
5759 72
5760 46
5761 14
5762 96
5763 37
5764 4
5765 40
5766 50
5767 42
5768 121
5769 84
5770 68
5771 82
5772 100
5773 41
5774 0
5775 25
5776 30
5777 96
5778 76
5779 15
5780 99
5781 49
5782 77
5783 13
5784 68
5785 51
5786 15
5787 6
5788 24
5789 9
5790 1
5791 28
5792 65
5793 9
5794 66
5795 40
5796 31
5797 79
5798 5
5799 62
5800 86
5801 31
5802 17
5803 93
5804 12
5805 33
5806 76
5807 21
5808 68
5809 2
5810 58
5811 95
5812 24
5813 94
5814 65
5815 74
5816 93
5817 10
5818 28
5819 47
5820 97
5821 29
5822 82
5823 4
5824 54
5825 64
5826 23
5827 50
5828 95
5829 64
5830 58
5831 87
5832 100
5833 18
5834 95
5835 60
5836 25
5837 56
5838 80
5839 102
5840 55
5841 64
5842 83
5843 74
5844 90
5845 65
5846 84
5847 13
5848 33
5849 82
5850 77
5851 66
5852 20
5853 83
5854 66
5855 64
5856 18
5857 41
5858 48
5859 84
5860 86
5861 26
5862 40
5863 14
5864 95
5865 6
5866 89
5867 73
5868 26
5869 32
5870 14
5871 0
5872 72
5873 14
5874 33
5875 102
5876 99
5877 68
5878 59
5879 65
5880 33
5881 38
5882 26
5883 94
5884 60
5885 84
5886 5
5887 53
5888 34
5889 53
5890 98
5891 22
5892 41
5893 31
5894 48
5895 30
5896 82
5897 66
5898 92
5899 82
5900 84
5901 41
5902 8
5903 62
5904 76
5905 74
5906 90
5907 9
5908 70
5909 20
5910 77
5911 104
5912 96
5913 60
5914 51
5915 6
5916 30
5917 77
5918 12
5919 49
5920 26
5921 26
5922 26
5923 59
5924 78
5925 24
5926 84
5927 36
5928 16
5929 78
5930 29
5931 59
5932 33
5933 49
5934 54
5935 10
5936 17
5937 33
5938 10
5939 21
5940 16
5941 65
5942 101
5943 75
5944 61
5945 82
5946 104
5947 53
5948 28
5949 13
5950 40
5951 2
5952 16
5953 30
5954 68
5955 55
5956 7
5957 80
5958 41
5959 27
5960 70
5961 18
5962 14
5963 47
5964 61
5965 89
5966 13
5967 12
5968 74
5969 87
5970 38
5971 79
5972 95
5973 94
5974 13
5975 6
5976 80
5977 45
5978 10
5979 15
5980 21
5981 101
5982 93
5983 100
5984 87
5985 86
5986 8
5987 19
5988 17
5989 37
5990 86
5991 14
5992 73
5993 90
5994 2
5995 66
5996 88
5997 1
5998 17
5999 13
6000 101
6001 30
6002 6
6003 39
6004 41
6005 89
6006 80
6007 49
6008 9
6009 51
6010 84
6011 30
6012 76
6013 3
6014 36
6015 75
6016 51
6017 33
6018 1
6019 23
6020 96
6021 84
6022 64
6023 24
6024 25
6025 51
6026 78
6027 6
6028 34
6029 84
6030 48
6031 21
6032 38
6033 33
6034 15
6035 51
6036 17
6037 78
6038 31
6039 12
6040 90
6041 67
6042 7
6043 7
6044 28
6045 24
6046 31
6047 35
6048 63
6049 41
6050 40
6051 64
6052 82
6053 104
6054 59
6055 42
6056 25
6057 92
6058 0
6059 72
6060 0
6061 26
6062 62
6063 66
6064 2
6065 82
6066 77
6067 58
6068 24
6069 30
6070 13
6071 56
6072 94
6073 97
6074 25
6075 89
6076 31
6077 57
6078 13
6079 47
6080 83
6081 0
6082 50
6083 21
6084 33
6085 6
6086 31
6087 51
6088 59
6089 77
6090 92
6091 25
6092 32
6093 63
6094 56
6095 61
6096 58
6097 61
6098 31
6099 16
6100 122
6101 13
6102 49
6103 24
6104 28
6105 62
6106 47
6107 18
6108 54
6109 34
6110 34
6111 96
6112 50
6113 101
6114 59
6115 64
6116 0
6117 47
6118 93
6119 18
6120 35
6121 30
6122 64
6123 61
6124 21
6125 62
6126 64
6127 75
6128 60
6129 39
6130 40
6131 18
6132 16
6133 24
6134 89
6135 21
6136 24
6137 83
6138 5
6139 15
6140 101
6141 15
6142 37
6143 51
6144 22
6145 34
6146 27
6147 90
6148 65
6149 22
6150 72
6151 60
6152 82
6153 19
6154 21
6155 67
6156 37
6157 17
6158 63
6159 79
6160 92
6161 19
6162 30
6163 29
6164 90
6165 65
6166 38
6167 30
6168 24
6169 18
6170 54
6171 74
6172 34
6173 95
6174 23
6175 9
6176 13
6177 49
6178 64
6179 100
6180 28
6181 23
6182 17
6183 87
6184 19
6185 61
6186 78
6187 99
6188 41
6189 14
6190 30
6191 83
6192 84
6193 17
6194 1
6195 73
6196 101
6197 66
6198 38
6199 3
6200 67
6201 18
6202 60
6203 28
6204 30
6205 9
6206 79
6207 102
6208 60
6209 31
6210 9
6211 30
6212 95
6213 84
6214 26
6215 61
6216 51
6217 29
6218 13
6219 23
6220 10
6221 53
6222 0
6223 104
6224 57
6225 47
6226 61
6227 75
6228 33
6229 87
6230 82
6231 86
6232 84
6233 93
6234 23
6235 2
6236 42
6237 60
6238 9
6239 84
6240 62
6241 99
6242 20
6243 5
6244 79
6245 100
6246 28
6247 13
6248 75
6249 6
6250 40
6251 86
6252 62
6253 41
6254 63
6255 104
6256 27
6257 32
6258 4
6259 47
6260 71
6261 29
6262 81
6263 89
6264 123
6265 69
6266 12
6267 33
6268 51
6269 34
6270 104
6271 53
6272 34
6273 68
6274 76
6275 85
6276 68
6277 49
6278 76
6279 72
6280 23
6281 93
6282 70
6283 74
6284 7
6285 65
6286 34
6287 40
6288 65
6289 86
6290 97
6291 60
6292 55
6293 46
6294 35
6295 102
6296 94
6297 16
6298 31
6299 79
6300 2
6301 40
6302 8
6303 65
6304 50
6305 49
6306 47
6307 7
6308 48
6309 6
6310 39
6311 88
6312 55
6313 51
6314 31
6315 78
6316 84
6317 75
6318 14
6319 45
6320 25
6321 10
6322 60
6323 58
6324 34
6325 78
6326 72
6327 101
6328 17
6329 33
6330 10
6331 75
6332 14
6333 17
6334 64
6335 56
6336 82
6337 101
6338 29
6339 80
6340 27
6341 100
6342 49
6343 43
6344 25
6345 33
6346 48
6347 54
6348 101
6349 27
6350 28
6351 48
6352 75
6353 93
6354 60
6355 6
6356 9
6357 54
6358 21
6359 17
6360 21
6361 28
6362 86
6363 67
6364 14
6365 97
6366 100
6367 90
6368 34
6369 69
6370 98
6371 13
6372 20
6373 40
6374 69
6375 77
6376 10
6377 66
6378 45
6379 23
6380 34
6381 91
6382 36
6383 23
6384 42
6385 30
6386 69
6387 77
6388 51
6389 96
6390 55
6391 8
6392 32
6393 5
6394 49
6395 34
6396 55
6397 59
6398 37
6399 25
6400 16
6401 82
6402 39
6403 68
6404 73
6405 63
6406 67
6407 55
6408 21
6409 51
6410 46
6411 13
6412 56
6413 67
6414 1
6415 57
6416 38
6417 83
6418 97
6419 37
6420 41
6421 38
6422 60
6423 54
6424 16
6425 56
6426 37
6427 11
6428 98
6429 34
6430 81
6431 91
6432 7
6433 91
6434 77
6435 68
6436 85
6437 11
6438 47
6439 69
6440 40
6441 16
6442 50
6443 1
6444 34
6445 26
6446 26
6447 47
6448 5
6449 34
6450 20
6451 26
6452 24
6453 64
6454 104
6455 24
6456 25
6457 74
6458 96
6459 30
6460 61
6461 64
6462 99
6463 56
6464 62
6465 21
6466 44
6467 23
6468 19
6469 14
6470 75
6471 44
6472 55
6473 37
6474 62
6475 7
6476 48
6477 104
6478 39
6479 26
6480 99
6481 7
6482 26
6483 84
6484 84
6485 48
6486 90
6487 3
6488 54
6489 68
6490 43
6491 2
6492 101
6493 85
6494 85
6495 99
6496 6
6497 63
6498 41
6499 31
6500 10
6501 14
6502 84
6503 69
6504 29
6505 81
6506 30
6507 23
6508 73
6509 72
6510 43
6511 37
6512 84
6513 36
6514 9
6515 99
6516 51
6517 13
6518 47
6519 89
6520 81
6521 51
6522 65
6523 56
6524 15
6525 57
6526 50
6527 94
6528 68
6529 53
6530 21
6531 67
6532 15
6533 15
6534 71
6535 16
6536 104
6537 9
6538 7
6539 3
6540 34
6541 88
6542 3
6543 99
6544 22
6545 0
6546 91
6547 53
6548 0
6549 41
6550 81
6551 31
6552 57
6553 90
6554 22
6555 16
6556 89
6557 31
6558 99
6559 66
6560 5
6561 79
6562 57
6563 61
6564 84
6565 31
6566 74
6567 60
6568 70
6569 23
6570 87
6571 21
6572 6
6573 102
6574 69
6575 33
6576 2
6577 76
6578 57
6579 11
6580 73
6581 61
6582 93
6583 41
6584 97
6585 41
6586 45
6587 20
6588 61
6589 77
6590 40
6591 11
6592 16
6593 51
6594 7
6595 13
6596 11
6597 36
6598 85
6599 56
6600 82
6601 34
6602 33
6603 51
6604 91
6605 96
6606 81
6607 77
6608 78
6609 6
6610 84
6611 85
6612 18
6613 17
6614 59
6615 61
6616 2
6617 97
6618 35
6619 7
6620 33
6621 87
6622 49
6623 4
6624 82
6625 7
6626 68
6627 68
6628 63
6629 28
6630 24
6631 17
6632 61
6633 102
6634 7
6635 41
6636 80
6637 1
6638 40
6639 79
6640 37
6641 100
6642 37
6643 90
6644 96
6645 85
6646 40
6647 28
6648 51
6649 75
6650 19
6651 80
6652 21
6653 4
6654 90
6655 60
6656 15
6657 95
6658 71
6659 63
6660 28
6661 70
6662 19
6663 54
6664 24
6665 77
6666 20
6667 80
6668 49
6669 78
6670 71
6671 7
6672 86
6673 34
6674 91
6675 53
6676 21
6677 18
6678 82
6679 6
6680 15
6681 91
6682 61
6683 0
6684 63
6685 47
6686 30
6687 10
6688 68
6689 6
6690 102
6691 57
6692 2
6693 31
6694 41
6695 85
6696 30
6697 6
6698 90
6699 60
6700 86
6701 16
6702 59
6703 76
6704 67
6705 59
6706 80
6707 65
6708 4
6709 26
6710 89
6711 7
6712 28
6713 56
6714 65
6715 55
6716 89
6717 85
6718 91
6719 26
6720 87
6721 101
6722 54
6723 6
6724 26
6725 15
6726 21
6727 33
6728 27
6729 43
6730 72
6731 13
6732 47
6733 26
6734 60
6735 55
6736 63
6737 13
6738 62
6739 14
6740 55
6741 14
6742 13
6743 7
6744 99
6745 7
6746 86
6747 66
6748 74
6749 20
6750 46
6751 27
6752 17
6753 84
6754 79
6755 80
6756 55
6757 72
6758 92
6759 15
6760 102
6761 24
6762 7
6763 84
6764 51
6765 4
6766 35
6767 3
6768 4
6769 10
6770 80
6771 6
6772 89
6773 18
6774 66
6775 92
6776 101
6777 12
6778 10
6779 78
6780 46
6781 16
6782 61
6783 70
6784 17
6785 50
6786 45
6787 40
6788 91
6789 18
6790 10
6791 35
6792 104
6793 3
6794 75
6795 26
6796 35
6797 48
6798 16
6799 41
6800 22
6801 77
6802 63
6803 87
6804 6
6805 50
6806 8
6807 69
6808 13
6809 23
6810 56
6811 24
6812 13
6813 10
6814 83
6815 37
6816 61
6817 51
6818 13
6819 31
6820 62
6821 78
6822 95
6823 92
6824 50
6825 90
6826 100
6827 10
6828 25
6829 88
6830 37
6831 51
6832 16
6833 86
6834 15
6835 23
6836 80
6837 89
6838 31
6839 15
6840 33
6841 63
6842 102
6843 45
6844 34
6845 10
6846 50
6847 79
6848 35
6849 31
6850 73
6851 39
6852 33
6853 42
6854 87
6855 6
6856 33
6857 21
6858 89
6859 3
6860 71
6861 14
6862 6
6863 19
6864 63
6865 68
6866 64
6867 34
6868 6
6869 47
6870 31
6871 68
6872 56
6873 3
6874 72
6875 44
6876 29
6877 3
6878 86
6879 76
6880 33
6881 22
6882 27
6883 31
6884 37
6885 18
6886 0
6887 62
6888 66
6889 81
6890 54
6891 43
6892 12
6893 34
6894 60
6895 0
6896 25
6897 64
6898 93
6899 47
6900 57
6901 6
6902 50
6903 72
6904 43
6905 73
6906 100
6907 81
6908 22
6909 15
6910 104
6911 63
6912 84
6913 3
6914 4
6915 80
6916 14
6917 41
6918 77
6919 20
6920 55
6921 57
6922 50
6923 59
6924 68
6925 21
6926 19
6927 0
6928 44
6929 96
6930 76
6931 22
6932 38
6933 17
6934 86
6935 18
6936 99
6937 67
6938 6
6939 41
6940 45
6941 39
6942 15
6943 86
6944 9
6945 29
6946 41
6947 31
6948 49
6949 54
6950 59
6951 63
6952 3
6953 19
6954 55
6955 49
6956 30
6957 64
6958 6
6959 72
6960 101
6961 74
6962 93
6963 93
6964 10
6965 39
6966 26
6967 23
6968 7
6969 11
6970 22
6971 71
6972 98
6973 28
6974 34
6975 55
6976 39
6977 5
6978 15
6979 68
6980 95
6981 96
6982 29
6983 24
6984 43
6985 27
6986 18
6987 76
6988 36
6989 51
6990 10
6991 28
6992 59
6993 0
6994 25
6995 100
6996 39
6997 15
6998 70
6999 62
7000 66
7001 84
7002 85
7003 50
7004 49
7005 69
7006 61
7007 36
7008 63
7009 25
7010 100
7011 24
7012 28
7013 27
7014 6
7015 101
7016 93
7017 57
7018 76
7019 63
7020 18
7021 74
7022 0
7023 35
7024 63
7025 79
7026 21
7027 16
7028 47
7029 64
7030 40
7031 20
7032 92
7033 21
7034 41
7035 90
7036 68
7037 73
7038 5
7039 57
7040 38
7041 61
7042 23
7043 49
7044 68
7045 59
7046 15
7047 49
7048 15
7049 27
7050 84
7051 89
7052 71
7053 23
7054 3
7055 51
7056 100
7057 0
7058 68
7059 57
7060 80
7061 70
7062 23
7063 61
7064 39
7065 31
7066 71
7067 15
7068 11
7069 34
7070 9
7071 47
7072 59
7073 28
7074 44
7075 55
7076 28
7077 25
7078 44
7079 62
7080 95
7081 9
7082 31
7083 65
7084 76
7085 47
7086 30
7087 30
7088 38
7089 82
7090 87
7091 9
7092 18
7093 34
7094 45
7095 8
7096 53
7097 44
7098 7
7099 24
7100 47
7101 26
7102 61
7103 10
7104 11
7105 10
7106 13
7107 102
7108 29
7109 100
7110 1
7111 8
7112 68
7113 96
7114 82
7115 76
7116 64
7117 66
7118 33
7119 68
7120 19
7121 26
7122 59
7123 72
7124 75
7125 7
7126 2
7127 79
7128 23
7129 17
7130 15
7131 44
7132 57
7133 33
7134 61
7135 39
7136 45
7137 15
7138 61
7139 92
7140 13
7141 13
7142 95
7143 31
7144 50
7145 24
7146 101
7147 4
7148 17
7149 77
7150 50
7151 19
7152 91
7153 83
7154 9
7155 80
7156 31
7157 83
7158 26
7159 63
7160 86
7161 50
7162 83
7163 96
7164 82
7165 27
7166 99
7167 61
7168 53
7169 102
7170 28
7171 75
7172 60
7173 20
7174 4
7175 54
7176 69
7177 31
7178 68
7179 51
7180 55
7181 30
7182 20
7183 15
7184 99
7185 55
7186 53
7187 61
7188 54
7189 14
7190 13
7191 17
7192 17
7193 23
7194 7
7195 68
7196 53
7197 41
7198 21
7199 77
7200 4
7201 88
7202 48
7203 2
7204 67
7205 7
7206 75
7207 61
7208 77
7209 26
7210 35
7211 56
7212 86
7213 6
7214 60
7215 26
7216 40
7217 84
7218 41
7219 91
7220 59
7221 21
7222 48
7223 43
7224 6
7225 42
7226 85
7227 82
7228 68
7229 83
7230 101
7231 97
7232 34
7233 16
7234 53
7235 23
7236 51
7237 3
7238 73
7239 60
7240 75
7241 17
7242 43
7243 47
7244 71
7245 22
7246 61
7247 33
7248 46
7249 53
7250 40
7251 25
7252 84
7253 41
7254 69
7255 44
7256 37
7257 51
7258 31
7259 51
7260 77
7261 34
7262 81
7263 54
7264 13
7265 42
7266 25
7267 70
7268 57
7269 47
7270 40
7271 6
7272 99
7273 124
7274 93
7275 83
7276 101
7277 99
7278 44
7279 59
7280 82
7281 26
7282 86
7283 1
7284 87
7285 6
7286 58
7287 99
7288 83
7289 16
7290 64
7291 51
7292 79
7293 42
7294 92
7295 104
7296 48
7297 17
7298 63
7299 16
7300 27
7301 23
7302 1
7303 22
7304 99
7305 36
7306 76
7307 19
7308 51
7309 86
7310 26
7311 10
7312 39
7313 66
7314 73
7315 102
7316 95
7317 7
7318 38
7319 56
7320 20
7321 79
7322 31
7323 10
7324 62
7325 99
7326 0
7327 23
7328 93
7329 81
7330 27
7331 46
7332 65
7333 79
7334 62
7335 92
7336 90
7337 48
7338 19
7339 25
7340 96
7341 50
7342 50
7343 75
7344 69
7345 66
7346 50
7347 49
7348 19
7349 9
7350 56
7351 39
7352 95
7353 34
7354 94
7355 99
7356 6
7357 99
7358 13
7359 14
7360 88
7361 69
7362 19
7363 41
7364 11
7365 83
7366 96
7367 16
7368 90
7369 57
7370 89
7371 71
7372 55
7373 84
7374 39
7375 13
7376 93
7377 99
7378 31
7379 100
7380 50
7381 88
7382 36
7383 84
7384 92
7385 54
7386 35
7387 51
7388 96
7389 66
7390 95
7391 53
7392 21
7393 45
7394 37
7395 81
7396 5
7397 61
7398 5
7399 50
7400 7
7401 14
7402 56
7403 10
7404 16
7405 31
7406 19
7407 7
7408 13
7409 102
7410 68
7411 19
7412 3
7413 28
7414 7
7415 102
7416 74
7417 39
7418 50
7419 77
7420 39
7421 68
7422 4
7423 88
7424 86
7425 33
7426 66
7427 40
7428 96
7429 28
7430 24
7431 48
7432 5
7433 97
7434 8
7435 84
7436 30
7437 53
7438 77
7439 95
7440 58
7441 70
7442 25
7443 39
7444 62
7445 13
7446 68
7447 69
7448 17
7449 27
7450 89
7451 31
7452 31
7453 1
7454 12
7455 86
7456 2
7457 51
7458 46
7459 101
7460 92
7461 13
7462 3
7463 26
7464 78
7465 90
7466 6
7467 37
7468 15
7469 81
7470 40
7471 16
7472 100
7473 0
7474 25
7475 43
7476 75
7477 54
7478 23
7479 80
7480 46
7481 11
7482 27
7483 76
7484 9
7485 62
7486 39
7487 58
7488 96
7489 84
7490 6
7491 37
7492 96
7493 61
7494 61
7495 14
7496 57
7497 50
7498 89
7499 85
7500 84
7501 19
7502 25
7503 25
7504 54
7505 23
7506 21
7507 71
7508 46
7509 95
7510 14
7511 51
7512 81
7513 26
7514 67
7515 69
7516 101
7517 67
7518 11
7519 23
7520 60
7521 4
7522 26
7523 34
7524 99
7525 42
7526 3
7527 24
7528 17
7529 61
7530 74
7531 89
7532 45
7533 67
7534 95
7535 63
7536 41
7537 97
7538 16
7539 51
7540 16
7541 23
7542 84
7543 47
7544 99
7545 87
7546 91
7547 15
7548 19
7549 57
7550 55
7551 84
7552 6
7553 24
7554 55
7555 10
7556 18
7557 80
7558 61
7559 27
7560 44
7561 7
7562 66
7563 58
7564 76
7565 18
7566 58
7567 51
7568 10
7569 70
7570 34
7571 17
7572 49
7573 75
7574 15
7575 71
7576 59
7577 72
7578 60
7579 75
7580 32
7581 93
7582 90
7583 15
7584 59
7585 66
7586 2
7587 16
7588 80
7589 7
7590 28
7591 86
7592 66
7593 89
7594 68
7595 79
7596 61
7597 96
7598 16
7599 54
7600 49
7601 86
7602 41
7603 90
7604 100
7605 86
7606 74
7607 49
7608 3
7609 90
7610 72
7611 90
7612 56
7613 9
7614 25
7615 18
7616 60
7617 55
7618 85
7619 47
7620 5
7621 15
7622 97
7623 70
7624 15
7625 93
7626 59
7627 101
7628 4
7629 16
7630 18
7631 20
7632 27
7633 71
7634 79
7635 51
7636 34
7637 26
7638 55
7639 24
7640 3
7641 69
7642 73
7643 88
7644 26
7645 65
7646 96
7647 3
7648 69
7649 100
7650 36
7651 86
7652 6
7653 23
7654 82
7655 15
7656 63
7657 86
7658 97
7659 98
7660 23
7661 66
7662 88
7663 88
7664 102
7665 89
7666 25
7667 47
7668 45
7669 88
7670 75
7671 13
7672 87
7673 72
7674 19
7675 86
7676 67
7677 47
7678 96
7679 74
7680 100
7681 3
7682 63
7683 33
7684 89
7685 42
7686 38
7687 26
7688 96
7689 83
7690 7
7691 8
7692 59
7693 24
7694 30
7695 73
7696 125
7697 7
7698 12
7699 44
7700 42
7701 48
7702 48
7703 1
7704 2
7705 12
7706 19
7707 85
7708 15
7709 97
7710 0
7711 53
7712 57
7713 34
7714 68
7715 23
7716 5
7717 55
7718 57
7719 68
7720 19
7721 3
7722 5
7723 95
7724 17
7725 22
7726 2
7727 1
7728 54
7729 84
7730 35
7731 91
7732 69
7733 20
7734 33
7735 3
7736 9
7737 78
7738 50
7739 6
7740 56
7741 44
7742 102
7743 94
7744 34
7745 73
7746 23
7747 72
7748 104
7749 59
7750 87
7751 15
7752 45
7753 68
7754 88
7755 41
7756 87
7757 99
7758 19
7759 34
7760 9
7761 18
7762 89
7763 88
7764 68
7765 76
7766 17
7767 69
7768 87
7769 35
7770 69
7771 68
7772 17
7773 59
7774 16
7775 19
7776 45
7777 75
7778 56
7779 5
7780 40
7781 76
7782 54
7783 62
7784 78
7785 102
7786 96
7787 86
7788 59
7789 28
7790 48
7791 59
7792 34
7793 36
7794 20
7795 36
7796 104
7797 44
7798 57
7799 82
7800 24
7801 26
7802 91
7803 104
7804 53
7805 88
7806 69
7807 48
7808 54
7809 61
7810 24
7811 3
7812 8
7813 101
7814 20
7815 97
7816 1
7817 63
7818 69
7819 66
7820 15
7821 24
7822 73
7823 91
7824 68
7825 62
7826 48
7827 24
7828 13
7829 64
7830 18
7831 83
7832 50
7833 29
7834 21
7835 46
7836 36
7837 1
7838 60
7839 82
7840 38
7841 20
7842 57
7843 82
7844 30
7845 84
7846 37
7847 12
7848 4
7849 57
7850 23
7851 71
7852 7
7853 4
7854 27
7855 9
7856 14
7857 100
7858 47
7859 6
7860 82
7861 92
7862 94
7863 77
7864 27
7865 33
7866 3
7867 15
7868 7
7869 4
7870 64
7871 26
7872 13
7873 26
7874 19
7875 76
7876 23
7877 97
7878 65
7879 2
7880 13
7881 24
7882 29
7883 60
7884 54
7885 102
7886 76
7887 29
7888 89
7889 41
7890 94
7891 40
7892 90
7893 22
7894 26
7895 4
7896 6
7897 100
7898 19
7899 44
7900 99
7901 86
7902 90
7903 101
7904 63
7905 51
7906 35
7907 19
7908 49
7909 4
7910 21
7911 91
7912 43
7913 30
7914 69
7915 15
7916 19
7917 4
7918 46
7919 91
7920 97
7921 43
7922 28
7923 13
7924 57
7925 61
7926 0
7927 10
7928 59
7929 42
7930 12
7931 4
7932 68
7933 54
7934 101
7935 77
7936 15
7937 47
7938 24
7939 45
7940 92
7941 74
7942 13
7943 70
7944 15
7945 83
7946 51
7947 53
7948 24
7949 15
7950 26
7951 29
7952 87
7953 16
7954 57
7955 22
7956 1
7957 48
7958 0
7959 53
7960 37
7961 29
7962 49
7963 104
7964 11
7965 47
7966 57
7967 102
7968 23
7969 61
7970 61
7971 62
7972 84
7973 45
7974 68
7975 64
7976 70
7977 53
7978 79
7979 83
7980 5
7981 56
7982 48
7983 73
7984 84
7985 21
7986 78
7987 102
7988 93
7989 55
7990 71
7991 91
7992 76
7993 84
7994 47
7995 35
7996 31
7997 3
7998 56
7999 40
8000 4
8001 55
8002 89
8003 28
8004 90
8005 79
8006 83
8007 89
8008 15
8009 33
8010 63
8011 80
8012 28
8013 102
8014 69
8015 55
8016 102
8017 16
8018 42
8019 35
8020 61
8021 59
8022 13
8023 63
8024 81
8025 18
8026 18
8027 13
8028 88
8029 90
8030 45
8031 53
8032 7
8033 67
8034 82
8035 30
8036 77
8037 104
8038 18
8039 84
8040 14
8041 26
8042 9
8043 69
8044 85
8045 98
8046 35
8047 48
8048 61
8049 65
8050 26
8051 92
8052 41
8053 42
8054 82
8055 76
8056 83
8057 64
8058 68
8059 101
8060 61
8061 63
8062 26
8063 45
8064 96
8065 82
8066 58
8067 28
8068 18
8069 55
8070 56
8071 18
8072 64
8073 28
8074 60
8075 33
8076 26
8077 95
8078 96
8079 17
8080 15
8081 26
8082 16
8083 90
8084 70
8085 83
8086 28
8087 48
8088 51
8089 97
8090 27
8091 64
8092 89
8093 20
8094 55
8095 84
8096 104
8097 71
8098 6
8099 92
8100 34
8101 84
8102 6
8103 62
8104 23
8105 88
8106 31
8107 6
8108 55
8109 78
8110 16
8111 68
8112 45
8113 10
8114 90
8115 89
8116 51
8117 21
8118 100
8119 77
8120 48
8121 43
8122 26
8123 31
8124 68
8125 95
8126 70
8127 90
8128 21
8129 70
8130 55
8131 7
8132 2
8133 72
8134 16
8135 68
8136 13
8137 25
8138 66
8139 6
8140 88
8141 77
8142 76
8143 58
8144 55
8145 26
8146 7
8147 87
8148 41
8149 26
8150 17
8151 21
8152 64
8153 16
8154 38
8155 51
8156 79
8157 29
8158 50
8159 92
8160 9
8161 54
8162 74
8163 20
8164 1
8165 26
8166 66
8167 10
8168 19
8169 90
8170 38
8171 5
8172 14
8173 76
8174 39
8175 56
8176 27
8177 96
8178 43
8179 84
8180 18
8181 24
8182 59
8183 14
8184 23
8185 48
8186 83
8187 78
8188 85
8189 88
8190 30
8191 49
8192 67
8193 25
8194 0
8195 43
8196 84
8197 13
8198 31
8199 15
8200 50
8201 81
8202 87
8203 18
8204 59
8205 80
8206 92
8207 26
8208 91
8209 13
8210 94
8211 57
8212 6
8213 16
8214 26
8215 66
8216 4
8217 71
8218 75
8219 0
8220 82
8221 55
8222 21
8223 64
8224 84
8225 85
8226 100
8227 83
8228 19
8229 36
8230 37
8231 46
8232 100
8233 89
8234 55
8235 56
8236 104
8237 24
8238 56
8239 26
8240 51
8241 17
8242 66
8243 65
8244 46
8245 76
8246 1
8247 48
8248 66
8249 3
8250 2
8251 23
8252 12
8253 85
8254 0
8255 6
8256 82
8257 36
8258 75
8259 43
8260 33
8261 68
8262 94
8263 8
8264 91
8265 66
8266 90
8267 26
8268 12
8269 23
8270 99
8271 35
8272 27
8273 49
8274 23
8275 98
8276 32
8277 46
8278 62
8279 53
8280 84
8281 65
8282 24
8283 69
8284 28
8285 75
8286 44
8287 85
8288 20
8289 80
8290 89
8291 71
8292 5
8293 82
8294 47
8295 72
8296 4
8297 64
8298 85
8299 19
8300 86
8301 79
8302 70
8303 15
8304 6
8305 100
8306 97
8307 40
8308 5
8309 1
8310 86
8311 5
8312 72
8313 102
8314 78
8315 14
8316 9
8317 71
8318 30
8319 0
8320 79
8321 0
8322 84
8323 15
8324 33
8325 65
8326 39
8327 6
8328 74
8329 82
8330 16
8331 102
8332 92
8333 40
8334 54
8335 84
8336 104
8337 20
8338 15
8339 42
8340 12
8341 102
8342 51
8343 64
8344 76
8345 88
8346 81
8347 70
8348 74
8349 83
8350 7
8351 59
8352 95
8353 7
8354 9
8355 7
8356 25
8357 49
8358 82
8359 90
8360 71
8361 84
8362 20
8363 19
8364 95
8365 73
8366 1
8367 14
8368 95
8369 31
8370 25
8371 92
8372 10
8373 0
8374 19
8375 21
8376 38
8377 41
8378 53
8379 20
8380 72
8381 7
8382 53
8383 2
8384 3
8385 14
8386 92
8387 18
8388 61
8389 8
8390 19
8391 86
8392 76
8393 30
8394 21
8395 68
8396 38
8397 16
8398 94
8399 28
8400 29
8401 61
8402 86
8403 7
8404 47
8405 30
8406 77
8407 6
8408 34
8409 18
8410 42
8411 75
8412 74
8413 71
8414 10
8415 25
8416 15
8417 28
8418 47
8419 86
8420 14
8421 64
8422 48
8423 23
8424 10
8425 22
8426 9
8427 64
8428 75
8429 86
8430 6
8431 7
8432 74
8433 83
8434 32
8435 92
8436 23
8437 104
8438 53
8439 60
8440 43
8441 55
8442 80
8443 57
8444 18
8445 10
8446 97
8447 61
8448 26
8449 45
8450 19
8451 78
8452 29
8453 24
8454 17
8455 51
8456 84
8457 46
8458 6
8459 35
8460 16
8461 89
8462 11
8463 56
8464 68
8465 104
8466 66
8467 11
8468 28
8469 23
8470 100
8471 59
8472 16
8473 93
8474 2
8475 21
8476 92
8477 48
8478 24
8479 72
8480 93
8481 91
8482 65
8483 72
8484 96
8485 19
8486 92
8487 1
8488 51
8489 73
8490 60
8491 49
8492 47
8493 90
8494 11
8495 10
8496 79
8497 66
8498 102
8499 78
8500 81
8501 94
8502 41
8503 3
8504 55
8505 40
8506 36
8507 23
8508 67
8509 23
8510 75
8511 76
8512 19
8513 86
8514 88
8515 53
8516 47
8517 86
8518 99
8519 37
8520 15
8521 104
8522 65
8523 0
8524 59
8525 57
8526 65
8527 98
8528 45
8529 36
8530 68
8531 39
8532 93
8533 54
8534 24
8535 58
8536 79
8537 28
8538 31
8539 39
8540 75
8541 6
8542 57
8543 31
8544 11
8545 17
8546 18
8547 40
8548 46
8549 13
8550 65
8551 24
8552 84
8553 21
8554 21
8555 36
8556 70
8557 0
8558 1
8559 53
8560 47
8561 80
8562 76
8563 44
8564 92
8565 40
8566 82
8567 126
8568 39
8569 36
8570 101
8571 100
8572 7
8573 57
8574 39
8575 13
8576 58
8577 22
8578 71
8579 56
8580 22
8581 94
8582 41
8583 13
8584 58
8585 34
8586 72
8587 55
8588 66
8589 15
8590 40
8591 86
8592 11
8593 36
8594 86
8595 13
8596 44
8597 25
8598 7
8599 41
8600 89
8601 97
8602 74
8603 73
8604 77
8605 104
8606 55
8607 77
8608 26
8609 92
8610 8
8611 37
8612 34
8613 23
8614 59
8615 32
8616 62
8617 84
8618 21
8619 20
8620 6
8621 18
8622 30
8623 101
8624 36
8625 53
8626 89
8627 41
8628 39
8629 14
8630 7
8631 88
8632 47
8633 71
8634 83
8635 8
8636 85
8637 45
8638 48
8639 28
8640 74
8641 41
8642 69
8643 25
8644 68
8645 66
8646 77
8647 100
8648 23
8649 60
8650 5
8651 15
8652 65
8653 27
8654 47
8655 97
8656 25
8657 54
8658 1
8659 93
8660 34
8661 12
8662 59
8663 7
8664 89
8665 74
8666 46
8667 27
8668 90
8669 62
8670 92
8671 51
8672 16
8673 13
8674 36
8675 7
8676 93
8677 14
8678 49
8679 10
8680 82
8681 22
8682 12
8683 1
8684 33
8685 73
8686 79
8687 83
8688 13
8689 100
8690 97
8691 92
8692 34
8693 59
8694 59
8695 18
8696 78
8697 46
8698 85
8699 16
8700 36
8701 21
8702 62
8703 53
8704 94
8705 44
8706 60
8707 59
8708 93
8709 43
8710 83
8711 48
8712 19
8713 28
8714 15
8715 15
8716 29
8717 28
8718 79
8719 31
8720 1
8721 71
8722 99
8723 34
8724 8
8725 47
8726 95
8727 12
8728 46
8729 10
8730 72
8731 30
8732 89
8733 49
8734 84
8735 89
8736 81
8737 36
8738 85
8739 26
8740 41
8741 30
8742 53
8743 15
8744 67
8745 10
8746 26
8747 78
8748 85
8749 17
8750 93
8751 13
8752 48
8753 80
8754 58
8755 7
8756 68
8757 89
8758 56
8759 57
8760 9
8761 9
8762 4
8763 55
8764 6
8765 63
8766 27
8767 87
8768 31
8769 7
8770 62
8771 93
8772 76
8773 79
8774 53
8775 81
8776 85
8777 60
8778 59
8779 21
8780 4
8781 97
8782 36
8783 98
8784 26
8785 48
8786 57
8787 21
8788 60
8789 33
8790 101
8791 93
8792 5
8793 93
8794 59
8795 4
8796 25
8797 81
8798 54
8799 98
8800 39
8801 23
8802 101
8803 65
8804 71
8805 37
8806 37
8807 47
8808 24
8809 20
8810 70
8811 26
8812 62
8813 63
8814 104
8815 13
8816 48
8817 95
8818 26
8819 28
8820 30
8821 15
8822 66
8823 17
8824 69
8825 11
8826 70
8827 7
8828 25
8829 20
8830 67
8831 43
8832 53
8833 56
8834 76
8835 22
8836 79
8837 104
8838 89
8839 1
8840 95
8841 15
8842 99
8843 9
8844 77
8845 61
8846 74
8847 92
8848 46
8849 7
8850 80
8851 1
8852 60
8853 13
8854 15
8855 80
8856 74
8857 11
8858 82
8859 96
8860 39
8861 16
8862 56
8863 31
8864 79
8865 67
8866 18
8867 61
8868 4
8869 7
8870 2
8871 66
8872 71
8873 68
8874 7
8875 24
8876 88
8877 31
8878 20
8879 56
8880 88
8881 102
8882 5
8883 24
8884 16
8885 26
8886 26
8887 90
8888 49
8889 69
8890 89
8891 35
8892 63
8893 34
8894 82
8895 97
8896 41
8897 49
8898 7
8899 42
8900 76
8901 38
8902 53
8903 85
8904 45
8905 81
8906 7
8907 33
8908 0
8909 95
8910 68
8911 87
8912 53
8913 72
8914 57
8915 21
8916 71
8917 35
8918 68
8919 49
8920 13
8921 81
8922 96
8923 59
8924 31
8925 57
8926 73
8927 15
8928 65
8929 1
8930 73
8931 59
8932 24
8933 26
8934 75
8935 29
8936 55
8937 40
8938 13
8939 51
8940 46
8941 79
8942 16
8943 17
8944 43
8945 6
8946 36
8947 30
8948 40
8949 65
8950 21
8951 60
8952 48
8953 33
8954 70
8955 33
8956 4
8957 30
8958 102
8959 51
8960 24
8961 75
8962 80
8963 13
8964 96
8965 11
8966 101
8967 18
8968 45
8969 6
8970 44
8971 42
8972 47
8973 21
8974 37
8975 55
8976 79
8977 47
8978 63
8979 4
8980 96
8981 13
8982 10
8983 59
8984 61
8985 91
8986 59
8987 33
8988 76
8989 6
8990 18
8991 94
8992 83
8993 83
8994 66
8995 72
8996 34
8997 24
8998 45
8999 46
9000 102
9001 24
9002 6
9003 20
9004 57
9005 89
9006 84
9007 27
9008 36
9009 33
9010 21
9011 97
9012 39
9013 30
9014 40
9015 99
9016 0
9017 97
9018 68
9019 57
9020 24
9021 50
9022 22
9023 84
9024 76
9025 10
9026 75
9027 55
9028 13
9029 18
9030 36
9031 71
9032 82
9033 50
9034 90
9035 68
9036 59
9037 55
9038 79
9039 69
9040 8
9041 44
9042 67
9043 49
9044 9
9045 40
9046 94
9047 67
9048 10
9049 13
9050 98
9051 69
9052 60
9053 76
9054 87
9055 32
9056 76
9057 42
9058 36
9059 21
9060 89
9061 55
9062 100
9063 34
9064 76
9065 0
9066 1
9067 6
9068 64
9069 11
9070 69
9071 37
9072 5
9073 68
9074 47
9075 72
9076 127
9077 45
9078 22
9079 68
9080 51
9081 75
9082 46
9083 84
9084 2
9085 84
9086 96
9087 54
9088 98
9089 68
9090 14
9091 23
9092 70
9093 83
9094 3
9095 23
9096 31
9097 70
9098 87
9099 78
9100 32
9101 86
9102 18
9103 82
9104 78
9105 26
9106 73
9107 95
9108 40
9109 15
9110 59
9111 51
9112 80
9113 60
9114 95
9115 34
9116 94
9117 33
9118 11
9119 33
9120 95
9121 98
9122 47
9123 68
9124 65
9125 79
9126 34
9127 101
9128 36
9129 36
9130 14
9131 40
9132 71
9133 16
9134 89
9135 46
9136 0
9137 82
9138 84
9139 23
9140 46
9141 4
9142 76
9143 41
9144 51
9145 104
9146 31
9147 78
9148 74
9149 62
9150 83
9151 21
9152 28
9153 83
9154 18
9155 38
9156 0
9157 36
9158 28
9159 39
9160 67
9161 73
9162 48
9163 82
9164 47
9165 22
9166 6
9167 84
9168 21
9169 21
9170 79
9171 13
9172 63
9173 100
9174 47
9175 53
9176 10
9177 60
9178 37
9179 42
9180 27
9181 85
9182 93
9183 88
9184 25
9185 97
9186 89
9187 55
9188 60
9189 41
9190 10
9191 88
9192 32
9193 31
9194 16
9195 13
9196 128
9197 78
9198 65
9199 28
9200 19
9201 61
9202 44
9203 65
9204 7
9205 60
9206 56
9207 13
9208 8
9209 98
9210 87
9211 89
9212 0
9213 11
9214 15
9215 53
9216 39
9217 6
9218 97
9219 75
9220 3
9221 48
9222 6
9223 11
9224 39
9225 26
9226 36
9227 79
9228 71
9229 16
9230 55
9231 5
9232 61
9233 22
9234 20
9235 73
9236 75
9237 15
9238 60
9239 27
9240 36
9241 85
9242 34
9243 75
9244 78
9245 99
9246 104
9247 77
9248 7
9249 67
9250 73
9251 4
9252 99
9253 16
9254 31
9255 55
9256 24
9257 51
9258 51
9259 82
9260 20
9261 67
9262 94
9263 90
9264 74
9265 27
9266 49
9267 66
9268 84
9269 15
9270 3
9271 55
9272 76
9273 1
9274 75
9275 12
9276 101
9277 38
9278 11
9279 82
9280 48
9281 6
9282 36
9283 18
9284 55
9285 18
9286 99
9287 7
9288 10
9289 44
9290 70
9291 15
9292 67
9293 36
9294 85
9295 42
9296 55
9297 31
9298 6
9299 46
9300 4
9301 16
9302 80
9303 51
9304 62
9305 47
9306 76
9307 77
9308 90
9309 31
9310 96
9311 27
9312 19
9313 97
9314 68
9315 51
9316 43
9317 93
9318 0
9319 27
9320 51
9321 7
9322 12
9323 18
9324 76
9325 20
9326 33
9327 100
9328 8
9329 67
9330 29
9331 31
9332 54
9333 56
9334 47
9335 101
9336 47
9337 51
9338 32
9339 44
9340 90
9341 14
9342 13
9343 31
9344 104
9345 82
9346 18
9347 30
9348 20
9349 76
9350 68
9351 62
9352 77
9353 61
9354 65
9355 65
9356 64
9357 42
9358 37
9359 83
9360 23
9361 68
9362 37
9363 77
9364 97
9365 42
9366 53
9367 14
9368 68
9369 40
9370 74
9371 31
9372 50
9373 56
9374 99
9375 82
9376 15
9377 12
9378 23
9379 83
9380 7
9381 19
9382 57
9383 71
9384 29
9385 33
9386 42
9387 65
9388 93
9389 1
9390 6
9391 66
9392 42
9393 7
9394 15
9395 14
9396 96
9397 67
9398 97
9399 80
9400 5
9401 23
9402 90
9403 61
9404 53
9405 68
9406 28
9407 36
9408 51
9409 43
9410 101
9411 68
9412 89
9413 33
9414 34
9415 93
9416 18
9417 66
9418 32
9419 34
9420 32
9421 14
9422 90
9423 9
9424 49
9425 84
9426 18
9427 49
9428 19
9429 65
9430 28
9431 7
9432 51
9433 16
9434 0
9435 10
9436 0
9437 14
9438 101
9439 66
9440 42
9441 84
9442 27
9443 89
9444 57
9445 26
9446 27
9447 20
9448 74
9449 11
9450 61
9451 76
9452 18
9453 10
9454 18
9455 102
9456 90
9457 26
9458 88
9459 14
9460 33
9461 41
9462 10
9463 11
9464 38
9465 18
9466 38
9467 6
9468 104
9469 20
9470 90
9471 104
9472 93
9473 34
9474 6
9475 73
9476 17
9477 60
9478 13
9479 43
9480 33
9481 41
9482 45
9483 35
9484 23
9485 90
9486 104
9487 28
9488 63
9489 102
9490 39
9491 33
9492 9
9493 78
9494 13
9495 15
9496 25
9497 28
9498 58
9499 1
9500 11
9501 101
9502 50
9503 4
9504 43
9505 97
9506 84
9507 55
9508 7
9509 48
9510 44
9511 37
9512 104
9513 86
9514 13
9515 68
9516 71
9517 92
9518 41
9519 42
9520 12
9521 6
9522 53
9523 27
9524 89
9525 74
9526 19
9527 35
9528 73
9529 102
9530 56
9531 17
9532 19
9533 7
9534 49
9535 37
9536 92
9537 12
9538 50
9539 95
9540 77
9541 6
9542 27
9543 34
9544 88
9545 33
9546 87
9547 33
9548 14
9549 0
9550 26
9551 33
9552 79
9553 67
9554 3
9555 30
9556 80
9557 30
9558 50
9559 16
9560 10
9561 91
9562 30
9563 63
9564 34
9565 47
9566 42
9567 79
9568 43
9569 28
9570 79
9571 14
9572 16
9573 13
9574 4
9575 90
9576 78
9577 71
9578 24
9579 57
9580 15
9581 74
9582 31
9583 6
9584 13
9585 99
9586 63
9587 40
9588 62
9589 41
9590 54
9591 10
9592 6
9593 37
9594 11
9595 85
9596 47
9597 60
9598 82
9599 55
9600 59
9601 95
9602 76
9603 73
9604 39
9605 13
9606 70
9607 67
9608 13
9609 56
9610 1
9611 12
9612 13
9613 55
9614 33
9615 86
9616 40
9617 96
9618 29
9619 48
9620 83
9621 17
9622 4
9623 12
9624 59
9625 13
9626 13
9627 10
9628 62
9629 31
9630 42
9631 36
9632 99
9633 83
9634 37
9635 14
9636 24
9637 0
9638 70
9639 68
9640 78
9641 4
9642 30
9643 86
9644 89
9645 26
9646 80
9647 23
9648 33
9649 31
9650 14
9651 99
9652 50
9653 21
9654 23
9655 93
9656 60
9657 15
9658 87
9659 7
9660 72
9661 67
9662 51
9663 23
9664 63
9665 41
9666 68
9667 7
9668 38
9669 36
9670 50
9671 22
9672 38
9673 98
9674 78
9675 1
9676 91
9677 23
9678 104
9679 78
9680 61
9681 4
9682 82
9683 10
9684 27
9685 57
9686 58
9687 101
9688 18
9689 82
9690 81
9691 84
9692 15
9693 32
9694 27
9695 32
9696 7
9697 6
9698 75
9699 89
9700 90
9701 36
9702 13
9703 66
9704 90
9705 9
9706 10
9707 30
9708 71
9709 39
9710 101
9711 33
9712 40
9713 31
9714 97
9715 9
9716 84
9717 22
9718 76
9719 38
9720 71
9721 36
9722 95
9723 81
9724 129
9725 7
9726 8
9727 42
9728 81
9729 100
9730 41
9731 18
9732 87
9733 65
9734 86
9735 21
9736 96
9737 46
9738 41
9739 37
9740 12
9741 7
9742 16
9743 25
9744 46
9745 99
9746 18
9747 77
9748 57
9749 100
9750 1
9751 18
9752 104
9753 71
9754 40
9755 86
9756 90
9757 98
9758 58
9759 55
9760 61
9761 36
9762 59
9763 36
9764 73
9765 42
9766 89
9767 33
9768 19
9769 34
9770 88
9771 54
9772 81
9773 49
9774 94
9775 19
9776 82
9777 25
9778 51
9779 79
9780 82
9781 75
9782 34
9783 35
9784 48
9785 102
9786 8
9787 49
9788 80
9789 30
9790 92
9791 72
9792 97
9793 90
9794 76
9795 62
9796 25
9797 7
9798 60
9799 36
9800 45
9801 77
9802 96
9803 4
9804 50
9805 63
9806 49
9807 85
9808 91
9809 66
9810 23
9811 8
9812 97
9813 17
9814 87
9815 30
9816 84
9817 30
9818 68
9819 29
9820 6
9821 19
9822 45
9823 86
9824 99
9825 101
9826 5
9827 104
9828 1
9829 14
9830 19
9831 3
9832 35
9833 19
9834 82
9835 24
9836 45
9837 84
9838 86
9839 86
9840 25
9841 49
9842 90
9843 13
9844 78
9845 13
9846 80
9847 84
9848 64
9849 36
9850 12
9851 65
9852 17
9853 13
9854 55
9855 72
9856 70
9857 64
9858 14
9859 47
9860 22
9861 5
9862 11
9863 101
9864 85
9865 41
9866 69
9867 36
9868 45
9869 60
9870 56
9871 49
9872 7
9873 1
9874 34
9875 13
9876 100
9877 53
9878 40
9879 11
9880 54
9881 10
9882 36
9883 13
9884 95
9885 17
9886 26
9887 31
9888 21
9889 42
9890 82
9891 53
9892 67
9893 99
9894 47
9895 27
9896 29
9897 22
9898 96
9899 0
9900 97
9901 20
9902 63
9903 15
9904 27
9905 72
9906 45
9907 20
9908 94
9909 94
9910 8
9911 80
9912 17
9913 48
9914 1
9915 82
9916 89
9917 30
9918 92
9919 24
9920 0
9921 18
9922 4
9923 68
9924 40
9925 30
9926 90
9927 47
9928 19
9929 61
9930 18
9931 58
9932 31
9933 81
9934 90
9935 41
9936 83
9937 31
9938 130
9939 97
9940 53
9941 1
9942 18
9943 57
9944 21
9945 29
9946 45
9947 89
9948 100
9949 53
9950 6
9951 32
9952 81
9953 88
9954 31
9955 99
9956 63
9957 69
9958 98
9959 18
9960 60
9961 45
9962 50
9963 76
9964 58
9965 85
9966 42
9967 7
9968 25
9969 74
9970 99
9971 96
9972 22
9973 0
9974 49
9975 14
9976 73
9977 95
9978 74
9979 7
9980 13
9981 88
9982 41
9983 13
9984 36
9985 90
9986 25
9987 7
9988 73
9989 22
9990 30
9991 84
9992 91
9993 47
9994 59
9995 0
9996 68
9997 73
9998 56
9999 51
