1 0
3159 1
4003 2
4035 3
5611 4
5876 5
6510 0
8136 6
8342 7
9317 8
9425 0
2 0
2298 0
3621 0
3684 0
4421 0
5827 9
6218 10
6729 0
7581 11
9288 12
9691 13
3 14
1828 15
2253 12
3205 5
4943 10
5579 16
5594 17
7607 14
8785 0
9170 1
9885 18
4 19
4789 19
4905 5
5097 12
6046 8
6579 20
7537 19
7642 21
8882 10
8955 6
9865 16
5 22
887 22
1415 22
1770 12
3290 10
3501 16
3586 22
6339 22
8038 23
8359 16
9369 2
6 22
3624 22
4658 23
5416 21
5489 24
5834 25
6946 11
7532 17
7757 3
7878 5
9775 19
7 26
2905 27
3487 26
4005 26
4015 28
5068 19
5753 29
6490 20
8206 28
8484 30
9811 20
8 27
732 27
1538 31
2751 4
3324 32
7211 33
9207 24
9648 27
9681 9
9742 3
9751 27
9 34
3038 20
4870 7
6499 34
6509 5
7169 27
8358 32
8444 25
8648 34
8676 35
9314 17
10 19
386 9
794 24
1942 19
2605 19
4280 36
5310 5
8274 5
8423 15
9330 33
9849 3
11 29
1585 29
5603 29
5614 31
6553 37
6565 21
7061 12
7446 15
7703 17
8169 9
9843 4
12 20
1806 9
3258 20
3730 20
5471 13
6195 30
6617 5
6668 20
6687 9
8975 26
9896 38
13 6
4014 0
5712 6
6574 6
7435 1
7509 6
7693 6
9290 12
9668 3
9679 13
9959 9
14 8
1505 22
1581 36
1646 8
2613 8
6764 35
8776 30
9101 39
9623 8
9749 40
9930 6
15 9
1527 37
5018 9
5373 35
5544 9
7052 14
7152 3
7998 38
8803 1
16 27
2011 27
3914 34
4731 27
5101 25
5164 39
6099 2
6130 14
8638 27
8706 24
8856 30
17 24
4016 1
4736 28
4847 24
7716 24
8293 19
8723 24
9205 5
9306 14
9830 6
9916 1
18 33
2542 33
3190 20
4643 20
5126 0
5245 33
6061 13
6137 37
8130 3
9099 33
19 1
3124 30
4853 1
6390 1
6819 12
7578 10
7796 1
7952 17
8304 32
8944 32
9265 32
20 23
548 29
1494 8
1634 1
3576 5
4628 23
6375 21
6463 14
7418 11
9187 2
9686 23
21 10
2404 8
2858 1
3706 4
5232 32
6229 19
6413 10
7345 18
8609 10
9152 10
9303 10
22 29
4626 29
5685 23
6021 8
6125 1
6351 29
7776 28
8383 0
8599 10
9007 22
9011 12
23 27
2632 31
2954 33
3587 0
3809 5
6547 27
8447 39
8762 8
9087 20
9459 27
24 39
3166 14
4489 41
7279 34
8660 31
9116 30
9181 39
9397 6
9672 39
9943 0
9984 9
25 13
2375 13
3828 13
6167 12
6682 31
7724 24
9384 17
9441 6
9741 4
26 5
449 5
2893 5
5960 5
6166 3
6514 5
6967 5
7490 18
8918 35
9208 9
9287 32
27 3
3499 3
3592 3
3649 3
4127 3
4776 33
5077 3
5832 2
8240 20
8783 35
28 42
616 42
2529 36
2950 36
3232 41
8605 20
8721 4
8818 5
9057 0
9466 20
29 25
1744 6
2195 25
4197 15
4724 12
4899 10
8191 34
8341 30
8442 25
8555 31
8705 25
30 5
819 36
1919 5
1922 21
2183 33
4618 34
4650 12
6322 26
7414 24
8749 14
31 14
407 0
3774 21
5299 26
6671 14
6909 14
7305 5
9003 19
9243 21
9542 14
9897 42
32 22
354 22
1115 25
4791 18
4871 22
6196 38
6487 22
6571 7
6880 22
7130 11
9558 18
33 19
4498 20
4826 19
6662 10
6823 22
6879 35
7712 19
7828 18
8786 42
9654 19
9921 14
34 42
1103 42
1442 9
1677 32
3142 5
4286 21
4964 42
5784 16
8880 36
9560 7
9787 42
35 36
425 36
4201 21
7145 20
8059 3
8505 12
9156 42
9272 35
9432 10
9462 35
9771 6
36 15
3328 15
4237 8
5645 18
5867 2
6732 37
6905 3
7056 31
7260 15
8275 8
8468 37
37 16
1172 16
1342 10
4349 42
4617 26
5293 0
6805 6
8004 16
8288 11
8432 16
9718 20
38 8
242 22
3283 8
4466 11
7669 13
7698 12
8265 26
8381 6
8977 6
8994 40
39 4
289 24
558 20
1263 4
2430 9
4695 4
4723 4
7587 14
7811 24
9898 35
40 14
2515 29
3172 14
5141 14
5865 14
6157 18
6689 34
7835 15
9417 24
9735 9
9784 4
41 2
1762 37
2659 13
3967 2
4192 2
4258 2
4402 25
5312 21
5945 2
8481 20
8716 0
42 20
2702 8
3432 20
4700 1
5502 17
6307 19
6548 20
9543 8
9829 5
9887 20
9955 9
43 12
1244 12
2052 0
2526 12
4255 20
5509 37
5955 33
6055 12
7291 6
7492 10
9994 21
44 3
1951 38
3646 34
3925 3
4020 10
5969 39
7344 26
7943 3
7954 23
9607 0
9990 8
45 14
1816 21
2554 5
3242 14
4584 14
6365 14
6854 14
7903 14
8905 35
9000 18
9379 14
46 24
915 24
1605 24
5683 1
6333 14
7062 38
7183 24
7231 34
9536 11
9571 34
9826 26
47 4
1615 4
4795 4
4836 4
5734 4
6886 42
7353 34
7400 24
7806 27
8262 1
9733 6
48 3
1403 38
2591 3
2864 3
3053 12
5242 20
7158 3
7890 1
8431 4
9945 17
49 31
1279 3
2254 42
3127 3
4761 31
5003 35
5344 31
8352 23
8807 31
9309 18
9382 29
50 39
1741 39
3761 0
5183 39
6114 21
8018 25
8194 10
8974 20
9360 35
10000 2
51 24
902 12
1750 24
6754 24
8069 1
8473 11
8865 24
9124 24
9684 13
9832 11
52 15
1632 31
1995 15
4613 37
6838 3
7172 4
7847 15
8618 42
8891 8
9667 16
53 4
565 4
1833 4
4458 4
5291 9
8935 5
9301 28
9494 11
9639 36
9969 12
54 19
1876 27
2882 19
4637 19
6373 8
7896 37
8594 31
9107 35
9561 19
9652 19
9868 36
55 9
3944 39
4434 9
7868 9
8147 12
8949 13
8984 4
9028 38
9312 11
9476 11
9942 3
56 14
1622 14
3674 14
4241 0
5384 35
5717 31
8752 17
8837 37
8851 6
9225 20
57 17
810 18
3141 33
3279 17
3355 17
5530 30
6837 4
7922 29
8354 17
8957 2
9119 5
58 21
888 3
1623 26
3827 21
4994 21
6117 42
6863 1
7782 6
8883 21
9068 21
59 4
1024 16
4734 4
4970 4
5255 10
6504 4
6637 2
7338 10
7766 31
8344 4
8656 5
60 24
3305 8
5869 24
6170 41
7745 37
8146 3
8952 1
9128 23
9534 17
9938 9
61 27
439 39
2236 21
5158 31
5911 22
6037 9
7068 16
7254 41
7603 39
8863 27
9979 17
62 37
863 37
1321 39
1532 34
4328 37
6086 0
6799 37
7332 20
9165 13
9835 19
9962 37
63 27
6065 18
6237 3
6541 3
6665 29
7015 28
7223 16
7690 37
8111 27
8910 39
9782 38
64 27
408 27
2760 27
4604 39
5485 27
5701 14
5909 27
6444 4
8019 9
8970 17
9496 12
65 40
3326 23
3387 40
5854 12
6426 40
8062 4
9313 40
9822 34
9872 3
9908 37
66 10
229 10
504 10
4725 25
4913 18
6584 10
6960 24
8357 31
8610 10
8798 8
8828 4
67 5
1365 5
1879 12
2046 9
3785 42
4323 39
5442 9
5882 5
7632 37
8836 3
8995 20
68 14
186 6
219 14
2737 14
4860 5
6226 10
7074 14
7855 42
7940 29
8306 14
69 23
550 23
3050 23
4376 9
4792 39
5883 23
7008 27
7539 22
8044 35
9148 10
9670 20
70 28
2198 20
4068 20
6156 28
6203 1
7443 35
7519 32
7887 28
9713 6
9794 6
9939 31
71 12
521 2
3056 20
5275 12
5570 12
6242 25
6673 8
7493 16
9601 12
72 1
1432 3
2835 35
3009 1
3510 23
3962 36
4432 14
8583 34
8917 14
9840 6
73 16
647 16
3140 23
3196 16
3772 10
4599 35
5889 3
9175 11
9251 16
74 29
676 12
4787 38
5466 37
6956 32
7106 29
7449 33
9528 16
9973 14
75 12
946 12
4856 37
6602 3
7500 2
7627 33
8052 35
8257 3
8259 2
8393 12
9454 6
76 11
3600 11
4593 11
8376 36
8729 34
8758 5
8833 12
9121 11
9837 8
77 2
527 33
1050 2
3725 0
4088 9
4920 42
5252 23
5329 41
9807 26
9819 24
78 5
1224 12
2135 5
6362 6
6728 16
6874 25
6997 19
7251 4
7499 5
8495 3
79 34
1266 3
1662 11
8228 17
8339 39
8834 12
9001 3
9497 10
9876 30
9995 18
80 26
1536 1
2776 34
4173 26
5918 26
7351 26
7403 26
7684 36
7733 26
8456 9
9326 3
81 32
2747 4
2824 32
4176 32
4780 19
5510 32
6652 20
7971 32
7995 3
8256 8
8711 32
82 0
1013 14
1891 20
5205 17
5431 3
7140 27
8778 29
9321 20
9499 32
9928 20
83 21
416 33
749 8
3219 41
5103 31
6393 21
6417 21
6790 36
7186 1
8850 20
9863 37
84 15
1587 15
2177 15
3901 20
4423 14
5453 15
5946 23
6711 15
6738 12
9424 33
9967 20
85 8
190 37
4141 8
6116 7
7280 20
8118 8
8501 8
8617 5
9755 41
9926 14
86 17
1394 14
5743 20
5810 32
7375 17
7410 34
7926 17
8201 17
9065 20
9215 42
9511 39
87 20
3105 3
5552 12
7474 20
9033 6
9189 33
9210 37
9363 20
9620 7
9801 1
88 4
492 4
1297 4
2405 20
4163 33
9492 20
9547 23
9810 37
9851 4
9894 34
89 40
1021 40
4838 40
4946 40
5407 35
7888 2
9088 20
9221 3
9376 20
9866 33
90 12
2260 32
2478 4
2601 12
5751 4
8740 7
8907 12
9192 4
9368 10
9615 20
91 10
1201 34
3381 10
3908 10
4701 36
5586 1
7834 9
7865 21
8418 5
8600 6
92 32
1477 22
2460 32
3668 0
6319 3
6712 16
8078 12
8085 9
8151 5
8881 28
9682 41
93 1
1339 1
4081 17
5648 20
5700 0
6146 34
7728 1
7948 23
7958 19
9238 34
94 7
3084 27
5209 39
5351 7
5397 37
6485 7
7173 13
7549 30
8672 32
8916 3
9927 0
95 37
5624 5
6806 37
6923 22
7565 6
7576 23
7677 9
8171 37
9564 34
9918 23
96 35
2317 25
2617 35
3311 35
4482 6
4825 35
5051 20
7292 33
7985 29
9961 31
97 7
2302 4
3329 7
3848 11
4481 7
5314 7
6102 20
8365 37
8490 15
98 16
465 16
696 16
2390 9
2440 16
5878 35
6144 16
7286 33
8116 42
8163 13
99 34
1530 34
3129 34
4729 18
6297 31
6719 24
8496 1
8858 34
9021 2
9403 7
9450 27
100 10
498 4
3363 10
4866 9
5327 10
5366 10
6931 20
7415 31
9296 21
9311 33
9553 10
101 39
3069 5
4159 25
4793 39
5581 4
7336 12
8076 1
9264 2
9373 15
9693 28
102 2
1621 33
5954 32
7210 2
8453 40
8511 33
8521 32
8812 17
103 42
3523 17
4813 42
7563 15
7682 19
8399 42
9072 17
9685 27
104 37
2639 37
4805 23
5372 8
6407 19
9467 12
9659 23
9954 40
105 7
2047 7
2173 7
3537 0
3635 35
4017 42
4366 26
7207 19
7996 6
8804 7
9705 7
106 1
570 13
3484 1
4253 13
4533 37
5531 20
7053 25
7320 15
8083 38
9458 8
107 42
1410 42
4527 42
5858 42
7545 22
7805 18
8526 12
8572 6
8595 4
9556 8
9947 42
108 28
2213 28
2868 28
4965 13
6771 31
8025 18
8150 37
8581 9
8791 9
8926 2
9026 2
109 15
2859 15
3656 20
3835 10
3961 14
8523 15
8622 42
9002 42
9239 22
9645 38
110 22
1548 22
2728 22
2834 15
3886 22
5493 31
5610 2
7836 14
8200 20
8244 35
111 34
149 24
1909 37
2072 27
5028 39
5670 16
7420 34
8251 34
8349 1
9475 20
112 4
2731 15
4338 30
5359 4
6513 10
6893 39
6942 4
7174 4
9509 23
113 36
563 31
3103 2
5268 12
7469 4
7826 36
8125 8
8364 17
8513 35
9960 34
114 9
3408 9
3415 9
6467 3
8325 39
8469 9
8771 9
9034 29
9387 9
9818 35
115 29
1630 40
2671 14
3857 14
4493 11
5477 29
6198 3
7979 29
8789 33
9612 35
9694 30
116 18
2028 4
3101 6
4852 26
5798 42
8332 18
8373 28
8764 6
9143 37
9204 29
117 1
528 1
4288 0
4320 1
5997 35
7412 19
8980 37
9180 20
9821 36
118 38
955 33
4532 21
5671 38
7181 38
7968 16
8165 10
8190 38
8700 2
9579 39
9853 42
119 32
533 14
909 12
2012 32
4217 32
5928 32
6140 32
6640 3
9159 3
9683 19
120 18
1426 4
1563 14
2977 18
2989 18
3245 15
3296 18
6678 25
7553 20
8889 6
121 17
1678 8
1688 17
4979 33
6132 23
6862 17
7566 20
8492 35
8636 14
8832 18
122 17
362 9
717 17
877 17
3782 30
6022 30
6816 17
7103 37
8613 17
9421 14
123 41
927 35
2287 41
3584 20
3623 21
3810 39
6019 41
9489 41
124 14
1440 22
2017 14
2325 27
3079 14
3100 20
8825 20
9258 42
9503 5
9577 3
125 35
885 35
3993 35
5430 35
5578 5
6200 1
8067 3
8390 35
9218 0
9763 12
9823 35
126 29
320 9
2343 29
3640 12
6032 4
7012 29
7472 25
7486 25
7829 11
8792 19
127 14
2504 26
3765 22
4098 2
5027 20
8890 31
9578 39
9914 14
128 42
1785 42
5768 42
6387 35
6948 13
7339 10
7451 21
8635 37
9182 5
9419 34
129 15
2576 15
2973 15
3974 36
4497 3
6698 6
7146 34
8763 9
8855 25
130 11
3858 11
5428 11
6578 31
8290 8
8378 9
8642 33
9338 3
131 31
3822 31
4142 7
8436 34
8630 31
9227 1
9490 2
9501 33
9598 40
132 20
420 39
488 20
1694 20
1894 18
1981 24
5595 33
6433 40
8992 18
133 18
2232 18
2948 18
5254 6
6910 31
7707 4
9798 36
134 4
206 13
6358 4
8037 4
8788 16
9038 4
9991 8
135 6
872 19
2338 16
4980 20
5593 39
7857 18
8607 8
9711 6
136 18
1166 18
4360 18
6722 14
7163 12
7657 4
8272 26
9268 18
9545 18
9850 0
137 14
5143 23
5527 17
5907 14
6118 20
6236 9
6685 40
8243 5
8310 15
8488 0
138 17
285 3
798 17
3037 17
5279 17
6901 37
7502 32
8999 17
9282 17
9343 6
139 18
471 6
1769 18
6096 9
7100 11
8055 15
8457 20
9082 32
9420 22
140 12
1389 12
2437 33
2691 28
2764 27
4862 12
5191 12
5632 12
6494 10
7769 42
8686 39
141 31
1914 31
4380 31
4519 25
6793 31
8510 21
9004 31
9457 17
9588 7
9941 18
142 42
2706 42
3170 42
6107 17
6625 39
7597 42
7803 20
8129 24
9244 14
9724 11
143 25
1238 20
1949 21
3204 38
3628 6
4170 14
5185 25
6857 25
6944 1
9504 31
144 11
2369 15
2746 14
6766 31
6937 5
7386 11
8167 12
8285 10
8573 37
8956 11
9230 11
145 42
4313 42
5108 37
5893 28
6329 20
8131 6
8950 35
9069 5
9350 12
146 28
2876 20
4189 42
5974 8
6736 28
6912 10
7274 38
9709 0
9878 32
147 2
779 2
1911 11
4962 34
6531 2
6772 2
7845 42
8703 5
9774 17
148 15
3417 37
4717 24
6826 4
7224 27
7497 23
8628 3
9434 9
324 24
3163 15
3239 9
3781 24
7457 24
7743 3
9963 0
150 37
1421 9
6889 37
8369 8
8446 8
8504 12
8550 5
9557 8
9663 6
9816 37
9833 29
151 27
4032 31
5266 27
6670 42
6887 23
7102 27
9113 4
9415 11
9743 23
152 4
193 15
637 10
3719 23
7045 3
9385 24
9671 4
9765 6
9925 41
153 11
327 11
453 3
881 11
1395 11
6088 14
6151 3
7319 9
7368 17
9269 20
154 42
1655 11
2391 42
3547 17
3733 42
4167 23
4551 41
5778 42
7917 0
9120 35
155 11
2869 3
5424 17
5583 11
6789 11
8268 11
8958 6
9232 42
9250 1
9585 11
156 4
3700 4
5772 21
6047 19
8430 12
8590 4
9191 4
9249 15
157 34
790 2
3875 10
5511 39
5732 27
7278 2
8802 9
8936 34
9521 0
9745 13
158 27
2461 32
4009 27
5861 18
6324 29
6792 4
9757 33
9861 9
159 35
2203 34
2227 42
2565 15
3518 35
5838 20
6317 16
7058 12
7390 38
9061 12
160 31
4510 34
4950 31
6398 5
6544 24
7193 35
7920 35
8093 29
8449 18
161 17
4169 42
4251 34
5616 26
6184 9
6699 17
7458 5
9485 20
162 14
1154 14
1670 16
1866 14
3453 11
6564 31
7028 18
7114 8
8291 4
8809 14
9407 12
163 38
1971 35
4561 38
5558 5
5763 39
6298 8
6470 38
7304 28
8732 38
9195 26
9299 30
164 33
4345 9
4589 21
5473 33
5886 33
6191 26
8673 42
8692 23
165 4
658 4
1795 4
2095 6
2110 2
2511 4
4719 24
9051 16
9409 15
9486 33
9541 7
166 3
2162 3
2199 21
4171 3
5071 5
6996 26
8509 3
8639 35
9246 33
9907 30
9919 15
167 39
747 12
1847 3
3794 13
5238 9
7063 39
7608 12
7975 10
8086 3
168 0
1607 12
2569 0
4175 22
5512 0
6187 8
6461 40
7297 0
8892 31
169 1
2020 41
2921 20
2937 11
6208 9
8207 29
9414 13
9650 42
9687 0
170 6
4515 6
4758 6
5308 22
6352 37
7213 38
7377 6
7993 6
9169 42
171 42
1508 11
2678 16
2701 42
4514 8
4718 42
5411 12
6350 30
8978 19
172 25
2101 20
2108 25
3626 33
6189 25
6312 19
7077 20
9212 2
173 35
4755 35
5225 3
5422 6
8057 2
8311 20
174 17
1211 17
2339 3
3860 3
4162 31
4794 19
5287 36
7583 26
8625 18
8632 10
9193 32
175 27
2240 36
2479 27
3200 27
8063 27
8439 1
9404 20
9513 20
9864 25
176 29
6530 6
6567 29
6818 8
8128 18
8611 41
9597 18
9656 29
9949 29
177 7
730 7
772 7
1186 39
5072 8
6867 24
8445 31
9372 35
9526 9
9736 21
9768 39
178 4
1104 14
1583 4
2544 4
4827 4
5814 42
6056 28
6679 27
9196 10
9461 42
179 18
2484 15
4872 15
8612 42
8981 9
9862 9
9944 20
180 14
3614 5
4375 23
4984 14
6418 6
8211 1
8280 34
9502 10
9791 37
181 9
1773 9
3473 9
5029 12
8527 6
8784 8
9820 11
182 36
1147 36
1991 1
3504 20
4277 21
5410 27
6238 36
8554 32
8629 38
8857 42
183 9
1811 9
3617 0
4195 5
5812 9
8549 4
8971 25
9398 9
9948 20
184 0
1693 0
2974 8
6394 36
6469 2
6592 0
8212 19
8608 0
185 18
1545 31
1938 23
4588 18
4869 32
6399 39
7709 18
8631 20
9053 28
1932 23
2401 42
5773 6
6643 26
9184 0
9405 40
9443 6
9950 1
187 2
1937 2
2008 15
2465 1
3174 39
3457 36
4270 19
6168 35
7441 17
188 2
461 41
4161 20
4418 20
5649 3
7219 2
8367 2
8931 11
9316 2
9873 17
189 5
1482 0
4621 33
7221 8
8806 10
9297 35
9308 5
9329 10
9788 23
2433 37
3688 39
5260 29
7092 3
8745 1
9574 18
9595 30
9904 19
191 41
278 41
741 41
2300 35
7530 25
8461 5
8765 3
8859 23
9140 13
9880 13
192 10
5667 14
8182 27
8398 38
8911 20
9247 41
9300 9
9793 6
268 15
681 15
2494 15
4379 19
6959 30
8979 0
194 3
1243 3
2384 34
5707 3
5737 4
6440 35
6583 24
7234 31
7389 39
195 17
1665 36
7075 17
7240 17
7694 21
8102 37
9412 0
9600 10
9658 35
9772 20
196 17
2454 3
3556 11
4683 6
5664 3
6405 3
7038 0
197 12
494 0
2946 1
3874 18
4306 3
5136 12
5470 12
6831 12
7892 37
198 20
1487 20
1913 12
3059 11
5754 20
6839 33
6908 20
7261 8
9059 14
9327 18
199 31
1264 31
3533 40
6742 34
7357 0
7534 19
7641 35
8845 31
9722 0
200 0
4982 0
5461 19
6658 32
7404 12
7550 0
8730 41
9231 39
201 23
3677 33
4959 6
6306 24
6327 18
6423 23
7050 17
7354 16
8964 3
9252 39
9638 23
202 37
736 37
5002 21
5866 28
6222 24
7369 5
7554 8
9546 24
9978 3
203 8
2428 3
3622 23
4108 2
7992 8
9130 25
9437 20
9469 33
204 16
4077 16
4645 35
6018 16
7036 3
7273 16
7480 16
8927 0
9395 35
9661 0
205 28
3133 10
5767 9
6436 36
6614 28
7577 20
8132 35
8489 31
9136 29
256 13
3907 13
9097 39
9320 13
9568 12
9759 22
207 35
4754 7
5015 35
5138 35
7249 37
7438 30
7531 33
8584 42
9359 32
208 17
2068 30
2872 25
5769 37
8173 2
8202 11
9532 17
9746 20
209 37
1565 32
2074 37
2971 26
3763 10
5694 3
6103 37
6707 9
9797 32
210 20
3458 41
3497 20
5625 19
6572 20
7396 18
7695 8
8443 39
8759 8
211 36
722 36
2670 1
5036 35
6539 20
7401 6
9510 22
212 19
2241 1
3074 19
3565 19
4614 37
4884 20
6188 28
6731 24
9790 20
213 8
6030 38
7392 24
8313 0
8717 41
8849 20
9400 23
214 0
1424 0
5021 32
5702 35
8014 3
8215 14
8794 9
9714 18
9899 38
215 25
233 25
1064 42
1375 15
4659 14
6342 9
7097 37
7444 8
7691 25
8168 25
9174 37
216 21
6619 2
6979 21
7322 14
8066 21
8536 28
217 1
6773 1
7227 3
8387 19
9390 4
9533 42
9708 18
9773 10
9903 16
218 3
1931 3
2464 3
3480 3
4234 2
5982 19
6991 41
7760 0
7919 24
9877 31
3429 16
6672 3
6876 14
8476 12
9276 20
9472 4
220 37
2592 37
2710 6
6835 12
9023 20
9197 9
9852 34
221 2
5229 39
6483 34
6646 42
8092 5
8627 10
9646 28
9725 13
9750 11
222 4
506 25
5052 11
7091 37
7783 27
7867 12
9383 3
9480 5
223 4
2705 24
5195 4
6542 1
7337 4
7853 12
7962 6
9727 8
224 0
1669 0
2224 0
4063 39
4135 0
5343 0
8508 0
9273 42
9348 26
225 2
2719 33
3385 2
4858 18
7883 17
8328 15
226 2
1679 25
3989 26
4727 2
4837 2
5152 8
6080 27
7270 2
9627 20
227 10
1500 10
5815 13
5831 10
6462 8
8221 39
8569 20
8996 36
228 14
1526 14
3895 14
4474 3
5224 24
5272 10
6856 14
6927 12
7505 0
7870 14
4523 10
4642 10
8104 30
8602 5
8739 22
230 32
582 10
620 32
994 32
2854 32
3441 6
5001 19
7290 42
8516 17
9516 24
231 20
243 20
666 19
4798 6
5668 6
6313 20
6871 34
9035 7
9809 38
232 13
1840 12
3463 20
7272 13
7612 18
7787 33
8460 23
9220 14
1282 25
3631 26
4416 14
5192 24
6009 4
8305 12
8426 25
8435 5
234 1
1152 24
1980 1
2228 0
2726 1
3741 12
5357 1
6875 11
7861 5
9286 1
235 17
1417 17
2285 17
5681 27
5868 19
6264 20
6883 9
8113 29
9168 20
9611 12
236 31
4769 31
6587 31
7160 9
7333 31
8001 20
8987 5
9261 37
237 3
1511 25
3287 19
3987 19
4024 15
4089 10
7542 7
8351 42
9356 17
238 18
2308 3
2886 11
4190 18
8094 12
239 37
1713 10
5050 3
5250 37
5426 19
5574 37
9435 18
9464 15
240 18
869 0
901 3
1589 18
5887 39
9248 31
9589 18
9976 35
241 29
1072 29
2031 39
3659 20
7494 8
9911 13
9951 20
1019 22
4885 35
5220 20
8552 28
9468 38
9478 26
9562 42
9576 42
9924 31
1499 6
2777 20
3951 12
5201 1
5975 20
8154 7
9115 12
9980 21
244 20
517 4
2475 14
2599 20
5433 35
6914 42
8204 31
9043 20
9590 12
245 17
4504 4
5658 7
5682 2
6552 17
8893 12
9630 15
246 26
875 26
2833 26
4537 35
4597 3
7018 18
7737 33
8003 35
9895 18
247 5
4308 5
6041 5
7487 27
9378 10
9411 18
248 6
1859 6
2249 6
4105 16
4752 6
5547 12
6780 36
7503 10
8697 1
8932 14
249 28
524 28
3508 14
4706 15
4819 28
9194 1
9839 28
250 8
299 8
1414 36
6796 8
7391 24
7959 8
8368 17
9989 8
251 35
1749 35
2918 20
4053 35
7298 39
9081 34
252 14
2448 42
2750 14
3143 15
5073 26
5153 25
7907 34
8965 39
9610 20
253 36
3301 5
4667 36
7963 23
8925 0
9226 36
9339 20
9815 4
254 8
4891 8
5479 8
6752 20
7433 33
7767 35
8178 33
8769 29
255 17
387 17
4004 24
4435 17
4502 38
7909 20
8079 28
9422 10
2107 14
3368 0
5033 0
6232 27
6330 6
6783 13
7216 34
9673 20
257 35
1220 32
3842 35
4285 35
4585 12
7307 32
7430 20
8348 35
9439 29
9698 35
258 0
3332 25
3403 0
4460 0
7720 25
8553 32
9279 25
9445 24
9453 11
259 0
568 0
2429 14
3764 3
5699 0
6059 12
7590 12
9377 18
9910 4
260 37
1521 22
3643 22
5270 17
5368 37
7536 32
9758 3
9842 20
261 0
1113 0
3280 22
3322 10
4674 26
4889 0
5959 9
7022 11
7765 0
8664 0
262 21
1524 17
2319 35
3758 21
6452 21
8728 3
9838 22
263 33
1658 30
2789 33
5708 32
7082 17
8985 5
9063 14
9999 4
264 4
2539 9
2928 4
2945 20
4076 4
4513 4
7434 4
9617 42
265 33
2926 31
3525 8
3867 33
3940 33
4186 0
7263 6
7715 34
8119 20
8254 42
266 3
463 3
4581 3
6034 3
7085 6
9015 20
9037 3
9805 15
9920 18
267 0
846 18
2271 42
3709 0
5582 0
6402 21
6503 26
9371 3
9827 14
5046 15
7904 13
9006 9
9747 6
9860 9
269 36
3516 5
3981 36
4969 9
6753 36
8121 20
8577 35
9008 33
270 26
458 8
2314 18
7970 36
8091 26
8616 0
9005 32
9783 6
271 9
2847 18
3512 9
3593 9
3738 7
8096 9
9570 5
9604 39
9717 23
272 3
3106 25
4061 12
4097 36
6076 33
7858 3
7913 3
9089 9
273 20
3273 20
6492 3
6978 23
7162 20
8464 2
8829 12
274 22
1502 22
5673 39
8289 22
8421 22
9456 2
9786 21
275 9
4547 9
5404 30
5643 5
6178 13
7425 20
7744 15
8346 9
8363 31
9971 24
276 14
971 14
3934 26
5219 27
6537 10
8028 13
8334 14
277 17
286 37
4784 41
4797 17
4963 35
5182 17
8058 9
9626 4
9702 31
2634 15
4753 28
5818 41
7060 3
7630 41
7667 2
8237 11
8744 17
279 33
2289 33
3249 14
5600 24
5884 29
5948 31
7561 30
9365 1
9812 9
280 10
1222 4
5961 8
7359 23
9289 3
281 0
890 0
1020 11
1219 0
2828 4
4123 9
4505 31
5218 4
5414 0
9836 38
282 4
560 3
2431 0
3475 4
4644 23
4917 16
5873 1
7774 32
8372 37
8498 27
9488 4
283 25
1118 34
1989 8
3490 25
5383 25
6379 27
9054 34
9506 23
9522 17
9551 17
284 37
306 42
4385 0
7620 24
8637 9
9366 25
1116 3
2851 3
6929 13
6984 3
7999 37
8767 33
9756 35
619 6
7009 18
7512 37
7623 19
7742 39
9335 17
287 6
2645 6
4985 9
6240 34
7636 4
8519 6
9172 6
9761 6
288 21
1637 22
4378 21
7253 32
8596 1
9473 3
3918 24
5319 0
6549 36
7540 24
7918 18
8144 24
290 37
297 37
5111 36
5790 12
6261 37
6311 7
9203 37
291 27
792 27
5711 27
6127 32
8034 39
8384 23
8940 42
9030 39
9479 34
292 21
600 17
2707 21
3580 21
4265 21
4565 37
4977 1
6227 26
7241 5
7634 21
293 37
743 37
873 1
1356 6
3957 2
6211 39
8395 14
8433 4
294 6
1153 6
2144 26
2499 6
4536 6
5789 11
5952 31
8506 22
8782 1
9042 14
295 39
366 39
956 12
5139 38
5816 12
6337 39
6622 39
9093 13
9482 3
296 22
2129 3
4353 22
5469 22
7115 1
7311 13
8124 15
8525 37
9901 1
2201 37
2996 33
5524 23
7866 12
8235 12
298 37
2351 3
2365 37
2550 21
4685 0
6631 6
9712 12
1636 8
4405 41
5123 6
7051 14
8394 20
8685 29
300 35
5243 42
6605 19
8405 35
9596 20
9922 31
301 35
2638 28
4818 35
6751 26
7564 37
9179 29
302 9
2985 9
4244 9
6613 12
7039 23
8011 9
9049 27
9474 19
9867 38
303 26
349 31
1055 6
2462 35
5335 32
7117 26
9163 9
9418 9
9824 39
304 19
2133 36
2790 10
7001 42
7149 19
7202 33
8754 34
9519 19
9752 35
305 17
427 32
1652 37
2531 17
6845 41
9076 39
9770 6
1437 3
3705 35
5563 42
5830 0
8941 34
9527 31
9859 28
307 5
1544 28
2138 16
3648 5
4473 27
6209 41
7342 37
9436 5
9539 31
308 3
3973 12
4347 18
4471 14
5007 3
7794 12
7893 31
8324 4
9211 6
9401 4
309 14
1059 10
1102 20
1327 14
6248 15
6683 37
8541 6
8615 14
8930 27
9235 20
310 11
1784 11
3016 10
6638 11
7409 11
8874 11
9799 17
311 5
464 5
1439 4
1983 24
2556 28
5084 5
7021 20
7308 20
7891 9
8710 34
312 2
1409 2
2742 2
3440 2
6623 5
8649 35
313 19
2283 1
6814 19
7574 42
7839 28
8000 20
9044 42
314 17
606 4
6345 17
7157 12
315 21
2652 5
8159 32
9047 8
9139 37
9548 35
9869 21
316 25
976 25
2990 21
4842 2
5775 26
6992 25
7543 7
9271 25
9449 3
317 35
2452 35
6109 35
7711 32
318 12
1397 17
2238 12
2548 12
3976 14
7467 12
7475 12
7663 25
9285 21
9364 21
9448 5
319 21
2480 21
2793 21
3683 27
4166 7
5355 21
6832 20
6970 21
8229 21
9764 1
3898 14
4492 32
4803 35
4934 15
8604 9
9277 9
321 15
1303 15
2246 35
6071 10
7083 27
8563 1
9086 15
9635 33
322 28
473 21
1726 40
3182 28
3348 15
5023 19
7436 6
7771 10
8920 42
323 10
1616 10
2915 10
6540 24
7644 39
8885 20
9331 4
9974 20
6182 12
8300 4
9505 33
9634 1
9729 7
325 14
1254 12
4499 20
6410 5
7365 14
7398 37
8302 14
326 35
1803 6
5303 11
5714 11
7203 5
8185 35
8853 42
1398 4
4254 22
4976 11
7367 0
7465 11
9470 34
328 0
2458 21
3137 5
3272 0
7363 3
7725 9
8345 40
9396 35
329 9
999 16
3354 9
7266 33
8568 9
8658 6
330 19
5133 8
6183 18
6287 19
7238 0
9154 33
9253 28
9905 12
331 27
4704 3
4973 27
5689 3
7946 27
8533 27
8734 1
9214 27
332 3
1478 1
1573 3
3777 4
6185 20
6928 38
8416 21
333 4
476 34
5116 4
7646 26
8258 14
9263 2
9307 20
334 20
1183 20
1817 7
4172 20
4830 5
6204 5
335 14
2294 7
2696 14
3669 14
4309 0
5104 3
5528 5
8826 37
336 15
2137 15
5990 31
8250 1
337 18
908 14
4880 22
6224 18
7236 22
8385 18
8560 24
9550 22
338 3
4524 3
5417 4
8747 3
9109 21
9640 14
9940 13
339 42
3029 42
3061 5
6257 42
7914 14
8224 9
9655 22
340 14
671 14
1663 14
2164 13
3049 14
4907 35
4926 12
5035 14
9582 11
341 33
500 33
910 33
3286 24
3470 33
3474 33
4058 4
7155 33
9737 6
342 20
2033 29
2273 6
2614 17
3824 20
5374 0
7166 10
9968 20
343 22
4883 35
7108 38
7252 22
7685 3
8396 22
8731 18
9440 31
344 20
2773 32
5472 20
5803 17
6376 2
7460 20
9706 20
345 24
3554 13
3852 14
6186 11
7264 24
8760 29
9354 34
9455 9
346 24
4620 34
6663 11
7723 24
8969 24
9137 20
9707 24
347 32
2646 9
2782 4
4957 32
6809 8
6935 24
7024 42
8172 3
8386 23
348 15
3186 12
4419 13
8477 32
8805 37
9147 37
9233 41
9389 14
2038 8
5661 11
6150 11
7739 0
7957 14
9391 12
350 11
3720 2
3995 13
4680 11
5541 0
5601 11
5721 29
6020 11
7981 26
351 42
1650 15
3233 42
4183 11
4867 42
8482 33
8574 4
9361 9
352 3
1510 22
1985 24
4124 28
5503 3
6089 6
9013 37
9565 18
9879 9
353 42
1082 14
1202 33
2755 42
2849 42
8420 21
8991 39
9690 11
2291 22
3030 14
7557 22
7930 22
8176 14
9416 3
355 24
866 37
970 24
4028 24
5122 21
5766 24
356 14
1290 18
4007 14
4863 36
4916 14
7551 10
8006 18
8064 25
8546 3
9529 36
357 35
1197 5
2131 14
3420 41
6214 6
7778 35
8238 12
8844 24
9114 12
358 27
2061 3
2153 3
2418 27
6593 7
7686 27
359 0
1106 19
5056 0
5495 28
8751 3
9202 11
9386 26
9689 17
9769 18
9902 2
360 25
2016 31
2276 25
7468 25
7881 35
8466 38
8543 6
8621 37
361 41
941 9
2502 41
2666 20
3690 0
5862 36
7282 17
9275 3
2360 8
2364 9
6250 9
7664 23
8799 12
363 34
4249 24
5915 34
6129 34
6705 12
7366 9
8634 12
364 37
2193 35
3179 14
5506 37
7380 37
7579 35
7969 37
8737 9
365 7
1088 28
7233 20
7832 18
8896 1
9291 1
5286 12
6993 3
8614 39
8841 26
8924 38
367 30
3595 30
3861 20
4331 4
5010 30
5806 3
6651 12
7700 4
8531 42
368 36
982 9
3168 20
4177 36
5612 4
6557 36
8983 0
9155 1
369 18
3768 18
5247 1
5633 18
7271 11
8279 14
9622 18
9704 21
9734 18
370 40
1011 40
1042 31
5468 20
6142 12
6308 31
8284 1
9183 3
371 8
1326 8
2703 15
3666 42
4942 9
6296 1
372 37
3732 37
5436 26
5478 7
5921 37
5993 42
7431 8
8973 21
9157 39
373 3
1918 39
3703 3
4294 2
6371 3
9102 36
9632 30
9935 5
374 3
2802 4
3982 3
4094 3
4778 20
5863 20
7781 32
8655 24
9236 25
375 12
1547 30
5059 12
8046 7
8847 38
376 23
2093 23
4395 20
4616 5
4953 37
4986 14
9913 17
9958 11
377 4
963 4
5786 6
6986 32
7504 35
8667 22
9094 4
378 42
5230 19
8309 6
8879 30
9259 37
379 24
1648 24
4552 41
5533 37
7741 24
8031 4
380 4
674 8
2266 4
6518 18
7824 28
9055 34
9206 26
9993 4
381 24
1131 24
1569 6
3304 22
4052 34
6265 24
7040 29
9353 31
382 21
821 2
1789 32
4295 21
4991 39
6316 21
6774 21
383 3
734 16
4140 3
5148 24
8252 3
9915 31
9998 6
384 17
951 37
4678 17
5514 21
5822 38
7239 17
7591 35
8016 30
385 4
2537 4
7113 20
8108 20
8755 42
9134 32
9341 13
1136 42
2624 12
3347 9
4765 42
5043 9
6278 19
6855 35
7533 9
1787 33
1831 20
4924 11
5289 32
5710 25
7726 19
8424 19
9070 17
388 20
2242 8
5991 20
6714 35
7601 19
8061 22
389 20
621 3
1845 20
3364 21
5155 22
5354 32
6607 8
6878 20
390 37
608 37
2533 3
6515 37
7753 25
7931 37
8022 17
8933 27
391 42
432 42
4564 24
5093 20
5813 42
8089 34
8452 42
8619 42
9493 42
392 12
3358 42
4055 12
6036 0
6050 1
8075 9
393 9
4672 9
6840 8
7192 22
8948 28
9657 2
394 35
1155 35
2903 35
3005 19
3333 35
5441 27
7595 12
395 23
1758 20
3264 23
4874 24
7631 12
7729 32
7879 18
9334 20
9580 23
396 9
1411 21
4439 9
8914 36
9144 18
397 31
4800 20
7609 31
9129 4
9426 21
398 0
4292 3
4370 4
5519 0
6897 15
8580 5
8750 26
9342 3
399 6
5352 20
6778 6
6891 40
8032 20
8774 10
400 32
1376 35
1504 24
1927 34
4624 28
4670 3
7759 29
9701 11
401 28
1031 28
3156 20
5048 23
5792 20
7624 20
7773 7
8323 35
8458 28
8472 21
9544 42
402 37
1340 37
3424 26
4291 30
4939 32
7139 37
9495 37
403 24
469 24
1422 10
3949 7
4355 32
5591 24
5999 24
8312 19
9483 12
404 39
1886 29
2522 39
2610 39
4293 39
7027 25
7281 28
8337 10
8801 28
405 0
2210 28
5447 0
7478 15
7841 4
8671 3
9219 0
406 14
685 17
4224 14
4287 3
7033 30
7960 30
8105 7
841 8
934 10
1029 0
3006 0
3323 38
7800 32
2535 27
5501 4
6177 3
6336 7
7301 14
8960 20
9952 21
409 3
2149 31
2976 6
4304 15
6416 42
8542 25
8548 18
8902 11
410 29
742 29
1830 32
2022 29
4343 20
7179 5
8743 42
411 25
1063 25
5385 5
6850 22
7661 25
7905 42
8366 4
8725 6
9675 6
412 36
1223 36
4987 19
5115 39
5177 30
5851 11
9778 24
413 39
983 15
1807 21
2200 39
3718 1
6744 12
8353 20
9100 14
414 30
1790 30
3928 22
4243 30
4634 22
4820 41
6347 9
7007 20
7732 13
415 41
3553 20
3847 4
8015 5
8982 42
9637 41
2414 24
2894 33
3712 33
4200 19
4352 8
8375 3
417 9
486 2
3330 23
4662 42
7138 35
8976 9
9933 9
418 7
728 35
2362 7
4267 7
5190 36
7898 1
9112 40
419 35
3146 35
6295 24
5747 39
8720 17
9066 39
9224 10
421 31
4178 31
4268 42
9213 4
422 13
4782 24
5457 31
8153 35
423 4
5659 41
6038 6
6100 20
8437 4
8903 35
9613 20
9719 26
424 3
516 41
917 22
995 35
4407 10
4796 3
5967 3
1335 35
1445 36
1964 14
6202 42
9142 0
9281 27
9649 11
9651 6
426 9
1096 9
2683 9
7156 15
7790 20
1711 9
3731 32
4720 32
8232 20
8591 20
428 6
3590 6
5113 6
6800 7
6999 23
9692 30
429 5
3926 5
5273 38
5765 7
6582 5
6653 5
8199 12
8557 18
9431 32
9777 39
430 14
6040 35
6331 9
8843 14
9345 10
431 9
947 3
2042 9
2551 9
2982 25
4802 20
8491 37
8661 29
9507 9
944 9
2519 22
433 5
1823 20
4737 5
5211 35
5500 34
7247 37
8547 20
434 42
2092 42
7902 42
9881 8
435 14
5654 35
5901 12
6675 14
6739 14
8766 35
436 28
1617 1
2261 35
9540 27
9781 11
437 14
2281 14
4762 35
5731 34
6269 38
6361 14
6674 33
6830 14
7740 12
438 17
3386 31
4892 17
6747 17
7514 9
8662 16
9523 16
9929 35
5498 35
6532 20
7076 33
7491 39
8486 4
440 3
1380 42
5395 9
6051 3
6794 3
9199 9
441 20
1618 20
2812 27
4152 20
4595 24
5047 32
7719 31
8772 20
442 24
1370 9
5757 23
5847 35
8646 18
9098 24
9760 24
443 5
1304 5
4927 24
5271 11
6213 5
7849 5
8440 4
444 38
5163 39
5652 20
7029 38
8041 9
9346 5
445 16
2509 31
4332 26
6516 7
7329 16
8286 16
9892 17
446 11
652 11
2324 0
2635 6
4449 11
6697 11
7214 36
9077 4
447 11
739 12
1262 9
3450 1
3793 20
3873 3
7088 11
9621 11
448 4
1286 4
2582 18
3923 4
6730 1
7710 15
8487 8
1460 5
2396 36
4337 34
5764 3
6391 42
450 38
2821 8
7791 38
8586 38
8741 4
9283 19
451 29
4259 14
8330 29
8680 14
452 0
3288 37
3568 1
4657 0
6383 0
6718 37
1800 20
3373 9
3812 3
5004 29
5256 2
6981 19
8592 3
9446 5
454 18
3496 18
4857 0
8522 18
8906 0
9408 21
455 35
2105 17
2558 35
5543 35
5903 37
7349 13
456 11
3776 11
5261 6
5451 28
6098 4
457 16
2383 11
5793 16
7171 11
8773 12
9618 16
9680 6
9732 1
2762 39
3313 8
4783 14
7324 18
7638 8
459 10
542 10
3471 10
4732 39
7310 1
9723 3
460 26
523 10
842 26
2237 14
5306 2
7248 5
7558 5
5402 15
6775 41
8601 23
9295 1
462 18
3740 18
3778 14
5551 21
9280 25
1642 3
7220 35
8321 42
669 42
4611 16
6335 23
7701 9
9200 4
3275 13
8738 16
9484 16
466 20
534 3
2192 35
5283 6
5662 39
5850 20
7112 20
8428 35
467 17
950 6
2098 17
2643 3
7201 1
9803 20
468 42
3791 18
4111 33
5639 39
6309 32
7884 2
8297 35
9465 42
2559 24
4102 24
6955 35
9410 15
470 14
2557 17
2958 14
2967 26
7150 17
7823 26
7838 35
6495 22
9085 9
9569 39
9599 6
9883 36
472 21
1797 21
3107 21
3644 9
9333 21
9802 4
1164 21
4850 21
5924 39
7384 25
7830 9
474 13
3152 9
5296 32
5617 13
6438 25
7815 33
7977 28
475 23
1812 20
2025 23
5634 22
6254 23
7313 42
8888 4
3423 34
7676 0
8197 9
477 16
920 16
2998 5
3707 9
4859 16
4967 36
6374 32
478 35
2820 10
4409 37
7126 35
8425 27
9552 10
479 13
3645 13
3975 37
4779 13
8005 13
8659 1
9966 6
9981 1
480 6
1091 2
2085 33
2251 37
3578 6
6241 22
6813 42
7453 6
9977 8
481 31
4834 14
5186 3
8502 25
8817 20
9875 5
482 6
3222 6
4995 10
9906 0
483 31
987 31
2819 6
484 37
4952 19
7299 37
7341 28
7408 8
9997 20
485 35
3194 0
5692 20
5719 13
6559 35
6596 35
9260 0
1346 2
1908 2
3098 17
7168 20
7440 35
7862 10
8912 24
9699 2
487 15
737 11
853 22
3637 6
4207 15
4705 15
6369 15
9058 21
9917 33
923 41
1568 28
2024 21
3327 2
4496 20
7228 35
9027 4
489 24
1639 8
2176 0
5030 24
8115 24
8356 9
490 24
1001 12
2785 31
7997 23
8666 16
9123 26
9628 14
491 42
1874 33
2700 0
3139 39
4425 42
6113 10
2295 4
4390 4
8298 20
493 15
5150 15
7593 36
9161 15
9166 35
9178 13
680 0
716 32
1737 2
1968 12
2056 0
3514 12
6328 0
7151 20
495 11
4250 11
4630 13
5958 34
5994 39
496 23
701 3
4664 32
4686 5
7262 4
7495 22
8030 39
9375 23
497 12
2156 12
3859 16
4983 22
6913 12
8391 26
8921 12
9078 23
9889 41
1849 26
4999 14
6804 3
7683 4
7692 20
499 12
5418 28
8148 20
8780 12
8922 42
9370 22
2609 36
8570 32
8797 8
9688 35
9730 35
501 3
4239 16
5787 23
7295 20
8114 33
8156 10
9452 1
9586 19
502 12
2406 12
3224 20
4568 12
5362 12
6561 21
8736 19
8967 12
9676 23
503 3
5795 3
5877 16
8179 10
8196 14
9010 15
1259 10
6829 28
7763 25
9041 20
9616 9
9728 29
505 9
1582 31
3545 42
7513 9
8537 39
3352 25
7371 25
7477 20
9796 13
9891 23
507 29
1189 26
1454 18
1757 29
2180 2
3651 10
4635 22
8512 9
8998 14
508 35
2323 9
4211 12
9091 3
9122 2
509 12
1878 24
6280 12
6861 0
7944 21
8175 19
8362 22
8480 4
9697 37
510 1
3121 42
9064 1
511 9
1228 36
1343 9
3699 21
5576 29
6791 32
7761 9
8657 42
9018 4
512 33
4728 10
6758 12
7206 33
7448 38
8225 39
8946 6
9132 34
513 36
1635 19
3319 33
4060 0
6223 36
7154 35
8355 6
514 29
1767 29
6303 33
7348 28
8915 24
515 11
2586 11
6869 0
8029 24
8039 0
8467 11
9844 37
1130 41
7395 41
7820 11
8095 35
1212 11
1550 35
2348 20
2712 7
4283 4
9931 24
518 11
1076 21
1280 41
2457 11
4019 34
6609 30
7346 11
8937 41
9792 9
9986 17
519 0
1965 0
2953 4
3511 0
6989 9
520 16
1997 0
2680 16
2871 20
6686 12
6940 22
7851 24
8273 18
2060 2
3805 12
5568 2
6058 27
7989 0
8478 4
522 8
569 1
3876 5
4459 4
5079 8
7928 39
8517 15
8575 27
2188 36
4919 10
6078 10
6212 10
7529 36
5106 28
5755 21
6173 12
7571 33
8249 26
8643 39
525 28
905 8
4569 37
4763 17
7080 28
7895 35
526 20
1052 3
3658 39
5761 5
1549 1
3244 33
3884 3
4691 33
5370 39
7987 14
4748 17
6235 31
6239 30
6703 20
7688 1
7689 1
8530 19
529 33
2944 33
6015 16
7562 14
7599 37
8670 13
530 11
1443 11
3495 11
3760 11
4154 38
8571 22
8842 20
9442 5
531 15
4240 15
7023 4
9292 26
532 39
1974 28
7538 6
7929 27
7939 24
7955 38
3897 12
6054 14
7483 35
9090 37
1703 3
4262 18
5456 27
7650 3
8471 22
8623 23
9524 33
535 10
1205 32
1905 14
5160 10
8831 9
536 21
1143 3
1281 21
6763 21
8959 39
537 24
3641 4
4118 24
4587 9
8084 24
538 3
977 24
4833 37
4839 1
9831 24
539 14
1798 14
3459 18
5895 33
6517 14
7089 40
7817 16
8427 14
8475 11
540 42
1138 42
3851 37
5323 4
6898 23
6977 38
7735 11
8408 33
9641 42
541 19
1242 19
2436 22
3746 15
4455 12
5044 19
5121 12
5723 17
6506 8
6693 37
7947 23
9284 11
543 19
1418 19
3236 38
3407 23
3618 25
4661 0
6091 12
6207 16
544 31
1860 11
2358 31
3361 13
3814 21
7107 17
7501 42
8520 7
545 3
5263 0
6063 35
6606 3
7049 8
8450 2
8715 20
546 8
1777 8
7976 8
9662 11
547 4
1234 4
3927 31
4057 2
5529 35
5678 41
8647 10
9804 32
1348 33
3018 11
8180 15
549 0
2158 20
3468 7
3726 0
4697 24
8781 22
9508 25
2809 16
4598 9
4677 10
5983 3
8641 22
9158 0
9423 8
551 13
1427 13
1537 12
4101 39
7382 13
7442 20
8463 5
552 5
2913 29
5791 9
5844 20
5900 9
6610 3
6720 27
7795 5
553 42
824 33
2402 6
5320 22
8350 42
8515 19
8674 35
8718 32
554 34
1110 34
1134 22
5986 34
6003 22
6215 18
7681 9
555 10
2564 15
6323 39
556 5
2400 10
3530 33
4535 17
6205 10
6870 26
7621 13
8876 34
557 36
1469 7
3234 36
3465 22
5464 36
9024 29
1003 36
3685 12
4971 10
6049 20
9581 20
9884 4
559 35
972 37
1069 20
2423 41
649 3
943 33
969 18
7094 9
8020 10
8253 3
8669 10
561 11
1308 20
2284 1
2902 11
562 22
1085 11
1181 18
4045 14
4577 22
4896 35
6864 11
8127 39
4772 31
5497 9
6012 31
7717 18
564 9
2471 10
3015 6
4114 9
4257 3
5944 20
6145 21
6899 9
8775 13
4346 3
6556 12
6681 1
7129 4
8008 42
9048 9
566 5
1030 3
1156 6
1900 5
6972 9
7754 5
8470 5
9255 20
567 33
2155 31
3715 36
6092 39
8761 33
2980 0
3539 12
5421 8
8314 24
9358 33
9912 12
5081 1
6013 26
6576 4
8707 42
1606 13
6660 40
6715 33
9029 32
9216 3
9460 31
571 33
2086 25
2168 39
3534 11
3546 12
6388 33
8561 33
9606 31
9748 18
572 26
3742 26
3877 37
4912 20
6194 10
8500 20
573 19
5927 20
6478 19
7626 19
8073 11
574 33
3762 2
5331 27
6949 5
9103 33
575 21
2309 31
3217 21
3573 3
3892 5
6172 21
8299 20
8338 21
8406 8
9846 1
576 15
1174 15
4391 27
6431 4
9039 25
9587 9
577 35
1515 35
4401 26
4745 22
6273 35
7648 11
7876 12
578 35
4303 8
5159 3
7246 8
8336 28
9131 3
579 31
2978 22
6482 17
7485 5
8322 38
8528 31
580 21
2873 21
2963 21
5980 30
581 7
651 7
6594 42
6749 9
8585 5
9257 37
9644 13
9695 18
758 10
781 29
2356 10
5669 10
5716 0
6060 10
8209 8
583 6
4429 38
5226 6
6429 31
7718 41
8388 19
584 10
3008 10
8677 10
9625 32
585 4
1291 37
5446 9
6392 7
6534 11
9413 4
586 42
588 14
1125 23
2087 8
3246 42
6340 9
8972 11
587 22
3089 34
3605 28
4013 22
5825 20
8010 35
9095 3
886 4
2951 14
5326 11
6642 14
7072 10
9512 5
589 2
785 12
5317 29
8343 20
590 1
5644 14
6249 1
7326 12
7752 1
8462 39
8719 32
591 22
602 22
985 7
3028 39
7894 12
592 35
3271 3
7702 40
8269 23
9660 28
593 6
816 6
6980 39
9806 39
9888 3
594 20
5660 13
6035 39
6676 20
595 31
4372 29
4646 39
6057 31
6279 42
7407 31
9647 5
596 26
2999 4
3448 2
4087 26
6084 26
6471 20
597 31
3687 31
3826 31
6973 31
7588 24
8598 42
598 35
2381 35
3211 26
599 19
3887 18
7617 31
8047 19
8233 4
8691 20
1193 24
3636 39
9254 35
601 12
5376 1
5823 41
6281 35
9575 41
3878 20
5696 34
603 17
900 32
2606 17
2647 17
3389 9
3830 39
8654 17
604 11
4040 20
4191 11
6259 39
605 23
1794 23
3210 5
4174 18
4573 23
9614 23
813 0
2497 5
607 35
3118 35
5520 33
7217 2
7616 3
7827 34
8852 34
4557 16
5420 6
5491 2
6691 25
7559 12
8576 29
609 25
1493 24
3891 39
7066 37
7127 25
7199 17
8414 25
610 12
799 10
2668 9
7191 12
8499 41
8835 12
611 37
1559 3
3522 37
4545 11
8335 37
612 31
1775 36
1791 31
2492 37
7596 13
613 6
1687 39
1808 33
2045 6
3855 6
6895 25
614 28
939 28
4398 16
5561 28
7184 3
8166 20
615 37
3164 37
3559 9
6865 35
7302 20
5631 36
5677 32
6136 5
7520 32
9854 42
617 40
2932 13
3379 3
6460 17
7422 39
7988 12
618 32
3087 13
7764 32
9217 32
4400 6
5145 6
7600 37
8814 20
3138 13
6630 32
7055 0
9828 9
953 20
2570 25
3365 23
5066 36
6990 10
7850 11
622 17
895 33
5332 17
6389 35
6457 39
7428 0
9664 35
623 5
1554 12
3485 27
4462 38
4560 22
5572 14
6629 9
9392 8
9848 4
624 5
1462 34
6010 22
6982 11
8534 42
9151 9
9328 10
9531 24
625 8
1265 8
1491 0
4006 9
7916 10
8838 3
626 24
2842 12
3938 24
6164 24
9185 24
627 28
2154 28
2268 28
5127 3
6546 25
628 18
2349 37
4738 12
5939 32
6456 18
629 37
5345 37
6767 6
7014 42
8195 21
8419 7
8871 0
9349 37
630 12
1664 29
2088 5
3357 12
5031 12
6181 20
8227 9
8340 12
631 35
2721 5
4668 35
5752 6
9766 19
632 34
663 42
3664 34
4427 13
8507 35
633 10
1071 10
2035 27
4266 10
5724 22
7200 41
8012 10
634 6
1137 6
6025 6
635 30
5733 30
6717 39
7807 8
8065 10
8897 30
9762 31
636 24
686 24
2585 34
5567 24
6039 3
7994 34
6833 19
7871 41
638 28
4049 28
4071 15
7232 31
8077 16
639 40
1667 40
3713 42
6095 20
7124 7
640 12
2250 37
5213 9
6454 19
6785 25
641 7
2303 7
5555 7
9315 35
9740 20
642 10
1629 7
2013 35
2102 8
6588 42
6702 18
6708 10
6737 35
8459 17
643 34
5727 10
7809 26
8684 5
8913 34
644 22
726 22
5874 5
6608 6
8326 23
9593 2
645 8
5437 8
5517 3
5932 29
7025 9
7592 16
646 6
1846 40
1940 6
2490 20
2870 17
4619 20
6276 6
8143 5
8497 3
2957 6
7506 33
8164 32
9022 17
648 21
1049 5
4456 12
5550 40
5749 30
5896 26
4033 20
4591 18
4814 3
8538 3
8753 6
650 26
2840 8
6045 26
6120 10
6859 26
8626 3
1165 39
2930 30
4431 4
9982 7
1742 32
4218 31
7974 6
8746 20
653 3
1079 3
1302 39
2940 3
8693 35
654 25
1594 25
2527 25
7148 25
655 3
1671 3
3091 27
3999 23
5086 16
656 12
1986 12
4937 13
5259 25
7972 12
8687 35
657 17
1963 35
2655 17
6255 35
6266 9
5181 6
6511 0
9609 18
659 12
1128 12
4238 12
5240 23
8901 42
660 28
855 28
2827 17
3997 28
4699 12
5379 16
9105 3
9500 28
661 9
898 9
3913 3
4888 3
5012 9
6179 4
6425 34
6566 24
7750 16
662 32
4193 0
4799 32
7374 12
7980 35
8184 14
4422 4
5829 8
9592 32
664 20
986 20
2127 24
3984 20
4137 19
4448 12
6661 8
665 7
1046 7
3043 9
3155 7
6522 12
667 36
2799 36
5131 41
5532 9
668 38
3392 0
4090 40
4330 37
5363 20
6907 8
9633 24
1005 42
5171 42
6304 24
670 3
1904 26
7727 10
8451 33
4002 33
4580 14
7808 0
9149 14
9643 14
672 19
1045 19
2955 21
3110 19
8409 19
8961 39
9302 35
673 10
2488 10
3493 18
4777 10
6634 12
7293 10
8866 29
9399 26
780 39
2881 17
3804 20
9481 14
675 20
1322 11
3024 20
3255 3
3261 20
9975 35
1198 12
1901 12
2572 20
7910 14
677 13
2361 13
3228 13
3899 23
9936 15
678 30
5718 39
8080 4
8170 28
9444 10
679 5
5963 31
6447 5
7901 3
8283 20
1227 42
2411 3
4126 39
4534 20
6560 32
9190 0
1734 14
2118 40
5194 15
7423 0
8483 2
682 8
705 19
5559 4
8060 10
8099 8
8544 8
683 20
2779 31
6953 20
6966 40
7347 20
8117 20
684 31
3231 31
8246 39
8854 17
2615 6
3555 17
4406 25
4445 17
7840 17
7986 31
8174 34
3235 20
3603 24
6645 23
8645 9
9517 3
9518 11
687 31
1261 31
3123 31
5251 1
6820 16
7990 42
688 33
2359 33
3416 33
4831 0
6147 32
8255 32
689 4
6577 4
7810 20
9016 11
9428 1
690 8
1323 8
5237 11
691 18
7104 18
692 12
811 12
1739 12
2160 30
2942 12
3775 22
4365 20
5657 11
693 42
3297 42
6097 3
694 3
793 3
7067 17
695 35
3673 6
8986 37
4931 8
7204 28
7496 16
9530 4
697 18
878 18
5280 18
6824 34
698 24
767 24
8236 11
9996 6
699 15
1385 29
2029 15
5839 15
7786 16
9332 12
700 37
5188 26
6163 28
6268 9
6745 22
7897 37
9653 18
5200 37
7679 13
9855 5
702 3
5216 12
5580 36
5819 29
6007 3
6507 3
7230 9
7476 35
703 37
1480 37
2136 20
5588 37
704 17
1627 26
4084 17
5910 9
6397 4
6704 16
9520 8
3654 19
5075 19
5964 19
8800 12
9463 34
706 25
2807 25
6589 20
6801 4
7159 18
9135 35
9893 31
707 39
3796 22
3924 39
4786 39
7964 33
8021 3
708 26
2081 26
2109 31
2672 26
8816 6
709 20
5388 19
5592 25
6370 20
7749 16
710 36
2470 14
2811 15
5726 36
5985 36
6053 24
711 9
2837 9
4321 32
5744 12
6124 1
712 12
3267 12
4046 33
4810 12
5325 30
5619 8
7243 22
713 15
2422 15
3491 24
6848 7
8821 3
714 18
6252 35
8374 6
9153 19
9262 18
715 0
3414 14
8033 20
8701 8
8953 9
4682 32
5697 20
5748 20
8694 35
1185 33
6341 4
7003 17
9841 4
718 25
1926 25
3154 0
4341 37
6802 38
8726 25
719 17
2775 12
5074 32
5328 37
7421 4
9319 10
720 28
835 28
5425 0
6963 8
721 11
1475 11
2685 3
4544 11
5638 33
5824 11
8587 10
9624 23
4367 22
4394 17
723 12
5870 37
7471 37
8049 5
8815 32
9298 8
724 3
2577 42
5802 20
5852 3
5871 35
8360 5
9079 3
725 3
3520 7
3771 39
5342 16
5688 3
6228 42
7175 4
1188 25
4653 26
6430 20
7889 7
8846 2
9245 22
9857 32
727 10
6349 18
9972 33
4144 8
5937 35
729 37
3888 26
5542 37
7229 35
8757 3
6733 23
6779 14
8082 4
731 13
805 9
2547 13
4895 13
6171 22
8840 13
1105 13
2190 31
3248 24
9040 3
9567 18
9909 6
733 20
1485 20
2100 20
4103 39
6994 20
9800 3
9964 5
2080 8
2664 9
4008 30
7704 16
9430 1
9744 34
735 24
5626 24
5914 33
6244 6
9083 19
784 11
1119 14
6496 11
738 20
5298 6
5797 12
7218 16
7255 20
2637 3
3515 12
3736 12
6971 12
740 26
3572 26
3831 11
5415 9
5474 22
6291 5
7411 35
8112 15
9608 4
6292 35
8036 29
8045 29
9825 20
6192 37
6441 21
9173 31
744 33
3338 9
7153 24
7622 32
8072 30
8722 3
9118 33
745 31
1518 6
5168 21
6272 31
8434 8
746 4
2487 15
3057 23
5835 8
8945 29
4131 42
4673 13
7672 12
8098 42
9696 23
9808 12
748 12
3919 12
5147 26
5560 12
6396 12
7212 10
7637 6
6649 8
750 2
2725 2
6765 2
9229 32
751 8
4208 12
6126 32
7069 8
9096 8
9209 25
9304 15
752 22
4358 22
7618 10
753 9
1300 5
8319 13
8438 4
9965 14
754 27
1885 12
2493 27
3266 32
4629 19
5675 27
8422 3
755 9
2709 9
5845 33
756 18
2563 18
4522 20
9242 20
757 15
2170 15
2207 15
3864 27
4340 29
6915 11
7133 20
7640 36
9324 19
4225 1
7927 33
8218 12
9164 38
759 21
3787 21
760 9
3950 12
5161 13
5837 1
7098 9
761 9
1486 9
1490 32
3114 9
3478 20
3980 21
8989 6
9988 20
762 12
1566 12
1624 12
3744 33
7643 5
763 12
1656 8
5248 39
7190 5
7327 20
8266 12
8900 1
764 4
4468 4
5223 4
6872 41
7090 36
9357 42
765 5
6900 5
8070 30
766 30
3541 2
3638 30
5024 10
6920 11
4475 24
4829 12
7105 24
8110 13
8382 18
768 28
3270 29
4692 35
7109 23
7406 8
9171 14
9882 20
769 15
1659 10
2597 14
4452 20
6769 3
7242 26
7936 33
770 21
1753 19
3054 4
4210 12
6821 18
9555 21
771 8
3790 8
5650 13
6807 8
7556 8
5105 7
9535 23
9795 18
773 35
4021 4
6968 42
7498 30
8588 0
9009 17
774 19
1651 12
4319 0
6115 19
775 17
1199 17
7860 36
776 29
1619 29
6479 6
7047 22
8152 29
9856 21
777 14
3111 35
6119 14
6519 6
8133 42
778 5
4925 5
8564 5
9900 5
2115 6
2304 38
2305 8
3428 39
3698 17
6366 17
9956 10
1513 16
2906 35
5880 39
6526 39
4735 29
7134 9
8239 17
9970 0
782 3
815 10
1935 9
5227 31
783 21
1053 21
3818 35
6277 36
6459 2
8819 10
4384 12
7965 4
8864 23
8954 13
786 3
897 3
3570 3
5234 28
6121 7
787 8
5045 42
6486 10
7182 8
7378 32
9393 37
9767 35
788 5
1218 5
3397 18
3615 5
3992 5
5943 5
6932 20
7399 20
789 41
1268 9
1470 30
3011 41
3564 41
4571 3
9146 31
9355 3
4215 2
6062 10
791 10
4511 10
6933 10
7450 0
9223 33
2651 3
6299 34
9240 27
7649 1
8582 3
1317 23
7813 9
795 22
2567 22
2808 22
5618 35
8002 35
9438 14
796 39
2184 19
3745 37
797 9
3815 9
6575 20
6788 9
1162 16
1814 10
3994 29
5382 21
7675 35
9754 20
800 23
2939 7
7546 10
8241 5
9985 5
801 22
966 12
2143 21
2997 22
4143 9
5454 22
8696 29
802 29
2372 16
4392 29
6476 5
8514 20
8620 35
803 39
1514 39
2259 32
4988 39
5988 8
7798 21
8997 30
9106 0
804 1
2082 7
3058 26
4773 1
6077 1
6219 4
7306 21
4091 0
8493 9
806 20
4631 20
6332 20
8188 14
807 20
3930 22
8189 10
9603 20
808 36
1910 36
6667 12
809 33
6924 33
9310 4
3446 1
6134 0
8455 35
2810 42
3351 10
4687 14
5026 12
812 8
5628 8
8683 8
9923 0
3040 0
9471 28
814 20
2320 39
3540 20
4714 21
4264 10
6246 10
7713 11
7814 10
1434 35
1449 39
3350 9
4933 17
5276 38
6525 13
6995 33
817 4
2962 4
4371 4
4996 4
7350 22
8429 14
818 38
4325 32
6756 38
7370 21
4327 3
8942 0
820 11
1528 11
6363 11
2194 23
7938 2
8796 20
822 39
3346 31
7696 39
823 35
3528 35
4567 5
6052 32
6828 32
3260 33
5020 1
7131 14
7950 19
825 42
952 42
4354 6
6726 17
826 14
4840 14
5971 2
6706 14
7843 8
827 3
2318 3
4656 23
4903 15
5144 3
8811 9
828 24
2486 24
6657 24
6951 12
829 11
1709 12
2587 11
6320 11
6925 18
9477 20
830 14
2920 29
4811 12
4908 35
6386 14
8223 39
831 18
8181 18
8827 18
832 9
1872 31
2392 9
3173 9
7802 9
833 5
3905 5
3966 23
6647 5
834 22
2084 24
2875 13
6618 22
6882 42
3507 32
4600 25
5055 28
7575 23
9514 11
836 14
1691 14
5318 35
6844 10
837 35
3870 11
4675 29
6466 35
838 24
3136 31
4393 24
6725 32
7613 42
839 7
3402 7
6520 21
7208 30
8307 7
9721 7
840 20
1048 18
1903 22
4272 20
4733 12
4851 20
6624 6
3072 20
4322 0
5100 17
6918 8
7961 26
1546 26
1854 26
6079 28
6538 13
6636 0
8417 33
9716 12
843 15
6138 15
7268 17
844 33
4915 33
8551 37
845 8
2151 39
5375 8
5014 18
9776 4
847 16
1081 28
3078 16
7071 14
848 22
1148 22
7635 41
7951 28
849 39
4074 39
4722 39
6385 11
9141 13
850 2
3032 11
3052 16
851 12
1044 12
2071 12
3739 12
4198 3
4923 20
852 21
1850 1
6043 11
1892 22
5264 9
7296 10
7736 11
854 20
1338 20
3237 42
3552 16
3816 25
871 28
2656 18
2959 28
7933 35
856 19
2181 19
9538 35
857 40
2850 5
4768 29
5973 40
6917 20
7432 24
7655 9
8566 35
8830 40
858 21
3321 21
9036 3
859 38
2161 34
2861 11
5462 35
7426 24
8650 32
860 37
2355 3
2991 34
6894 10
7197 42
861 32
1759 9
2649 27
3594 6
8397 3
862 26
1990 26
9367 32
9498 21
3256 42
4317 20
6302 34
8139 27
9133 20
864 41
4689 41
6069 23
865 28
1253 35
1732 28
5807 28
8861 3
3849 37
4403 29
5313 4
6424 27
867 28
4526 36
5622 28
9073 35
868 32
2444 32
4894 11
7226 41
3203 42
870 12
5494 17
6852 28
9318 31
3412 7
6420 28
8160 42
8327 36
2157 39
4602 20
5656 9
9278 42
3557 11
5184 0
874 12
3806 31
3910 20
4541 31
7046 20
9084 2
1428 26
3704 33
4676 26
876 3
3783 3
4849 6
6162 3
1144 26
7842 26
7585 1
879 29
1311 29
2239 29
2714 29
3650 9
3965 29
6723 42
7325 20
8966 42
880 42
1123 20
1567 32
6368 10
6724 42
6976 33
7057 42
4221 25
6355 8
9080 27
9537 8
882 0
3575 0
6029 3
7215 10
7393 7
8597 9
9127 37
883 12
1539 14
2243 12
3521 40
4411 9
884 11
6822 21
1572 22
5811 35
9700 35
1728 9
2908 4
6502 4
2216 18
7314 31
9817 21
2545 18
3430 3
7925 35
8712 29
8862 35
889 39
2219 39
2538 39
3188 32
7334 35
8704 16
8742 22
3611 6
5630 5
891 39
1793 7
3795 39
4364 39
5102 42
8877 37
892 9
5452 0
6064 9
7277 35
8938 9
893 3
3799 38
6797 3
8177 0
894 20
2727 20
7651 20
7911 37
8919 20
1867 40
5309 33
896 13
5087 13
6491 0
8074 3
8909 13
9052 23
924 3
3349 3
3819 3
5419 2
7358 36
7662 10
5750 9
5774 26
6451 13
8401 28
899 2
4442 3
5322 37
5360 2
5481 8
2076 15
2489 32
5032 15
5378 32
7521 21
9957 5
1229 28
2290 42
4233 9
8295 3
1451 20
6988 12
903 14
2505 14
3115 42
5859 32
8675 10
904 29
1241 6
1747 11
2992 35
3889 30
5725 11
906 21
1337 28
6158 18
9932 21
907 15
4506 18
4612 15
5695 15
5760 24
9060 11
1416 12
3734 14
1074 12
9715 24
9890 8
4399 26
7708 12
911 21
1923 21
6087 9
912 13
3289 39
3766 1
5872 17
6360 14
913 3
914 20
5207 0
6403 34
9605 8
1235 32
2373 24
3909 9
5894 37
9019 20
916 42
4282 42
4901 2
5746 1
5864 7
8193 0
5176 32
8042 5
8768 0
918 37
1249 26
1887 31
2041 0
3865 37
919 12
5380 12
7439 25
3215 22
4955 16
6523 13
921 31
5239 31
6285 31
6694 20
7770 31
8009 18
8947 20
9234 32
922 17
2091 1
2884 2
7747 10
2021 27
3081 41
4655 41
1092 37
5304 13
9237 20
925 42
4845 14
6165 20
6488 42
8733 7
926 32
1631 35
5005 26
6659 2
9602 3
3075 4
3197 35
3988 35
6641 39
7177 22
928 24
1391 24
4413 34
929 4
2049 4
2845 4
4654 12
930 4
1075 4
4702 4
931 27
1893 32
7639 33
9525 39
932 10
1270 10
1982 10
3840 13
7461 14
8990 3
9056 8
9071 10
933 11
1453 26
4848 11
9325 11
9858 9
3549 31
4433 6
5521 10
7225 28
8869 24
935 38
4531 10
8724 1
936 32
2795 35
5406 36
6881 32
9108 6
937 9
2165 21
2468 9
3391 31
5817 9
938 3
1522 3
2994 0
3449 3
3779 17
6650 21
8210 28
8465 14
940 33
7706 33
8535 20
1966 9
3341 9
7364 23
7777 27
9594 14
9946 6
942 39
6175 20
7065 3
7859 10
8050 39
8532 0
1778 27
3798 33
3948 20
3958 42
6562 2
7899 13
2623 21
3665 9
7330 23
945 20
2856 13
7016 20
7144 20
9046 13
9222 12
1551 12
5641 12
1961 36
948 14
1111 42
4281 1
5589 23
8292 4
949 5
8217 5
1058 34
2896 16
3607 6
7528 20
1419 29
2014 37
8770 10
9720 27
4012 9
7687 42
8248 20
9674 17
1857 1
4223 22
4518 0
5423 2
954 24
1132 1
2040 11
3094 24
7125 20
2023 24
6253 15
7670 33
6666 12
957 38
7517 35
9780 5
958 39
4147 6
6305 36
8308 30
8899 4
959 39
5780 9
6581 39
8895 27
960 9
1579 9
4601 25
7394 4
961 20
1809 10
5842 20
6998 13
7602 20
962 22
7915 36
7956 0
2262 11
2931 30
3619 2
8727 16
964 42
2027 42
2500 4
5391 31
965 42
6599 42
2353 14
3063 35
3436 12
3610 5
4747 23
967 42
1748 10
2382 34
2508 23
7416 12
8320 35
9014 20
9188 42
968 30
3986 36
5577 38
7479 3
8524 37
6450 38
3935 24
5922 19
7118 0
5389 14
9813 10
973 14
7087 6
974 39
4026 19
5781 39
6283 39
6555 35
975 37
3753 20
4000 12
4632 3
7303 37
8407 17
5135 20
6289 42
7121 15
8695 41
978 20
2855 20
4324 12
8867 20
979 1
4022 14
5249 18
7751 1
8263 42
980 6
6353 6
9433 16
981 23
1177 14
4106 23
6884 23
7111 31
9020 20
9983 36
4315 20
4832 3
7315 35
7779 37
1459 15
2916 15
3517 29
984 11
5613 14
5846 11
2895 7
4149 7
9487 1
6962 21
7908 20
9619 41
6604 3
6741 8
8562 31
988 7
4335 39
5082 7
5597 7
7356 14
7511 12
989 16
1928 42
4579 5
8301 16
990 26
4821 42
6684 26
991 39
3353 15
4344 0
5292 39
7819 3
8735 32
992 1
1095 1
1179 39
5438 35
993 39
3968 27
4260 39
7283 42
1208 32
2598 35
996 20
7885 20
997 37
7772 8
998 28
1599 28
5128 28
5931 22
7831 14
8713 28
1257 20
1000 17
1273 20
3337 26
4530 21
5085 17
5663 16
2952 26
4030 18
1002 2
6465 0
6688 2
7132 36
1004 28
4500 21
6585 20
4563 12
7093 12
7335 35
7658 12
8663 5
9491 20
1006 7
1826 0
4048 7
4910 37
4993 7
6943 23
8040 35
1007 33
3356 23
5022 9
6155 27
6721 27
8403 8
1008 9
3320 9
5204 7
9847 17
1009 8
1010 20
3410 20
6123 20
9074 14
9186 40
1012 11
3845 13
4334 9
4711 35
7730 10
8140 4
1014 3
2689 12
3566 3
8277 31
1015 29
1916 6
4992 35
5034 31
6633 29
1016 34
2275 25
2889 16
4388 34
5536 34
9145 3
9447 29
1017 9
1873 9
4974 12
7628 28
8137 17
1018 11
6710 11
1210 22
9388 3
3817 11
4389 19
8315 5
2838 40
5620 25
1022 26
4507 21
5040 21
6263 20
8963 26
1023 26
6083 26
2753 16
1025 11
8556 20
9937 11
1026 34
3421 3
1027 31
9075 1
1028 19
2202 28
2435 39
3714 19
4100 5
8410 3
9785 20
2860 10
3300 18
7984 28
1299 12
2366 3
5916 42
7198 3
1093 10
4132 1
4790 13
1032 3
3281 20
4516 1
4781 3
5609 9
7275 11
1033 12
1819 19
4636 12
4760 12
1034 26
3223 10
4242 26
8824 14
9789 29
1035 17
1501 16
2425 17
3682 1
4011 1
5693 14
5705 17
1036 0
2800 7
2909 0
8106 0
1037 42
1133 30
4788 42
1038 16
1371 16
1039 2
1444 0
3689 22
8993 2
9138 4
1040 3
7586 13
9584 0
1041 37
1509 37
1839 1
3284 12
2988 31
7142 37
1043 31
2636 22
3278 20
5566 16
5666 5
6648 31
2124 10
2387 33
4766 17
2255 26
2456 19
4247 19
5038 31
6434 0
6628 6
3208 39
3413 7
5228 4
1047 6
1604 17
8138 6
8873 42
4075 18
5794 28
7317 20
8606 18
4312 5
5499 5
6595 5
6939 35
3247 29
4377 4
6267 36
7863 10
1051 23
5885 3
7967 36
8155 28
7758 21
9559 25
1054 0
4314 28
4854 23
6094 0
7570 12
4180 6
1056 3
4039 3
7185 8
7455 3
8518 4
1057 18
6885 18
7328 23
3309 11
3536 34
5399 4
6812 34
6197 10
7288 20
1060 42
2677 24
3871 42
4640 13
1061 4
4148 4
6521 34
1062 15
6740 37
1467 0
2543 9
6635 30
6922 9
8090 35
2459 42
4426 11
7176 17
8389 0
1065 2
4906 13
1066 22
2648 32
3027 35
4042 22
1067 4
6987 20
9406 8
1068 17
2174 17
3942 1
4185 28
9678 17
1452 20
3396 20
1070 8
4844 8
5709 8
5738 4
5972 8
2618 14
1947 29
5285 29
1073 30
3803 33
3896 4
8698 0
2230 8
1077 9
1969 13
4153 9
5432 9
7864 19
1078 35
2943 10
3080 35
4566 35
7906 10
8100 34
1402 1
2759 12
1080 32
5346 32
5119 9
7300 20
3220 3
5311 15
5655 36
9104 42
1083 12
2312 2
4744 12
7660 8
9305 18
1084 35
3834 35
4450 35
6256 18
8013 12
8222 34
1086 8
3062 8
4069 42
4248 1
6395 12
7856 32
1087 39
1676 39
6484 28
8101 39
8651 29
1089 19
5006 2
1090 6
2075 6
4263 29
5984 2
3716 18
4092 0
5336 37
4079 10
4806 13
9753 8
1094 10
1608 34
3390 20
5154 10
6437 3
5443 1
5636 31
4044 9
5496 34
6975 3
7355 9
1097 10
1392 10
4085 24
5565 10
1098 31
1463 31
7030 14
7673 20
1099 2
1531 2
4229 4
7136 9
1100 2
1173 12
2711 2
3811 28
9636 8
1101 1
2434 1
5970 34
5875 23
1754 42
6473 4
6798 8
8529 39
8756 24
6262 22
7383 14
7419 4
3917 13
6442 13
6965 13
9731 20
2424 19
4517 24
1107 13
2272 13
4168 37
4469 31
5853 13
1108 37
1661 38
1870 15
7165 24
7180 6
1109 24
2899 24
3148 33
3405 20
5898 6
1746 23
4386 34
8653 3
4232 32
1112 3
9381 8
1353 33
4823 18
7405 6
7949 20
1114 17
1289 35
2443 17
3375 18
6221 15
8860 4
7402 20
1523 32
1117 42
3452 37
4625 11
5371 8
2503 24
5364 34
7284 34
2525 8
4027 14
1120 35
1352 20
6947 20
1121 1
1943 1
3506 32
6586 20
1122 29
1574 8
2346 29
6468 29
7466 42
4666 20
6310 14
6338 5
1124 10
1176 10
1609 21
4911 10
7463 1
8023 20
8904 33
3126 27
4164 39
6528 23
8231 33
8361 27
8943 23
9176 9
1126 35
4764 39
5095 35
7821 14
1127 16
1146 12
2120 34
3601 12
6216 12
1129 18
5821 20
6415 20
8898 18
9583 14
2134 41
2299 41
4750 24
6152 20
7873 20
4010 36
4582 42
4972 14
5203 18
5349 1
4893 30
1906 22
7748 20
8054 5
1135 4
1588 23
2476 4
1260 42
2803 11
4117 42
9293 5
1735 9
1955 18
5771 8
5828 25
6664 6
1555 33
3551 12
1139 0
6755 0
8245 23
1140 24
5333 24
6234 14
7096 32
9870 25
1141 14
1344 42
1142 22
6902 22
8270 5
1962 3
2578 29
5607 3
9352 30
2483 10
2631 22
9012 17
1145 20
1929 12
2196 20
4479 20
8043 9
2327 6
3202 20
7006 11
7258 12
7680 13
9451 16
3710 20
6734 6
6892 32
1517 22
4112 10
1149 28
3996 20
5448 28
6135 10
6961 42
1150 26
5537 4
6601 26
1151 9
1221 9
3678 22
3747 13
4437 9
4807 1
5120 28
5599 9
1882 24
2801 6
7010 8
4756 12
7205 35
8479 38
4430 29
6141 35
6217 18
9554 33
2269 26
3505 6
5788 6
9351 39
1157 14
3843 17
8813 15
1158 32
2345 11
2995 32
9591 6
1159 34
2247 34
2347 34
5679 34
1160 34
1877 23
5783 2
5796 35
1161 12
6439 0
2739 16
6359 18
6810 32
8679 1
9167 12
9241 29
1163 28
2788 28
3010 28
4440 0
6404 21
7452 4
1541 33
8071 34
9669 39
1167 38
6406 38
1168 33
6143 20
7235 9
1169 15
1468 0
2562 42
6573 42
1170 0
1412 0
4828 25
5826 10
1171 5
1255 5
6545 1
6727 12
1824 16
3630 9
6286 5
3064 33
5936 32
6936 4
3906 28
6382 6
1175 12
7569 16
4554 24
6759 20
4368 14
5953 14
1178 14
3225 37
3780 8
1283 21
3125 31
4467 34
6243 40
1180 17
1685 31
2722 5
2936 32
1182 18
1934 28
4305 35
5758 18
3757 42
8051 31
1184 4
1712 21
7610 28
1306 29
7000 33
8633 31
9703 6
1473 27
6529 39
1187 35
8872 34
1455 17
2520 0
7816 32
4213 37
6122 12
8690 31
1190 0
4485 0
5107 26
5800 0
1191 37
3708 26
4520 37
5341 37
5759 37
1192 17
5483 36
5507 9
6716 32
2749 21
3212 11
1194 30
1948 30
4480 30
8145 34
1195 12
2825 12
7209 23
9394 26
1196 31
4417 29
6159 31
9110 39
1489 5
1979 1
5687 14
8282 24
4879 20
5019 12
6543 39
3672 17
5305 9
7026 9
1200 14
3033 26
5080 12
8149 17
8678 35
9886 24
2482 35
4276 34
8415 42
1203 42
8205 5
1204 5
1552 1
1977 5
3002 28
3378 23
4693 32
4861 39
6400 5
3862 32
1206 33
1868 33
5174 24
5919 23
7619 35
9067 19
1207 1
7515 1
4160 14
5627 18
1209 27
5455 27
1215 31
7167 37
7309 32
3318 17
5777 0
1768 11
4592 18
1213 33
2594 33
4096 33
4690 33
5836 42
1214 26
1856 31
1216 9
1613 9
2150 9
2413 17
3498 35
5146 30
1217 7
7031 7
7141 41
8142 16
8494 5
6110 5
6458 11
1805 13
2130 12
7611 38
2786 14
3567 15
4067 32
4608 32
4846 32
2421 36
2983 34
9573 0
4056 20
4929 3
7073 34
4478 9
5680 36
8652 27
8870 6
5118 4
1225 20
3161 12
5966 20
1226 26
5241 20
5602 34
5476 42
8264 14
8579 36
2142 29
4503 28
5902 28
1230 6
2818 20
7584 27
7822 18
1231 24
2007 18
3344 15
9344 24
9738 5
1232 30
1233 21
2910 8
5098 21
7250 5
4553 17
5706 4
7064 9
1341 37
6500 24
6615 42
6904 32
7526 32
1236 10
3198 10
4113 2
5063 10
6524 39
1237 31
5585 0
6746 31
7011 35
8053 23
1379 9
2122 42
3932 20
6692 23
6825 33
1239 10
3524 35
7084 23
1240 20
2231 17
9111 20
9380 3
3609 6
4603 16
1984 3
8413 28
1992 13
4107 12
1245 22
1498 35
2947 34
3071 22
4054 18
5088 6
1246 9
3051 28
1247 35
1592 35
9845 32
1248 34
6321 12
7874 6
9177 26
1250 29
1251 25
2445 25
6111 35
7746 29
1252 35
1298 35
6842 24
6836 3
8868 35
3588 5
3679 32
1256 32
8035 22
3192 7
4110 20
4665 20
6133 8
1258 42
1483 1
2724 12
6770 3
2681 11
6498 7
8392 22
9274 4
3298 42
3608 14
7340 41
7547 16
3383 11
7196 39
2070 31
7788 23
5210 14
2523 15
3970 3
1267 25
5112 25
1610 34
5110 2
5482 9
1269 16
5246 16
2862 20
2984 10
3915 10
6024 12
8220 14
1271 20
1272 9
1284 36
2062 0
2675 9
4556 9
6031 34
6082 17
4351 27
1274 10
2491 10
4463 24
1275 6
2644 6
5665 2
8333 33
1276 35
1476 3
3001 35
4775 20
1277 12
3184 18
3750 10
6326 4
7034 12
1278 1
1875 1
1295 10
3911 3
5267 18
5463 20
2573 34
2642 33
5392 41
5715 40
4715 21
5722 21
6735 25
4605 4
4708 21
5957 33
7756 21
3263 5
9934 36
9987 30
1285 37
6105 6
1287 19
4688 19
1288 33
1325 22
6527 20
7101 33
1362 25
2386 32
4121 11
6381 5
3879 20
8558 14
1673 37
6950 37
1292 12
1843 12
8640 2
1293 35
5989 37
7780 35
8278 34
8474 8
8795 20
1294 14
2123 10
2619 23
3334 18
7848 20
1296 20
2549 38
3193 35
3802 20
4647 2
6591 41
3625 4
8968 41
1320 19
1413 20
1560 35
2079 20
2663 35
4876 35
2941 7
1701 5
2257 5
5091 42
8158 38
1301 14
1580 35
5449 35
9266 32
5067 24
1305 31
2252 3
5167 31
5546 29
1307 28
3544 28
6075 4
6701 1
6958 10
7459 13
3039 20
1309 20
1436 20
2395 3
2716 20
2796 10
4804 20
6367 25
1310 24
3227 4
4363 9
2665 29
3308 10
3657 29
6512 42
1312 14
2245 35
6169 15
8559 33
1313 23
2191 10
7932 31
1314 3
1408 1
2244 35
5897 3
1315 32
3292 1
3629 20
4609 25
5776 8
1316 33
4528 1
6247 5
7187 33
7945 20
2744 20
3477 11
3694 2
7654 6
8247 35
1318 29
3583 3
4487 29
1319 32
2094 32
2306 22
4130 9
4181 35
6128 32
8186 18
9270 19
3366 4
4404 17
4290 11
5187 37
5843 11
6408 4
3165 42
3604 31
7294 14
1324 2
5742 12
7473 8
5998 38
9726 18
1387 24
3602 42
4109 5
6536 23
2626 21
4205 23
6294 1
1328 33
7417 0
7789 14
9563 9
1329 12
7973 9
1330 8
2981 20
4120 33
8088 19
1331 26
5564 26
1332 33
7078 30
7456 23
7674 33
8026 20
1333 21
2898 21
3382 21
8539 22
8934 41
1334 17
2841 27
3591 39
9665 17
2581 35
6743 3
8929 17
1336 17
2621 13
4194 1
7043 17
5434 28
6174 12
6590 20
3177 5
3388 5
7671 5
2379 4
2964 42
3481 37
1896 16
4508 10
8122 16
1718 9
4043 18
4542 9
1488 42
2412 12
5132 8
6260 14
1345 20
5398 20
5475 20
6616 21
8644 39
1347 14
2732 14
8567 33
1349 12
3240 6
1350 23
5094 35
5525 23
6153 28
7164 21
8107 23
1351 20
3801 20
8192 0
2064 31
3963 41
5621 31
7245 31
7604 11
4921 33
1354 32
2388 34
3435 27
8923 12
1355 21
2018 21
2661 25
3503 4
2922 6
1357 14
1358 42
1684 42
9402 23
1359 21
2043 36
2580 21
8303 36
1360 12
3853 12
4457 17
6085 25
1361 27
2090 27
3119 27
5041 17
5221 25
8134 17
1363 32
3561 11
9125 9
1364 5
2887 39
6849 32
8820 25
8377 1
1366 28
2037 28
4443 3
5294 38
1367 7
3959 7
5307 7
5460 7
6068 15
1368 25
6563 11
6985 25
1369 35
5039 6
1702 39
5941 16
1372 24
3639 3
5089 24
8708 42
9642 0
1373 9
4410 9
1374 15
4583 31
2337 41
3431 15
3880 23
5584 8
5554 4
1377 24
3956 24
7598 24
1378 32
2628 5
3345 9
8503 37
2612 19
3978 42
1381 20
4133 18
4373 20
1382 5
1645 5
1855 5
3314 5
6446 5
6611 16
1383 33
3401 24
4539 37
5646 33
8777 5
1384 23
5996 23
8714 41
2575 29
3929 12
7256 5
1386 3
2501 3
8380 23
9228 23
2329 36
3135 7
4868 24
1388 35
1611 0
5598 39
6501 20
5484 0
5736 19
1390 9
8103 30
1595 9
1804 27
3380 18
3735 8
8441 14
1393 25
1751 25
3676 3
2774 0
7614 35
1564 11
3445 20
4981 37
5189 42
9515 39
1396 9
7035 33
8371 36
1844 37
4212 4
1399 8
6808 19
1400 3
3213 10
1401 25
2956 1
3045 35
4681 1
2660 29
3253 40
6817 13
1404 12
1512 15
4299 7
8126 11
8540 5
9032 12
1405 17
6669 17
1406 12
3627 24
1407 8
1441 27
1752 8
3563 1
7880 20
5334 20
5401 0
6427 21
9677 33
4488 31
6639 37
3922 21
6480 16
4575 1
5070 23
9092 0
1705 20
4808 11
4989 14
5288 13
3122 36
5881 22
7606 12
5841 11
6411 20
2969 12
5925 12
3856 5
4031 19
6131 35
9322 10
4424 29
1420 9
3438 9
4157 11
4382 15
9267 9
1765 9
2736 9
8603 14
2058 10
5208 7
1423 12
1821 12
1861 12
7120 14
1507 29
6782 37
1425 20
3097 20
7524 20
4086 13
4909 22
7825 12
4898 26
7362 42
7665 4
1429 35
4486 35
7222 35
1430 28
1558 28
6558 8
1431 3
1570 3
1895 26
6225 3
7567 20
1433 11
6903 12
2211 10
2474 37
3282 35
5353 35
6231 35
1435 10
2419 5
4001 20
5134 22
5906 6
1438 10
1944 3
6696 10
2002 30
3837 10
3893 37
9031 23
2589 14
2780 9
6983 12
5720 6
7373 22
8908 13
2125 0
4415 5
6190 37
1446 10
9150 10
1447 33
7013 6
1448 11
2197 11
4339 22
2215 4
2439 39
4318 39
6014 39
7633 0
1450 37
2367 16
4222 37
8198 26
2979 20
7116 20
7833 12
8699 11
2209 26
2814 17
4342 10
8347 26
4801 37
8988 17
1456 2
4093 28
4245 39
5008 10
1457 42
2341 4
2804 12
3066 42
3425 8
1458 8
3439 25
6632 9
7923 8
3613 15
5284 10
4679 25
1461 0
3535 0
3655 0
3990 23
4083 33
6005 11
7079 16
4576 0
1723 21
1464 20
1836 14
4122 18
4555 31
1465 35
5518 25
1466 20
5262 20
9362 34
3218 13
7560 27
7924 42
2169 0
2816 16
6081 20
2960 32
6453 7
5888 30
1471 39
3316 4
3737 6
3954 39
1472 18
2888 42
4546 35
4759 18
5212 18
6176 0
1474 3
1625 3
2768 3
6090 1
3697 14
2032 35
3092 2
6139 36
1756 22
2357 12
5435 25
9198 7
2473 32
6101 4
7143 1
1479 17
5049 23
5290 17
7659 42
1481 4
9201 36
2368 9
6199 18
6472 14
1484 19
4509 15
7070 19
3469 5
5799 5
1936 20
3035 10
5587 24
9572 19
4182 5
4278 5
6930 39
8702 5
2757 31
2673 9
4559 6
6275 18
1492 8
8230 3
1714 4
3616 20
6384 1
7445 24
4721 8
1495 35
2694 23
1496 6
2277 6
1497 18
3833 3
5199 33
1666 35
4928 38
8875 5
2026 10
9347 8
2333 16
2354 22
3302 22
8331 22
1503 13
7625 20
7886 35
9874 39
5770 24
1994 10
2066 22
1506 42
3936 35
7525 24
7387 10
5347 37
5166 3
2335 15
5523 20
6288 12
2248 18
3189 24
4235 35
4357 35
7361 33
1516 26
7259 31
3937 33
3404 6
1519 17
1520 23
3492 23
4809 19
5467 15
6001 9
7462 39
3150 14
4771 3
5801 32
6841 32
8681 32
1525 42
1939 38
3151 13
3294 11
5281 15
1529 2
5486 2
4610 1
7991 7
7785 37
9629 12
1533 41
3339 18
3377 41
1534 13
7522 20
7653 29
1535 38
6677 21
1864 35
2409 1
4940 23
3178 5
3312 22
5933 9
2667 31
4951 31
2679 23
4491 19
1540 9
6354 9
2867 33
6073 17
1542 21
4663 21
1543 26
2853 20
4671 26
4890 17
4997 26
3384 37
7041 31
1802 30
3797 11
7289 42
7699 7
2048 17
2852 33
3325 3
5934 9
3931 15
6784 20
2704 12
4336 9
8141 20
2222 1
6356 10
7854 35
9323 35
1553 8
6112 42
2408 1
8161 4
8823 20
8894 40
1556 39
2697 3
3866 0
1557 3
4936 39
9025 20
3230 6
1597 7
2693 7
3979 3
5206 3
7170 34
1561 13
5330 35
5573 13
1562 35
5083 20
5575 17
5756 38
4623 8
2923 3
3868 32
6621 27
3411 32
4104 17
4873 13
5653 20
6853 32
6866 10
5976 25
6493 3
6868 3
1571 27
1815 24
2866 3
7331 27
1788 22
2225 9
6290 40
7516 9
1633 3
7697 42
1575 19
3306 6
1576 20
2805 20
3257 9
5605 20
1577 39
2718 31
2763 39
5274 17
7099 9
9710 33
1578 10
6945 10
2205 14
9162 20
9427 39
4757 35
6006 22
1591 31
6550 29
8412 33
1584 20
7044 5
4464 0
4484 3
5058 19
1586 39
8848 1
2481 27
5968 25
4770 32
5151 21
1590 18
6449 9
3238 30
1593 11
4125 38
9256 32
7123 3
9160 42
7488 9
8793 7
1596 6
1640 8
5940 5
8017 20
4816 7
8296 37
9337 13
1598 28
2234 28
8024 26
2117 14
1600 41
1601 37
2530 35
7122 35
1602 32
1603 5
6282 1
2506 6
5849 9
8402 12
5647 14
3585 20
8208 35
3399 15
8709 34
7019 12
1780 34
4669 4
1612 39
1717 27
5739 8
7935 42
1628 24
3562 18
6934 6
1614 26
3112 3
4886 31
7381 22
7482 13
8329 14
9336 28
9953 39
2829 0
1620 24
4641 4
5856 22
5962 24
9126 35
3167 19
3434 42
4204 33
1952 19
4156 3
7484 12
7721 17
7582 35
7837 23
1626 39
6941 5
6964 1
3108 26
1890 12
2756 24
5977 24
5412 2
4438 11
5629 31
7978 31
1779 31
3838 2
9834 12
7388 38
1689 8
5439 38
7755 26
1638 20
2927 20
3427 16
4627 20
6346 8
1641 4
1643 11
4841 18
7054 14
1644 5
5315 20
1740 33
1647 19
3088 19
8400 19
2214 9
3303 30
7852 24
1649 3
4710 12
2933 17
6443 20
1653 30
3472 20
8839 32
1654 17
3022 6
4812 17
3130 11
3527 35
6193 24
1657 3
5193 37
9549 32
8370 27
9340 32
1660 20
7812 40
3513 39
3947 12
9294 19
4420 10
1715 36
7119 28
3017 35
5377 35
2770 40
4066 19
1668 32
5912 38
6033 35
4228 0
5981 0
5202 16
7941 6
8787 41
3728 9
1672 7
5301 15
1674 10
4138 10
5078 34
1675 18
2206 18
2571 18
8097 39
1810 25
4252 24
8624 25
1680 8
2039 8
1681 29
3269 23
1682 10
3519 42
5935 0
7793 1
7882 23
1683 42
2311 42
7352 1
1686 42
3743 19
5549 20
7059 40
2204 17
1690 13
3083 13
5149 35
4749 12
5947 14
6600 9
1692 0
2393 0
3116 3
7804 14
7429 20
1695 20
7768 2
1696 10
1697 1
3120 30
1698 35
3754 35
7005 14
1699 32
9666 32
1700 18
3955 0
2067 5
4414 4
6709 27
5278 34
1704 31
2713 33
4960 31
2752 33
5604 19
1706 32
1820 32
5782 39
6612 13
1707 1
2004 19
4070 0
7647 7
1708 18
6067 17
1710 0
6921 9
2438 9
4596 6
2233 31
4945 33
6654 17
2897 10
2293 4
6108 4
6695 4
1716 11
5324 29
5635 11
6627 29
7875 20
7983 22
6044 15
3149 9
1719 29
7937 31
8589 17
1720 10
3494 23
5556 10
5741 24
1721 16
1722 17
6315 31
8135 12
3836 20
7678 17
1724 2
3752 2
1725 34
2806 20
4062 9
4990 12
6419 16
6851 34
3461 12
1727 8
8951 7
2900 11
1729 13
6004 25
1730 6
1731 31
4944 10
1733 41
3769 41
7189 35
5338 9
1736 35
3759 1
4713 37
2620 2
2986 31
1738 1
7048 1
3721 1
7872 31
8688 37
3808 15
5196 33
7722 30
4361 32
5156 32
9631 12
1743 28
2417 28
3068 16
3900 24
4023 15
1745 9
5804 9
2938 35
8109 39
4151 10
3941 25
9429 33
5169 3
6201 18
7437 35
2301 0
8318 6
1755 0
2676 10
3671 11
5137 15
1760 22
2220 33
2603 19
3443 37
5117 6
5458 8
8887 22
1761 35
5130 38
8216 19
5316 37
5571 37
5950 15
6325 9
6372 39
8271 28
1763 3
1764 31
7580 7
3393 9
1766 20
2513 9
3723 29
5488 8
8027 17
6070 37
3144 11
1771 35
1772 20
2050 20
7086 9
1774 9
2536 9
3998 9
6911 39
7195 9
2863 13
3455 36
1776 11
9814 35
2059 31
5340 35
4742 34
1781 21
1782 12
2815 12
6786 5
1783 1
3454 4
2961 35
1786 10
3693 0
8404 33
4381 32
5427 5
3162 30
5369 4
1792 5
5929 24
5890 42
1796 24
2734 11
3633 10
2830 27
7799 8
1799 32
2000 7
2748 20
8379 32
1801 14
3971 12
4329 28
5534 20
6230 35
7269 42
7844 4
8260 32
3813 14
5170 9
8779 25
6877 41
2917 9
5987 20
1813 20
2096 7
2874 20
5516 20
5606 35
3433 6
4590 12
5908 24
7128 34
7002 7
1818 0
3991 6
5569 0
6401 0
3132 3
7004 19
7656 34
1822 21
5892 21
1973 24
7714 42
1825 14
4246 42
6334 14
9779 5
1827 24
8748 36
1829 37
3661 33
1832 39
2139 39
3788 4
1834 10
1835 6
2767 36
5358 6
8593 4
1837 33
5465 27
1838 38
4966 20
6598 38
4451 1
9017 40
1841 31
5409 16
9871 12
1842 10
7784 13
4501 28
2057 40
8454 7
1848 23
2403 26
6072 42
1851 32
2532 14
1852 16
5096 16
7137 39
1853 13
1970 26
3767 13
3444 23
8448 5
5805 19
5978 35
1858 20
4696 9
5508 6
7966 20
3670 3
4938 21
5381 35
1898 12
3315 28
1862 32
4932 12
6803 32
1863 35
4082 35
6554 35
4065 33
1865 25
2054 18
2415 21
3191 25
4261 24
2831 40
3681 4
2148 42
1869 22
2267 15
1871 9
2077 31
5690 7
7037 17
5640 0
7464 20
9374 19
2159 9
3187 23
5809 23
6620 20
3792 31
5140 1
7020 28
7454 35
1880 23
3128 27
6896 18
1881 34
1883 20
1884 33
4206 33
4578 33
2740 31
6258 29
1888 28
1889 11
2674 11
7605 35
7147 20
2380 19
3724 32
4703 32
5557 42
3229 11
6270 1
5405 16
1897 31
5855 3
6481 15
8261 24
5703 12
1899 12
1960 9
1902 23
4470 42
4902 27
2350 39
3946 14
5513 22
1907 9
2015 27
4824 10
4882 23
5674 11
6477 18
8316 5
9992 18
3041 11
1912 34
3579 24
1915 32
3265 15
6888 40
1917 15
2163 16
4639 9
7738 27
1920 39
8056 32
1921 24
2738 24
1924 0
3226 39
4606 0
1925 18
3343 34
2187 25
8317 11
4660 34
2688 9
6860 0
8120 42
2769 0
1930 42
4064 17
6761 42
6768 26
2968 4
3542 6
4436 23
4446 33
1933 21
4961 21
8081 21
6626 29
3250 28
8281 7
5879 6
1941 1
8226 9
2334 22
1945 2
6271 35
1946 20
3569 29
4746 14
5060 29
3502 30
4116 21
9062 6
1950 32
4652 34
3846 18
1953 6
3531 35
7318 6
1954 9
4477 26
3214 20
6713 27
1956 23
5676 10
5704 35
1957 40
2371 11
3784 40
1958 8
1959 19
2166 0
7360 9
7668 39
4165 9
5356 9
2792 35
2477 22
3660 6
3620 42
1967 14
3169 13
4897 32
2723 13
4396 35
6106 35
1972 11
6048 20
2394 31
3652 11
4538 6
1975 36
1976 23
4155 23
1978 4
7017 25
8928 3
2106 35
5265 42
5129 13
5515 37
1987 31
2616 20
2966 31
6251 9
1988 23
3800 39
5905 3
7244 18
1993 31
4562 1
1996 10
4549 7
1998 5
4525 5
1999 9
2001 18
2140 18
3095 35
3395 1
4922 30
7555 26
2003 39
2005 16
4461 18
2006 4
5505 1
5540 5
2009 5
5244 7
6448 24
2010 37
3596 4
3789 27
8485 14
5840 32
8668 8
2622 32
7470 7
7379 14
2019 33
4447 33
5361 9
5173 27
2453 1
6974 35
3969 29
2735 38
3060 21
2208 12
3362 6
5231 35
7447 39
2030 27
2450 35
6314 14
2034 16
4408 16
4209 39
2036 13
2186 20
5302 31
4387 8
5337 11
7424 0
5000 9
2044 17
2398 20
3331 22
4080 17
6435 17
8878 42
5042 11
2051 21
2307 35
4941 37
7376 21
8287 21
2741 30
2053 20
7032 20
5236 18
2055 26
2772 32
4362 26
4648 35
4741 9
6432 10
2377 4
2987 35
4269 2
5848 14
8183 0
2063 35
4059 19
6795 8
8689 6
2065 35
7095 27
5785 16
4047 5
5535 24
2069 1
4698 37
2695 12
7178 25
4454 14
2073 35
3964 35
8790 30
6497 20
2078 3
3912 20
3985 42
2083 28
2975 31
3939 11
2121 8
4196 11
2089 25
4187 25
6906 11
7934 2
8157 24
4310 25
5178 34
3012 20
5013 0
5637 7
2097 35
7568 5
4115 12
9050 17
2099 31
6348 32
6464 4
2103 34
2104 0
6781 17
2344 35
5548 30
2111 16
2112 10
2113 17
3642 6
2114 21
2152 28
2116 24
2119 25
2263 40
2316 34
3000 34
5282 5
7527 34
3394 35
5400 20
5269 14
2662 0
4785 21
2126 4
6026 4
7523 24
2128 26
3711 3
3372 12
4038 35
2132 20
2813 36
8213 21
5054 35
5642 39
9117 18
2141 13
2226 21
2846 26
7385 0
8962 27
2145 1
2378 42
2146 41
2407 21
5396 41
2147 21
6011 42
6656 21
2374 6
5069 0
4490 17
2389 3
5393 3
5124 30
3241 40
6954 21
7508 12
4774 28
5061 35
6873 30
3073 34
4914 16
4975 37
6834 20
4300 9
6293 13
3134 0
2167 34
3634 15
7135 26
3722 15
2171 9
2172 34
3268 3
3977 20
4709 17
2175 6
3216 33
3696 3
8123 14
2178 20
2179 22
6505 19
2182 25
3773 20
2185 14
2322 14
7615 1
2993 38
7276 20
2189 4
6533 35
3823 1
7535 7
8048 28
3532 6
7372 37
3251 21
8214 38
8886 42
3509 9
5596 30
3036 15
3483 19
2611 8
5429 39
3082 6
2212 32
6220 12
6074 9
2912 4
2217 13
3206 3
2218 20
2485 20
5956 39
2466 21
2595 10
2221 15
2223 5
5740 0
7953 0
5009 42
3340 17
2229 20
7312 39
5450 5
6777 17
8068 14
3548 35
5938 18
8162 32
4018 12
4865 28
2235 27
4815 36
4476 0
7518 8
4073 41
6028 12
6023 35
3117 35
3582 34
7645 3
3854 9
5408 6
6597 8
2256 18
5300 18
5538 19
6042 35
2258 27
3369 32
3099 40
8087 28
2264 22
5109 0
2265 35
4428 13
5615 15
2270 31
3262 20
9566 42
4904 39
2274 20
3632 20
2761 16
7285 9
2296 17
3479 3
3890 12
2278 12
2279 5
2682 28
2911 21
7762 25
2280 6
3850 13
4220 28
5808 6
2282 19
3042 22
2286 39
2817 28
2288 7
3558 42
4615 7
5065 13
2292 17
7572 15
3466 7
3882 18
4935 9
2297 20
2794 20
7287 5
7869 41
2363 28
8884 8
4145 20
5979 19
7629 0
5125 35
2310 5
5142 0
2313 34
7900 3
2315 4
2546 4
2730 39
2914 34
8203 34
2397 25
7343 9
3310 5
7237 6
2321 20
5965 15
2326 10
2496 6
7792 30
2328 37
3360 36
2330 21
6938 5
2331 0
2332 24
6952 7
2336 33
3422 10
3581 16
2340 23
2342 28
2766 27
8939 6
6377 6
3201 4
4412 13
6318 10
3692 20
4465 39
2352 0
3756 0
6535 20
5321 12
3467 10
5011 28
3021 37
3526 42
8234 3
8267 18
2370 23
7110 7
6421 24
3109 10
4036 6
4958 30
2376 18
3034 18
6926 36
8810 15
3460 21
2385 17
8578 12
6969 27
2561 9
8411 0
3031 21
2399 25
5992 15
7594 37
2743 14
8294 26
3727 20
6655 20
3960 12
4136 1
3489 15
2410 42
5942 10
6002 19
3447 23
7397 12
2416 24
3086 23
2892 5
2420 3
2641 35
6428 20
2516 11
5016 9
2426 33
4326 33
2427 26
4199 3
2584 14
2970 19
3175 13
2432 8
4289 12
5917 14
3291 0
2441 37
2442 42
3019 39
7705 37
2446 31
2447 42
2553 42
7877 16
2449 20
6580 12
2717 39
2451 13
4694 37
3085 4
3295 36
7589 23
2455 1
3729 1
5025 35
6016 1
6569 5
2596 5
3181 11
6008 39
4954 42
3872 32
5539 0
2463 41
7489 16
4350 3
5099 3
2467 34
2469 6
5951 6
3943 31
2472 11
7265 11
7541 34
4495 9
5923 22
4494 4
4607 9
5165 5
3335 2
5214 7
7267 31
4095 32
4041 20
6093 6
7912 9
7801 37
8682 14
2929 31
2495 42
4572 9
6760 8
2498 20
4119 20
2925 21
4383 32
2507 7
2934 7
6066 14
4638 8
2510 11
2512 24
3885 31
5076 9
6847 25
2514 20
2517 34
2518 3
3952 25
3675 19
2521 20
2524 22
3317 8
4099 18
5920 12
2528 20
3667 5
7548 3
2534 20
4743 9
4236 9
2822 9
6300 34
4128 4
4298 39
4231 14
2540 9
2541 10
4275 9
5197 35
5553 9
3612 37
3486 4
4311 35
8808 22
2552 37
3157 37
6000 37
9045 42
2555 22
8242 9
4273 24
2560 24
4918 24
3299 39
5413 31
5995 36
3195 15
2566 20
4651 22
2568 0
5037 16
6414 0
6957 14
2879 0
6149 20
3476 34
2574 25
5480 39
2579 14
4219 20
7921 17
5295 35
2583 37
6210 26
3839 22
6160 25
2588 24
5277 24
7188 39
4256 24
2590 7
9739 19
2844 29
2593 7
8822 6
5215 42
5339 14
8219 5
2781 32
7544 19
3844 20
2600 35
2602 34
6568 31
5257 24
2604 22
2607 32
5053 32
7818 31
2608 21
3370 10
2758 15
4307 22
3400 36
3748 6
6017 2
7982 20
2729 32
4835 32
5608 4
6603 12
2625 21
4949 6
5064 34
2627 28
2629 39
4179 39
2630 18
3829 31
2633 0
3243 20
4594 9
5728 28
2640 3
5222 0
4271 27
5394 6
2650 8
2878 15
2653 9
2654 5
4550 5
4078 19
2885 12
2657 0
2658 18
3437 18
3916 6
8565 20
5180 37
2669 13
2698 32
6412 5
2684 31
4230 31
2686 23
2965 23
7652 3
2687 16
3821 12
2690 19
4472 35
2692 31
3171 35
4483 23
4998 39
2699 32
2708 26
5092 6
3007 31
5745 7
3786 33
4202 33
2715 20
4843 20
3691 27
3252 42
3717 0
2720 33
5899 21
3902 35
3093 20
4150 11
5114 6
3543 35
3398 23
7573 13
5445 9
2733 15
4878 9
5590 5
2745 21
3647 7
4129 39
3663 20
3983 6
2754 12
3749 42
6344 9
6475 29
5930 36
5057 24
2765 0
3418 27
3274 3
2771 36
7734 9
4716 34
7731 22
2778 0
4574 31
4684 14
2783 13
2784 20
4214 15
4444 20
3277 14
2787 0
5365 28
2791 12
3183 23
6858 10
2797 28
2798 16
3025 16
3342 16
4947 8
5730 24
2839 27
3047 17
5367 12
5833 2
6757 5
4707 6
3881 33
7775 9
8007 9
2823 20
2826 11
3488 37
6445 0
7316 42
2832 19
5387 20
5444 36
3026 35
6422 27
2836 39
4649 12
3076 20
2843 35
5198 23
2848 17
5157 4
5904 34
4712 20
6148 13
2857 32
4881 41
4968 3
2865 4
4374 20
7257 17
3145 21
2877 1
3090 0
3921 22
2880 19
3004 19
3456 19
2883 14
6343 9
5179 11
4900 30
2890 12
4740 31
2891 10
4296 2
6680 9
4570 4
5348 16
6378 20
6890 34
2901 4
3293 7
2904 16
2907 26
5440 4
6815 36
2919 14
2924 1
4397 1
6762 37
3538 23
4739 30
5672 13
6827 20
3686 20
2935 5
5762 0
3371 34
2949 9
3577 4
5857 23
3662 31
3462 4
8545 19
2972 12
4226 14
7321 34
6750 9
5686 34
6161 24
3276 11
6843 17
6846 3
4586 1
3574 37
4216 2
3003 30
6690 20
5729 29
6104 19
4348 4
3894 18
3013 18
3014 7
4034 14
4297 6
4521 31
4558 24
8665 7
3020 11
3869 15
3023 14
6301 20
7552 33
3680 20
7797 9
3044 18
3158 9
3046 27
3048 20
3055 31
3065 35
4864 42
3067 36
3070 7
4540 23
6455 11
3367 20
5490 22
3077 12
3359 16
3160 23
5403 41
3096 6
4855 32
5297 9
3102 3
3104 31
4359 0
3113 20
6364 41
5386 2
3945 27
7081 3
6508 5
3131 20
4887 7
5390 9
6233 9
5504 29
5860 26
6154 14
5651 16
3147 13
3560 20
4029 35
3153 5
3550 12
7481 5
8187 42
3176 31
3180 35
4274 17
3185 9
3751 15
3199 20
4453 12
3482 20
3207 17
3209 8
3254 13
4025 20
3221 12
4956 31
7846 10
3953 11
5233 27
3599 14
3259 14
6409 37
4441 3
3597 23
3285 42
4767 10
3406 39
4146 12
6284 14
4279 14
6357 6
3307 37
3598 2
3336 13
3832 26
6245 39
4302 37
3863 6
3904 11
5545 10
4751 34
7510 23
4134 5
6811 9
3374 37
3376 42
6919 19
4188 9
7666 25
6916 23
3903 10
4730 8
3409 10
3419 11
3883 41
5217 0
8276 34
3426 37
5891 32
5090 2
3442 9
3451 41
4512 37
5492 20
3464 9
4139 7
5691 3
3500 9
5913 42
5735 2
5522 35
3529 36
6380 14
4050 12
6787 2
4051 9
4369 11
3571 41
6570 12
4930 1
3589 27
4184 38
3606 7
3755 7
6700 20
5162 20
3702 22
4633 1
4333 10
3653 32
7427 13
6180 3
4817 20
4316 14
3841 0
3695 21
3701 36
4877 35
5926 35
3770 15
4158 39
7413 14
3825 27
5459 20
3807 31
3820 19
4726 8
5698 14
6776 20
6274 25
3920 35
3933 11
4301 25
7323 7
7194 38
6474 12
3972 32
5253 42
6489 9
5258 9
5562 32
5350 19
5172 8
4037 20
7942 30
4072 3
6206 10
7161 23
4948 32
6644 11
4203 31
4227 22
5820 0
4284 20
5779 9
6748 25
4529 37
4356 8
5062 9
4875 20
5949 9
5684 7
7507 1
4543 26
5487 2
5235 12
4548 10
7042 9
5526 1
5623 0
4822 20
4622 8
5017 36
5713 9
4978 25
6551 42
6027 28
5175 23
