0 0
1 1
2 2
3 3
4 4
5 5
6 6
7 7
8 8
9 9
10 10
11 11
12 11
13 0
14 12
15 12
16 13
17 14
18 15
19 16
20 8
21 17
22 4
23 18
24 5
25 19
26 3
27 20
28 21
29 11
30 19
31 20
32 22
33 23
34 24
35 25
36 9
37 12
38 2
39 26
40 27
41 7
42 28
43 29
44 30
45 31
46 7
47 32
48 2
49 22
50 12
51 9
52 33
53 13
54 34
55 2
56 7
57 35
58 7
59 36
60 37
61 29
62 22
63 32
64 38
65 39
66 7
67 40
68 32
69 41
70 42
71 32
72 43
73 6
74 44
75 45
76 31
77 46
78 27
79 9
80 47
81 29
82 41
83 16
84 48
85 49
86 33
87 27
88 2
89 24
90 29
91 40
92 50
93 51
94 52
95 7
96 53
97 16
98 6
99 25
100 54
101 16
102 48
103 49
104 33
105 33
106 38
107 0
108 47
109 6
110 29
111 50
112 35
113 55
114 56
115 51
116 57
117 24
118 9
119 40
120 48
121 7
122 9
123 8
124 58
125 59
126 14
127 7
128 28
129 13
130 19
131 43
132 32
133 55
134 18
135 7
136 45
137 25
138 9
139 27
140 60
141 7
142 34
143 61
144 8
145 40
146 44
147 19
148 17
149 62
150 30
151 14
152 22
153 62
154 63
155 64
156 2
157 26
158 47
159 65
160 9
161 33
162 3
163 66
164 27
165 65
166 13
167 7
168 4
169 0
170 67
171 68
172 24
173 17
174 68
175 69
176 29
177 70
178 33
179 71
180 12
181 25
182 72
183 48
184 40
185 46
186 21
187 0
188 71
189 30
190 5
191 34
192 5
193 12
194 37
195 33
196 24
197 51
198 73
199 74
200 9
201 62
202 63
203 75
204 76
205 33
206 14
207 9
208 72
209 44
210 77
211 55
212 55
213 21
214 68
215 5
216 62
217 72
218 17
219 46
220 66
221 17
222 22
223 62
224 8
225 37
226 62
227 0
228 24
229 44
230 68
231 35
232 78
233 79
234 6
235 79
236 17
237 75
238 50
239 74
240 29
241 19
242 66
243 33
244 39
245 62
246 66
247 67
248 80
249 81
250 4
251 39
252 66
253 15
254 5
255 82
256 62
257 27
258 39
259 62
260 12
261 19
262 71
263 10
264 33
265 68
266 75
267 83
268 65
269 62
270 79
271 23
272 29
273 29
274 6
275 58
276 65
277 27
278 19
279 2
280 50
281 8
282 66
283 84
284 8
285 17
286 48
287 16
288 7
289 39
290 66
291 74
292 6
293 85
294 17
295 33
296 23
297 9
298 5
299 7
300 5
301 80
302 67
303 46
304 31
305 20
306 75
307 51
308 23
309 64
310 15
311 39
312 85
313 5
314 72
315 9
316 64
317 62
318 22
319 72
320 13
321 4
322 18
323 6
324 41
325 17
326 7
327 86
328 5
329 84
330 74
331 7
332 62
333 14
334 87
335 65
336 64
337 45
338 67
339 17
340 68
341 43
342 14
343 88
344 62
345 62
346 22
347 5
348 5
349 23
350 7
351 72
352 76
353 13
354 89
355 68
356 7
357 17
358 17
359 14
360 30
361 29
362 19
363 5
364 0
365 39
366 60
367 51
368 16
369 6
370 65
371 17
372 51
373 45
374 29
375 24
376 72
377 79
378 2
379 8
380 62
381 39
382 2
383 75
384 16
385 72
386 48
387 67
388 71
389 22
390 76
391 48
392 88
393 86
394 78
395 28
396 14
397 31
398 50
399 32
400 43
401 47
402 1
403 55
404 48
405 17
406 39
407 64
408 59
409 64
410 27
411 33
412 50
413 39
414 8
415 32
416 50
417 1
418 16
419 0
420 68
421 2
422 23
423 23
424 21
425 79
426 84
427 32
428 32
429 64
430 90
431 45
432 5
433 19
434 65
435 2
436 51
437 27
438 50
439 36
440 80
441 82
442 47
443 55
444 39
445 36
446 39
447 32
448 65
449 24
450 48
451 28
452 29
453 91
454 28
455 32
456 70
457 5
458 66
459 85
460 5
461 49
462 72
463 7
464 74
465 79
466 4
467 39
468 2
469 21
470 20
471 2
472 30
473 19
474 7
475 21
476 37
477 72
478 85
479 81
480 88
481 38
482 47
483 29
484 46
485 65
486 80
487 2
488 40
489 70
490 28
491 70
492 48
493 29
494 70
495 77
496 22
497 60
498 43
499 40
500 45
501 45
502 59
503 32
504 12
505 47
506 2
507 48
508 19
509 39
510 48
511 81
512 12
513 32
514 30
515 32
516 41
517 67
518 66
519 16
520 32
521 38
522 70
523 24
524 66
525 30
526 82
527 8
528 9
529 53
530 50
531 22
532 35
533 79
534 24
535 48
536 72
537 33
538 7
539 88
540 64
541 31
542 28
543 86
544 64
545 82
546 5
547 38
548 14
549 83
550 48
551 20
552 40
553 2
554 40
555 83
556 14
557 11
558 30
559 90
560 63
561 87
562 16
563 20
564 87
565 78
566 32
567 16
568 87
569 13
570 19
571 72
572 32
573 7
574 69
575 45
576 60
577 2
578 7
579 44
580 48
581 18
582 66
583 47
584 32
585 7
586 92
587 2
588 87
589 28
590 33
591 4
592 27
593 19
594 60
595 28
596 12
597 87
598 72
599 9
600 40
601 51
602 65
603 51
604 33
605 93
606 75
607 12
608 25
609 66
610 66
611 40
612 24
613 82
614 9
615 5
616 76
617 13
618 19
619 33
620 14
621 53
622 17
623 5
624 4
625 89
626 70
627 93
628 12
629 48
630 81
631 26
632 56
633 16
634 38
635 47
636 12
637 32
638 33
639 29
640 51
641 73
642 28
643 65
644 25
645 10
646 5
647 25
648 50
649 38
650 7
651 33
652 7
653 55
654 20
655 48
656 57
657 15
658 15
659 40
660 82
661 27
662 74
663 32
664 45
665 32
666 15
667 55
668 7
669 66
670 6
671 72
672 9
673 21
674 80
675 66
676 22
677 91
678 27
679 61
680 14
681 82
682 90
683 83
684 20
685 20
686 13
687 55
688 9
689 2
690 29
691 90
692 27
693 7
694 60
695 13
696 22
697 45
698 82
699 89
700 9
701 7
702 32
703 32
704 38
705 40
706 27
707 5
708 7
709 2
710 55
711 13
712 32
713 23
714 72
715 27
716 62
717 29
718 22
719 2
720 75
721 5
722 80
723 2
724 6
725 76
726 55
727 27
728 66
729 12
730 31
731 9
732 62
733 45
734 55
735 14
736 21
737 48
738 80
739 39
740 66
741 14
742 5
743 5
744 5
745 5
746 29
747 22
748 17
749 38
750 66
751 71
752 17
753 33
754 5
755 50
756 12
757 75
758 11
759 51
760 45
761 63
762 4
763 2
764 79
765 2
766 75
767 29
768 36
769 15
770 27
771 79
772 12
773 16
774 38
775 32
776 32
777 37
778 46
779 29
780 91
781 79
782 87
783 38
784 72
785 47
786 15
787 87
788 16
789 29
790 33
791 33
792 80
793 66
794 29
795 7
796 5
797 13
798 60
799 71
800 79
801 38
802 29
803 72
804 23
805 72
806 27
807 81
808 80
809 72
810 29
811 64
812 17
813 46
814 16
815 7
816 66
817 85
818 27
819 32
820 72
821 38
822 72
823 77
824 14
825 48
826 52
827 72
828 89
829 14
830 16
831 39
832 72
833 81
834 33
835 32
836 13
837 45
838 28
839 33
840 11
841 30
842 48
843 11
844 80
845 13
846 27
847 46
848 22
849 2
850 86
851 6
852 27
853 64
854 5
855 17
856 19
857 28
858 14
859 65
860 45
861 7
862 28
863 16
864 39
865 9
866 66
867 7
868 27
869 65
870 72
871 45
872 39
873 5
874 29
875 25
876 20
877 6
878 22
879 7
880 0
881 32
882 52
883 4
884 30
885 79
886 50
887 25
888 22
889 49
890 71
891 2
892 89
893 29
894 66
895 0
896 74
897 45
898 33
899 19
900 84
901 80
902 84
903 11
904 19
905 50
906 45
907 2
908 29
909 24
910 43
911 29
912 6
913 32
914 50
915 46
916 32
917 81
918 43
919 47
920 74
921 72
922 79
923 16
924 83
925 70
926 29
927 66
928 33
929 86
930 31
931 3
932 28
933 3
934 28
935 50
936 30
937 20
938 17
939 33
940 39
941 7
942 85
943 38
944 89
945 22
946 89
947 48
948 70
949 83
950 65
951 69
952 22
953 66
954 5
955 24
956 38
957 24
958 70
959 20
960 37
961 29
962 36
963 13
964 65
965 45
966 23
967 28
968 39
969 64
970 64
971 64
972 17
973 82
974 28
975 6
976 21
977 83
978 25
979 5
980 2
981 19
982 12
983 62
984 55
985 46
986 29
987 45
988 83
989 66
990 29
991 3
992 2
993 75
994 5
995 82
996 72
997 9
998 32
999 65
1000 40
1001 27
1002 29
1003 79
1004 27
1005 5
1006 87
1007 16
1008 38
1009 20
1010 4
1011 29
1012 22
1013 20
1014 25
1015 66
1016 5
1017 20
1018 3
1019 33
1020 27
1021 4
1022 25
1023 40
1024 29
1025 65
1026 39
1027 38
1028 22
1029 6
1030 0
1031 25
1032 13
1033 77
1034 40
1035 20
1036 40
1037 13
1038 65
1039 38
1040 72
1041 87
1042 72
1043 45
1044 2
1045 39
1046 13
1047 0
1048 24
1049 70
1050 9
1051 66
1052 86
1053 22
1054 20
1055 13
1056 3
1057 33
1058 3
1059 68
1060 52
1061 72
1062 74
1063 25
1064 87
1065 29
1066 60
1067 19
1068 84
1069 27
1070 31
1071 85
1072 33
1073 66
1074 3
1075 66
1076 64
1077 2
1078 35
1079 40
1080 91
1081 0
1082 94
1083 85
1084 85
1085 48
1086 68
1087 16
1088 11
1089 9
1090 16
1091 40
1092 30
1093 87
1094 29
1095 28
1096 28
1097 29
1098 11
1099 76
1100 18
1101 2
1102 47
1103 79
1104 20
1105 44
1106 95
1107 0
1108 26
1109 45
1110 1
1111 20
1112 14
1113 5
1114 30
1115 5
1116 2
1117 45
1118 29
1119 63
1120 0
1121 67
1122 30
1123 32
1124 3
1125 87
1126 32
1127 13
1128 29
1129 20
1130 2
1131 23
1132 70
1133 81
1134 5
1135 82
1136 7
1137 65
1138 27
1139 3
1140 41
1141 49
1142 8
1143 46
1144 14
1145 2
1146 44
1147 49
1148 11
1149 17
1150 47
1151 17
1152 68
1153 20
1154 29
1155 1
1156 14
1157 72
1158 65
1159 20
1160 12
1161 2
1162 2
1163 38
1164 15
1165 15
1166 55
1167 16
1168 5
1169 2
1170 7
1171 22
1172 79
1173 6
1174 7
1175 62
1176 41
1177 57
1178 68
1179 47
1180 66
1181 74
1182 62
1183 36
1184 17
1185 29
1186 30
1187 70
1188 66
1189 83
1190 13
1191 17
1192 32
1193 68
1194 68
1195 16
1196 84
1197 30
1198 47
1199 75
1200 31
1201 8
1202 40
1203 13
1204 29
1205 33
1206 81
1207 65
1208 83
1209 74
1210 3
1211 55
1212 19
1213 40
1214 29
1215 22
1216 51
1217 3
1218 17
1219 57
1220 1
1221 17
1222 20
1223 66
1224 16
1225 43
1226 65
1227 62
1228 48
1229 56
1230 91
1231 8
1232 29
1233 8
1234 8
1235 17
1236 25
1237 90
1238 23
1239 84
1240 29
1241 16
1242 33
1243 79
1244 79
1245 14
1246 29
1247 79
1248 16
1249 21
1250 42
1251 16
1252 29
1253 74
1254 65
1255 5
1256 10
1257 38
1258 17
1259 6
1260 46
1261 65
1262 66
1263 11
1264 66
1265 78
1266 16
1267 65
1268 80
1269 12
1270 79
1271 23
1272 82
1273 17
1274 39
1275 50
1276 65
1277 8
1278 50
1279 29
1280 29
1281 17
1282 16
1283 25
1284 2
1285 33
1286 60
1287 4
1288 15
1289 66
1290 5
1291 10
1292 50
1293 51
1294 16
1295 66
1296 2
1297 5
1298 17
1299 29
1300 2
1301 23
1302 64
1303 86
1304 8
1305 55
1306 33
1307 65
1308 33
1309 39
1310 80
1311 15
1312 46
1313 46
1314 91
1315 87
1316 15
1317 65
1318 29
1319 39
1320 14
1321 65
1322 80
1323 16
1324 64
1325 26
1326 7
1327 53
1328 24
1329 87
1330 81
1331 64
1332 29
1333 66
1334 7
1335 33
1336 29
1337 72
1338 30
1339 29
1340 5
1341 66
1342 2
1343 13
1344 64
1345 57
1346 33
1347 95
1348 16
1349 10
1350 2
1351 58
1352 15
1353 15
1354 45
1355 62
1356 66
1357 25
1358 72
1359 81
1360 17
1361 77
1362 29
1363 43
1364 68
1365 62
1366 72
1367 12
1368 22
1369 39
1370 33
1371 64
1372 5
1373 39
1374 87
1375 13
1376 29
1377 16
1378 5
1379 29
1380 68
1381 40
1382 80
1383 41
1384 62
1385 66
1386 40
1387 72
1388 27
1389 87
1390 33
1391 47
1392 74
1393 7
1394 29
1395 27
1396 2
1397 16
1398 55
1399 7
1400 13
1401 33
1402 16
1403 54
1404 33
1405 27
1406 33
1407 8
1408 48
1409 84
1410 64
1411 51
1412 3
1413 8
1414 33
1415 70
1416 5
1417 82
1418 72
1419 5
1420 82
1421 29
1422 26
1423 72
1424 62
1425 51
1426 5
1427 85
1428 46
1429 66
1430 27
1431 66
1432 7
1433 2
1434 65
1435 77
1436 44
1437 7
1438 44
1439 90
1440 36
1441 81
1442 13
1443 5
1444 81
1445 79
1446 33
1447 16
1448 16
1449 6
1450 5
1451 2
1452 64
1453 13
1454 27
1455 36
1456 29
1457 82
1458 33
1459 38
1460 72
1461 29
1462 33
1463 79
1464 17
1465 48
1466 23
1467 28
1468 64
1469 39
1470 7
1471 72
1472 37
1473 39
1474 83
1475 3
1476 48
1477 17
1478 55
1479 45
1480 27
1481 65
1482 55
1483 52
1484 5
1485 5
1486 24
1487 66
1488 5
1489 41
1490 66
1491 68
1492 16
1493 81
1494 48
1495 57
1496 8
1497 15
1498 65
1499 29
1500 82
1501 29
1502 30
1503 26
1504 21
1505 29
1506 48
1507 66
1508 73
1509 30
1510 86
1511 16
1512 21
1513 50
1514 45
1515 27
1516 45
1517 29
1518 13
1519 61
1520 40
1521 38
1522 38
1523 5
1524 45
1525 45
1526 48
1527 6
1528 36
1529 24
1530 46
1531 60
1532 16
1533 51
1534 1
1535 88
1536 67
1537 15
1538 70
1539 11
1540 38
1541 13
1542 9
1543 1
1544 87
1545 7
1546 12
1547 22
1548 95
1549 7
1550 66
1551 65
1552 16
1553 5
1554 7
1555 29
1556 65
1557 0
1558 29
1559 72
1560 37
1561 82
1562 31
1563 88
1564 83
1565 34
1566 24
1567 74
1568 5
1569 27
1570 48
1571 47
1572 63
1573 38
1574 29
1575 29
1576 29
1577 2
1578 50
1579 84
1580 33
1581 72
1582 40
1583 33
1584 40
1585 2
1586 23
1587 65
1588 65
1589 66
1590 15
1591 16
1592 29
1593 33
1594 65
1595 5
1596 5
1597 70
1598 14
1599 83
1600 51
1601 52
1602 38
1603 5
1604 35
1605 57
1606 13
1607 7
1608 30
1609 5
1610 72
1611 25
1612 3
1613 1
1614 16
1615 57
1616 36
1617 25
1618 14
1619 30
1620 13
1621 51
1622 66
1623 41
1624 2
1625 67
1626 5
1627 66
1628 5
1629 5
1630 32
1631 66
1632 40
1633 13
1634 0
1635 45
1636 86
1637 0
1638 62
1639 29
1640 33
1641 5
1642 30
1643 7
1644 78
1645 30
1646 66
1647 27
1648 30
1649 95
1650 5
1651 2
1652 3
1653 29
1654 71
1655 7
1656 29
1657 45
1658 40
1659 33
1660 17
1661 55
1662 5
1663 88
1664 32
1665 41
1666 13
1667 19
1668 32
1669 2
1670 38
1671 31
1672 13
1673 9
1674 32
1675 7
1676 77
1677 60
1678 29
1679 29
1680 6
1681 25
1682 88
1683 66
1684 74
1685 54
1686 13
1687 62
1688 72
1689 6
1690 62
1691 30
1692 29
1693 32
1694 15
1695 30
1696 27
1697 82
1698 28
1699 2
1700 72
1701 29
1702 20
1703 7
1704 72
1705 5
1706 5
1707 42
1708 32
1709 5
1710 7
1711 7
1712 80
1713 48
1714 16
1715 63
1716 5
1717 16
1718 29
1719 16
1720 14
1721 19
1722 48
1723 66
1724 15
1725 29
1726 48
1727 5
1728 84
1729 17
1730 51
1731 72
1732 38
1733 72
1734 85
1735 45
1736 32
1737 5
1738 2
1739 1
1740 14
1741 33
1742 36
1743 5
1744 5
1745 32
1746 11
1747 37
1748 8
1749 62
1750 8
1751 7
1752 38
1753 3
1754 5
1755 13
1756 47
1757 16
1758 80
1759 29
1760 36
1761 32
1762 91
1763 12
1764 66
1765 48
1766 7
1767 27
1768 89
1769 66
1770 8
1771 24
1772 29
1773 45
1774 81
1775 16
1776 7
1777 72
1778 82
1779 33
1780 65
1781 62
1782 46
1783 57
1784 80
1785 2
1786 15
1787 29
1788 12
1789 55
1790 75
1791 5
1792 95
1793 60
1794 60
1795 81
1796 30
1797 23
1798 16
1799 66
1800 38
1801 5
1802 48
1803 66
1804 48
1805 31
1806 85
1807 2
1808 29
1809 33
1810 32
1811 33
1812 38
1813 79
1814 72
1815 31
1816 33
1817 29
1818 50
1819 24
1820 29
1821 24
1822 27
1823 85
1824 50
1825 72
1826 27
1827 46
1828 85
1829 80
1830 29
1831 27
1832 33
1833 45
1834 30
1835 38
1836 29
1837 20
1838 63
1839 92
1840 6
1841 33
1842 6
1843 10
1844 27
1845 21
1846 38
1847 33
1848 66
1849 13
1850 30
1851 13
1852 13
1853 30
1854 38
1855 29
1856 36
1857 39
1858 5
1859 13
1860 32
1861 38
1862 42
1863 5
1864 25
1865 85
1866 27
1867 4
1868 27
1869 51
1870 66
1871 2
1872 14
1873 80
1874 43
1875 22
1876 38
1877 32
1878 19
1879 6
1880 5
1881 46
1882 15
1883 7
1884 28
1885 5
1886 72
1887 16
1888 6
1889 32
1890 44
1891 25
1892 29
1893 43
1894 19
1895 17
1896 5
1897 4
1898 22
1899 5
1900 29
1901 34
1902 2
1903 47
1904 39
1905 22
1906 72
1907 23
1908 15
1909 5
1910 4
1911 60
1912 7
1913 64
1914 5
1915 84
1916 60
1917 88
1918 66
1919 60
1920 47
1921 30
1922 64
1923 40
1924 20
1925 5
1926 5
1927 72
1928 66
1929 29
1930 25
1931 29
1932 22
1933 16
1934 2
1935 22
1936 5
1937 45
1938 29
1939 45
1940 66
1941 17
1942 81
1943 94
1944 32
1945 29
1946 7
1947 13
1948 20
1949 30
1950 79
1951 33
1952 27
1953 29
1954 60
1955 56
1956 42
1957 20
1958 50
1959 29
1960 4
1961 24
1962 29
1963 33
1964 38
1965 90
1966 0
1967 75
1968 33
1969 72
1970 16
1971 33
1972 34
1973 5
1974 38
1975 1
1976 25
1977 29
1978 25
1979 27
1980 34
1981 0
1982 68
1983 82
1984 47
1985 66
1986 29
1987 29
1988 24
1989 32
1990 72
1991 28
1992 48
1993 22
1994 2
1995 91
1996 20
1997 25
1998 5
1999 20
2000 70
2001 29
2002 72
2003 17
2004 24
2005 16
2006 13
2007 8
2008 30
2009 47
2010 70
2011 0
2012 48
2013 85
2014 32
2015 7
2016 2
2017 50
2018 84
2019 66
2020 9
2021 48
2022 33
2023 3
2024 38
2025 13
2026 66
2027 29
2028 16
2029 38
2030 49
2031 29
2032 30
2033 45
2034 27
2035 10
2036 5
2037 29
2038 70
2039 16
2040 2
2041 72
2042 29
2043 46
2044 32
2045 4
2046 64
2047 29
2048 20
2049 83
2050 74
2051 79
2052 11
2053 66
2054 25
2055 27
2056 80
2057 8
2058 65
2059 63
2060 20
2061 74
2062 6
2063 3
2064 44
2065 2
2066 6
2067 20
2068 40
2069 82
2070 72
2071 70
2072 65
2073 28
2074 53
2075 30
2076 21
2077 84
2078 49
2079 47
2080 22
2081 38
2082 29
2083 10
2084 86
2085 7
2086 12
2087 22
2088 27
2089 12
2090 4
2091 45
2092 25
2093 47
2094 1
2095 74
2096 7
2097 3
2098 6
2099 12
2100 64
2101 9
2102 25
2103 4
2104 12
2105 45
2106 14
2107 75
2108 5
2109 29
2110 3
2111 48
2112 29
2113 2
2114 87
2115 3
2116 16
2117 40
2118 12
2119 9
2120 46
2121 40
2122 57
2123 60
2124 33
2125 66
2126 76
2127 6
2128 25
2129 66
2130 7
2131 69
2132 48
2133 65
2134 21
2135 19
2136 95
2137 13
2138 84
2139 79
2140 70
2141 7
2142 66
2143 78
2144 24
2145 59
2146 57
2147 67
2148 48
2149 0
2150 27
2151 32
2152 29
2153 51
2154 24
2155 17
2156 13
2157 60
2158 5
2159 13
2160 19
2161 27
2162 62
2163 65
2164 2
2165 7
2166 12
2167 46
2168 63
2169 40
2170 62
2171 75
2172 22
2173 29
2174 38
2175 65
2176 38
2177 55
2178 2
2179 84
2180 45
2181 7
2182 25
2183 81
2184 7
2185 57
2186 79
2187 40
2188 55
2189 16
2190 62
2191 94
2192 6
2193 83
2194 48
2195 21
2196 2
2197 21
2198 5
2199 55
2200 7
2201 1
2202 21
2203 14
2204 75
2205 34
2206 24
2207 17
2208 36
2209 90
2210 15
2211 29
2212 66
2213 56
2214 72
2215 60
2216 27
2217 25
2218 66
2219 91
2220 29
2221 1
2222 72
2223 71
2224 46
2225 33
2226 34
2227 25
2228 66
2229 1
2230 15
2231 47
2232 72
2233 81
2234 65
2235 20
2236 62
2237 62
2238 40
2239 5
2240 14
2241 91
2242 67
2243 29
2244 5
2245 34
2246 9
2247 91
2248 48
2249 8
2250 67
2251 44
2252 38
2253 68
2254 62
2255 32
2256 8
2257 28
2258 15
2259 26
2260 76
2261 67
2262 72
2263 32
2264 11
2265 29
2266 47
2267 61
2268 74
2269 76
2270 85
2271 40
2272 68
2273 62
2274 36
2275 76
2276 10
2277 56
2278 55
2279 13
2280 4
2281 19
2282 30
2283 36
2284 5
2285 80
2286 32
2287 79
2288 66
2289 65
2290 43
2291 29
2292 86
2293 22
2294 12
2295 25
2296 75
2297 66
2298 66
2299 67
2300 22
2301 20
2302 10
2303 51
2304 55
2305 37
2306 19
2307 19
2308 38
2309 7
2310 50
2311 44
2312 93
2313 83
2314 80
2315 6
2316 39
2317 75
2318 43
2319 51
2320 17
2321 61
2322 68
2323 64
2324 39
2325 41
2326 4
2327 17
2328 62
2329 29
2330 79
2331 16
2332 68
2333 89
2334 20
2335 74
2336 19
2337 81
2338 32
2339 39
2340 66
2341 66
2342 24
2343 8
2344 29
2345 16
2346 62
2347 72
2348 62
2349 29
2350 80
2351 39
2352 20
2353 5
2354 16
2355 59
2356 64
2357 34
2358 7
2359 2
2360 42
2361 7
2362 29
2363 28
2364 9
2365 32
2366 27
2367 73
2368 40
2369 80
2370 8
2371 3
2372 5
2373 29
2374 31
2375 9
2376 72
2377 7
2378 87
2379 72
2380 43
2381 19
2382 64
2383 13
2384 45
2385 3
2386 72
2387 81
2388 29
2389 77
2390 85
2391 16
2392 5
2393 46
2394 84
2395 19
2396 15
2397 72
2398 87
2399 16
2400 50
2401 8
2402 29
2403 45
2404 29
2405 62
2406 29
2407 13
2408 29
2409 45
2410 4
2411 38
2412 6
2413 66
2414 29
2415 5
2416 47
2417 17
2418 11
2419 31
2420 45
2421 6
2422 7
2423 41
2424 24
2425 29
2426 10
2427 13
2428 66
2429 94
2430 32
2431 46
2432 39
2433 46
2434 91
2435 64
2436 50
2437 52
2438 32
2439 15
2440 1
2441 27
2442 8
2443 5
2444 26
2445 27
2446 5
2447 16
2448 5
2449 72
2450 66
2451 5
2452 3
2453 0
2454 10
2455 86
2456 82
2457 27
2458 59
2459 6
2460 44
2461 65
2462 65
2463 39
2464 45
2465 29
2466 29
2467 32
2468 65
2469 48
2470 33
2471 36
2472 10
2473 29
2474 48
2475 27
2476 68
2477 16
2478 80
2479 46
2480 66
2481 30
2482 48
2483 66
2484 40
2485 32
2486 16
2487 82
2488 29
2489 72
2490 29
2491 24
2492 5
2493 79
2494 49
2495 32
2496 73
2497 24
2498 51
2499 45
2500 65
2501 77
2502 3
2503 8
2504 8
2505 84
2506 5
2507 5
2508 70
2509 74
2510 45
2511 70
2512 48
2513 23
2514 14
2515 13
2516 72
2517 86
2518 33
2519 16
2520 54
2521 1
2522 28
2523 33
2524 66
2525 38
2526 80
2527 1
2528 45
2529 27
2530 0
2531 0
2532 22
2533 37
2534 70
2535 26
2536 33
2537 4
2538 70
2539 35
2540 29
2541 9
2542 16
2543 13
2544 13
2545 30
2546 29
2547 16
2548 30
2549 85
2550 24
2551 33
2552 13
2553 10
2554 29
2555 30
2556 13
2557 75
2558 1
2559 48
2560 11
2561 40
2562 10
2563 89
2564 64
2565 75
2566 88
2567 27
2568 59
2569 2
2570 45
2571 0
2572 7
2573 66
2574 3
2575 64
2576 66
2577 31
2578 31
2579 46
2580 63
2581 30
2582 2
2583 86
2584 48
2585 8
2586 0
2587 30
2588 29
2589 24
2590 17
2591 48
2592 63
2593 0
2594 30
2595 72
2596 5
2597 39
2598 8
2599 75
2600 70
2601 33
2602 37
2603 42
2604 24
2605 48
2606 38
2607 3
2608 12
2609 33
2610 29
2611 66
2612 27
2613 30
2614 33
2615 2
2616 72
2617 45
2618 72
2619 48
2620 2
2621 38
2622 5
2623 33
2624 16
2625 60
2626 75
2627 60
2628 61
2629 65
2630 34
2631 33
2632 59
2633 66
2634 30
2635 33
2636 72
2637 2
2638 50
2639 5
2640 49
2641 72
2642 54
2643 63
2644 32
2645 13
2646 3
2647 12
2648 33
2649 30
2650 11
2651 25
2652 2
2653 75
2654 89
2655 27
2656 25
2657 5
2658 0
2659 5
2660 2
2661 87
2662 30
2663 76
2664 25
2665 2
2666 72
2667 81
2668 13
2669 66
2670 14
2671 67
2672 19
2673 29
2674 22
2675 55
2676 37
2677 7
2678 16
2679 11
2680 5
2681 76
2682 33
2683 30
2684 67
2685 33
2686 69
2687 33
2688 29
2689 95
2690 44
2691 49
2692 29
2693 5
2694 68
2695 2
2696 66
2697 32
2698 70
2699 29
2700 55
2701 89
2702 25
2703 16
2704 27
2705 33
2706 68
2707 17
2708 5
2709 27
2710 14
2711 27
2712 68
2713 93
2714 13
2715 68
2716 66
2717 62
2718 2
2719 15
2720 87
2721 6
2722 24
2723 23
2724 19
2725 62
2726 77
2727 84
2728 5
2729 76
2730 16
2731 92
2732 5
2733 15
2734 24
2735 5
2736 2
2737 17
2738 32
2739 87
2740 5
2741 16
2742 13
2743 48
2744 80
2745 27
2746 8
2747 29
2748 29
2749 15
2750 5
2751 16
2752 6
2753 32
2754 29
2755 29
2756 55
2757 30
2758 21
2759 46
2760 13
2761 32
2762 72
2763 6
2764 2
2765 51
2766 66
2767 27
2768 29
2769 27
2770 66
2771 79
2772 48
2773 5
2774 85
2775 5
2776 4
2777 5
2778 14
2779 32
2780 8
2781 60
2782 16
2783 19
2784 66
2785 80
2786 32
2787 51
2788 39
2789 62
2790 26
2791 68
2792 32
2793 5
2794 45
2795 32
2796 4
2797 33
2798 5
2799 48
2800 33
2801 38
2802 33
2803 79
2804 13
2805 32
2806 49
2807 2
2808 83
2809 72
2810 5
2811 8
2812 48
2813 42
2814 46
2815 45
2816 29
2817 2
2818 6
2819 65
2820 29
2821 27
2822 33
2823 38
2824 39
2825 74
2826 29
2827 29
2828 24
2829 30
2830 74
2831 5
2832 85
2833 33
2834 16
2835 14
2836 48
2837 50
2838 39
2839 48
2840 8
2841 6
2842 6
2843 66
2844 32
2845 29
2846 33
2847 33
2848 66
2849 50
2850 25
2851 59
2852 32
2853 33
2854 29
2855 48
2856 72
2857 11
2858 12
2859 44
2860 47
2861 32
2862 29
2863 25
2864 79
2865 12
2866 7
2867 32
2868 60
2869 45
2870 60
2871 72
2872 15
2873 30
2874 25
2875 24
2876 27
2877 6
2878 66
2879 2
2880 15
2881 79
2882 30
2883 72
2884 84
2885 2
2886 33
2887 30
2888 6
2889 16
2890 81
2891 80
2892 48
2893 25
2894 30
2895 34
2896 29
2897 31
2898 84
2899 7
2900 60
2901 48
2902 72
2903 4
2904 30
2905 66
2906 5
2907 72
2908 6
2909 79
2910 13
2911 64
2912 38
2913 5
2914 30
2915 64
2916 5
2917 89
2918 4
2919 33
2920 15
2921 66
2922 29
2923 15
2924 29
2925 17
2926 5
2927 29
2928 5
2929 48
2930 25
2931 43
2932 29
2933 50
2934 40
2935 8
2936 47
2937 72
2938 32
2939 23
2940 27
2941 13
2942 40
2943 2
2944 27
2945 32
2946 20
2947 13
2948 32
2949 66
2950 25
2951 48
2952 33
2953 14
2954 14
2955 55
2956 48
2957 24
2958 29
2959 92
2960 29
2961 20
2962 43
2963 33
2964 22
2965 22
2966 20
2967 23
2968 48
2969 5
2970 5
2971 27
2972 29
2973 50
2974 16
2975 10
2976 66
2977 29
2978 36
2979 25
2980 16
2981 49
2982 7
2983 25
2984 5
2985 68
2986 5
2987 48
2988 15
2989 16
2990 27
2991 30
2992 51
2993 7
2994 3
2995 2
2996 4
2997 29
2998 45
2999 5
3000 30
3001 83
3002 38
3003 66
3004 27
3005 25
3006 20
3007 48
3008 8
3009 13
3010 6
3011 24
3012 65
3013 38
3014 45
3015 13
3016 24
3017 16
3018 85
3019 48
3020 47
3021 66
3022 82
3023 45
3024 3
3025 22
3026 88
3027 30
3028 5
3029 3
3030 66
3031 13
3032 25
3033 32
3034 6
3035 22
3036 20
3037 5
3038 39
3039 24
3040 90
3041 78
3042 66
3043 49
3044 64
3045 20
3046 94
3047 42
3048 27
3049 28
3050 38
3051 72
3052 29
3053 2
3054 70
3055 5
3056 39
3057 24
3058 33
3059 38
3060 29
3061 9
3062 25
3063 48
3064 21
3065 19
3066 25
3067 24
3068 87
3069 16
3070 72
3071 24
3072 62
3073 4
3074 48
3075 9
3076 48
3077 2
3078 72
3079 25
3080 87
3081 39
3082 7
3083 7
3084 47
3085 65
3086 14
3087 86
3088 33
3089 38
3090 39
3091 29
3092 38
3093 48
3094 68
3095 25
3096 68
3097 82
3098 66
3099 30
3100 63
3101 17
3102 63
3103 75
3104 9
3105 11
3106 16
3107 27
3108 56
3109 33
3110 32
3111 18
3112 38
3113 20
3114 86
3115 27
3116 33
3117 70
3118 40
3119 22
3120 88
3121 17
3122 5
3123 70
3124 40
3125 75
3126 83
3127 36
3128 64
3129 40
3130 16
3131 16
3132 81
3133 80
3134 30
3135 27
3136 29
3137 16
3138 33
3139 29
3140 5
3141 23
3142 20
3143 25
3144 62
3145 29
3146 6
3147 24
3148 63
3149 58
3150 59
3151 26
3152 3
3153 85
3154 53
3155 29
3156 5
3157 5
3158 29
3159 41
3160 12
3161 35
3162 41
3163 8
3164 19
3165 84
3166 80
3167 16
3168 66
3169 85
3170 47
3171 43
3172 87
3173 30
3174 68
3175 62
3176 5
3177 20
3178 30
3179 22
3180 57
3181 87
3182 81
3183 7
3184 16
3185 5
3186 20
3187 42
3188 29
3189 87
3190 29
3191 27
3192 42
3193 55
3194 38
3195 65
3196 5
3197 89
3198 86
3199 2
3200 72
3201 88
3202 65
3203 17
3204 5
3205 13
3206 33
3207 33
3208 39
3209 0
3210 45
3211 91
3212 33
3213 2
3214 72
3215 7
3216 13
3217 47
3218 66
3219 29
3220 65
3221 29
3222 48
3223 72
3224 13
3225 29
3226 70
3227 33
3228 13
3229 72
3230 90
3231 33
3232 12
3233 66
3234 32
3235 20
3236 14
3237 33
3238 5
3239 70
3240 29
3241 16
3242 2
3243 62
3244 62
3245 48
3246 87
3247 27
3248 13
3249 31
3250 63
3251 5
3252 5
3253 48
3254 37
3255 68
3256 29
3257 72
3258 82
3259 60
3260 16
3261 2
3262 16
3263 15
3264 81
3265 5
3266 48
3267 21
3268 14
3269 64
3270 2
3271 43
3272 25
3273 57
3274 48
3275 8
3276 5
3277 72
3278 63
3279 14
3280 37
3281 38
3282 64
3283 82
3284 91
3285 72
3286 66
3287 5
3288 25
3289 5
3290 87
3291 59
3292 72
3293 2
3294 62
3295 2
3296 8
3297 16
3298 8
3299 25
3300 8
3301 29
3302 2
3303 94
3304 29
3305 68
3306 1
3307 5
3308 66
3309 7
3310 27
3311 55
3312 65
3313 55
3314 75
3315 6
3316 80
3317 66
3318 72
3319 43
3320 55
3321 12
3322 5
3323 72
3324 8
3325 15
3326 13
3327 33
3328 29
3329 39
3330 74
3331 88
3332 6
3333 20
3334 41
3335 27
3336 82
3337 74
3338 13
3339 12
3340 2
3341 51
3342 80
3343 7
3344 5
3345 74
3346 61
3347 33
3348 17
3349 46
3350 13
3351 82
3352 13
3353 87
3354 48
3355 15
3356 7
3357 2
3358 6
3359 39
3360 29
3361 13
3362 79
3363 25
3364 93
3365 29
3366 5
3367 13
3368 14
3369 77
3370 23
3371 27
3372 27
3373 77
3374 29
3375 5
3376 33
3377 25
3378 72
3379 2
3380 7
3381 29
3382 16
3383 33
3384 6
3385 82
3386 33
3387 7
3388 63
3389 66
3390 37
3391 38
3392 23
3393 2
3394 5
3395 50
3396 14
3397 61
3398 46
3399 7
3400 5
3401 80
3402 5
3403 66
3404 29
3405 27
3406 65
3407 64
3408 17
3409 75
3410 72
3411 49
3412 5
3413 5
3414 66
3415 66
3416 89
3417 87
3418 5
3419 47
3420 33
3421 79
3422 6
3423 2
3424 16
3425 63
3426 9
3427 16
3428 8
3429 95
3430 8
3431 29
3432 49
3433 45
3434 72
3435 16
3436 27
3437 20
3438 60
3439 27
3440 65
3441 29
3442 81
3443 45
3444 2
3445 66
3446 47
3447 75
3448 17
3449 5
3450 29
3451 5
3452 94
3453 80
3454 39
3455 45
3456 29
3457 2
3458 62
3459 59
3460 15
3461 79
3462 8
3463 29
3464 43
3465 33
3466 27
3467 48
3468 66
3469 17
3470 27
3471 32
3472 54
3473 32
3474 5
3475 33
3476 17
3477 33
3478 48
3479 65
3480 20
3481 29
3482 49
3483 57
3484 72
3485 87
3486 62
3487 15
3488 42
3489 33
3490 66
3491 29
3492 44
3493 32
3494 83
3495 29
3496 29
3497 27
3498 45
3499 13
3500 57
3501 39
3502 33
3503 90
3504 32
3505 33
3506 17
3507 38
3508 30
3509 21
3510 39
3511 72
3512 30
3513 34
3514 28
3515 60
3516 16
3517 16
3518 67
3519 29
3520 48
3521 66
3522 33
3523 18
3524 91
3525 27
3526 72
3527 48
3528 38
3529 37
3530 29
3531 13
3532 33
3533 74
3534 66
3535 7
3536 7
3537 8
3538 70
3539 17
3540 27
3541 57
3542 16
3543 51
3544 32
3545 45
3546 8
3547 22
3548 24
3549 85
3550 5
3551 29
3552 72
3553 26
3554 24
3555 72
3556 48
3557 66
3558 49
3559 48
3560 40
3561 66
3562 13
3563 70
3564 5
3565 5
3566 30
3567 62
3568 2
3569 3
3570 50
3571 22
3572 5
3573 32
3574 0
3575 60
3576 5
3577 2
3578 30
3579 22
3580 82
3581 2
3582 13
3583 14
3584 72
3585 32
3586 24
3587 67
3588 29
3589 27
3590 39
3591 2
3592 45
3593 68
3594 22
3595 74
3596 22
3597 20
3598 72
3599 9
3600 75
3601 30
3602 7
3603 40
3604 24
3605 54
3606 29
3607 63
3608 30
3609 63
3610 46
3611 28
3612 36
3613 34
3614 33
3615 19
3616 16
3617 17
3618 75
3619 13
3620 62
3621 32
3622 0
3623 33
3624 39
3625 15
3626 86
3627 30
3628 3
3629 48
3630 65
3631 28
3632 80
3633 60
3634 2
3635 2
3636 46
3637 33
3638 16
3639 66
3640 12
3641 86
3642 5
3643 50
3644 5
3645 85
3646 4
3647 29
3648 80
3649 29
3650 16
3651 38
3652 29
3653 27
3654 16
3655 38
3656 66
3657 92
3658 30
3659 76
3660 28
3661 79
3662 5
3663 5
3664 3
3665 27
3666 16
3667 31
3668 33
3669 39
3670 12
3671 26
3672 25
3673 39
3674 80
3675 50
3676 52
3677 72
3678 66
3679 75
3680 31
3681 38
3682 17
3683 5
3684 0
3685 66
3686 45
3687 5
3688 8
3689 13
3690 12
3691 72
3692 30
3693 72
3694 27
3695 27
3696 33
3697 40
3698 27
3699 19
3700 42
3701 36
3702 72
3703 47
3704 49
3705 44
3706 17
3707 49
3708 7
3709 2
3710 22
3711 65
3712 74
3713 5
3714 65
3715 27
3716 84
3717 13
3718 16
3719 32
3720 25
3721 29
3722 29
3723 5
3724 29
3725 26
3726 65
3727 33
3728 12
3729 13
3730 25
3731 5
3732 16
3733 23
3734 13
3735 2
3736 65
3737 35
3738 17
3739 72
3740 91
3741 27
3742 15
3743 49
3744 19
3745 68
3746 68
3747 86
3748 38
3749 84
3750 80
3751 40
3752 5
3753 2
3754 76
3755 29
3756 7
3757 16
3758 15
3759 13
3760 5
3761 65
3762 13
3763 29
3764 27
3765 1
3766 37
3767 71
3768 5
3769 87
3770 40
3771 32
3772 66
3773 27
3774 24
3775 85
3776 32
3777 33
3778 66
3779 29
3780 5
3781 72
3782 21
3783 55
3784 66
3785 29
3786 85
3787 92
3788 5
3789 55
3790 29
3791 89
3792 21
3793 48
3794 16
3795 22
3796 81
3797 47
3798 16
3799 15
3800 87
3801 72
3802 80
3803 72
3804 43
3805 65
3806 29
3807 66
3808 29
3809 16
3810 16
3811 17
3812 27
3813 39
3814 2
3815 45
3816 45
3817 55
3818 4
3819 60
3820 0
3821 91
3822 85
3823 14
3824 83
3825 23
3826 66
3827 38
3828 21
3829 2
3830 16
3831 16
3832 39
3833 6
3834 66
3835 39
3836 30
3837 45
3838 29
3839 23
3840 55
3841 82
3842 5
3843 27
3844 48
3845 14
3846 66
3847 83
3848 72
3849 15
3850 16
3851 45
3852 72
3853 38
3854 29
3855 29
3856 15
3857 20
3858 29
3859 74
3860 2
3861 48
3862 38
3863 74
3864 5
3865 7
3866 55
3867 38
3868 6
3869 37
3870 22
3871 72
3872 71
3873 25
3874 4
3875 5
3876 79
3877 38
3878 32
3879 66
3880 5
3881 61
3882 13
3883 32
3884 32
3885 38
3886 6
3887 5
3888 5
3889 6
3890 72
3891 5
3892 7
3893 83
3894 45
3895 32
3896 39
3897 2
3898 29
3899 60
3900 27
3901 60
3902 29
3903 32
3904 27
3905 67
3906 5
3907 29
3908 5
3909 62
3910 48
3911 62
3912 7
3913 5
3914 5
3915 38
3916 79
3917 86
3918 25
3919 13
3920 29
3921 49
3922 75
3923 22
3924 82
3925 95
3926 38
3927 30
3928 45
3929 2
3930 32
3931 33
3932 13
3933 33
3934 85
3935 29
3936 33
3937 66
3938 22
3939 38
3940 72
3941 13
3942 30
3943 39
3944 27
3945 48
3946 27
3947 25
3948 48
3949 25
3950 24
3951 13
3952 33
3953 27
3954 5
3955 5
3956 32
3957 33
3958 72
3959 72
3960 50
3961 22
3962 87
3963 29
3964 5
3965 16
3966 24
3967 72
3968 33
3969 39
3970 45
3971 46
3972 33
3973 6
3974 66
3975 4
3976 29
3977 75
3978 48
3979 2
3980 43
3981 30
3982 27
3983 25
3984 38
3985 26
3986 17
3987 75
3988 72
3989 30
3990 39
3991 25
3992 13
3993 72
3994 30
3995 30
3996 66
3997 5
3998 5
3999 72
4000 80
4001 27
4002 24
4003 5
4004 50
4005 20
4006 33
4007 72
4008 6
4009 41
4010 6
4011 55
4012 6
4013 25
4014 66
4015 29
4016 71
4017 22
4018 83
4019 66
4020 25
4021 23
4022 65
4023 30
4024 22
4025 29
4026 1
4027 29
4028 16
4029 12
4030 72
4031 27
4032 79
4033 25
4034 2
4035 72
4036 48
4037 12
4038 33
4039 27
4040 45
4041 32
4042 2
4043 64
4044 5
4045 2
4046 72
4047 30
4048 27
4049 51
4050 24
4051 29
4052 65
4053 25
4054 5
4055 25
4056 32
4057 67
4058 16
4059 25
4060 6
4061 6
4062 30
4063 48
4064 22
4065 30
4066 6
4067 2
4068 29
4069 27
4070 16
4071 40
4072 75
4073 25
4074 13
4075 29
4076 9
4077 15
4078 29
4079 80
4080 25
4081 65
4082 66
4083 32
4084 5
4085 33
4086 24
4087 50
4088 24
4089 28
4090 16
4091 27
4092 62
4093 45
4094 20
4095 56
4096 9
4097 35
4098 80
4099 40
4100 18
4101 8
4102 44
4103 13
4104 6
4105 80
4106 66
4107 10
4108 49
4109 63
4110 39
4111 39
4112 50
4113 79
4114 16
4115 26
4116 47
4117 17
4118 33
4119 29
4120 24
4121 66
4122 40
4123 6
4124 37
4125 3
4126 51
4127 79
4128 61
4129 9
4130 10
4131 4
4132 74
4133 0
4134 7
4135 27
4136 13
4137 17
4138 30
4139 25
4140 84
4141 74
4142 2
4143 87
4144 6
4145 28
4146 27
4147 65
4148 52
4149 14
4150 31
4151 5
4152 30
4153 1
4154 25
4155 33
4156 37
4157 66
4158 40
4159 78
4160 32
4161 7
4162 85
4163 87
4164 33
4165 24
4166 29
4167 66
4168 33
4169 27
4170 43
4171 57
4172 30
4173 25
4174 25
4175 35
4176 34
4177 87
4178 43
4179 30
4180 36
4181 6
4182 38
4183 77
4184 32
4185 66
4186 27
4187 40
4188 46
4189 22
4190 33
4191 50
4192 70
4193 47
4194 66
4195 37
4196 66
4197 12
4198 5
4199 2
4200 16
4201 29
4202 27
4203 65
4204 14
4205 20
4206 71
4207 59
4208 20
4209 67
4210 45
4211 29
4212 65
4213 87
4214 17
4215 49
4216 52
4217 43
4218 51
4219 9
4220 27
4221 55
4222 27
4223 94
4224 5
4225 66
4226 46
4227 27
4228 17
4229 41
4230 21
4231 6
4232 74
4233 27
4234 70
4235 18
4236 87
4237 14
4238 48
4239 66
4240 75
4241 22
4242 81
4243 20
4244 66
4245 89
4246 9
4247 5
4248 66
4249 68
4250 29
4251 17
4252 31
4253 41
4254 29
4255 77
4256 55
4257 32
4258 20
4259 48
4260 46
4261 33
4262 82
4263 29
4264 9
4265 34
4266 40
4267 62
4268 15
4269 4
4270 87
4271 68
4272 47
4273 66
4274 65
4275 4
4276 72
4277 30
4278 33
4279 84
4280 56
4281 13
4282 66
4283 22
4284 57
4285 27
4286 17
4287 0
4288 55
4289 31
4290 74
4291 12
4292 22
4293 83
4294 27
4295 17
4296 66
4297 51
4298 67
4299 25
4300 17
4301 72
4302 71
4303 6
4304 72
4305 8
4306 72
4307 47
4308 15
4309 30
4310 82
4311 66
4312 33
4313 28
4314 10
4315 23
4316 8
4317 12
4318 14
4319 38
4320 66
4321 91
4322 20
4323 86
4324 62
4325 5
4326 66
4327 36
4328 39
4329 29
4330 53
4331 8
4332 38
4333 79
4334 74
4335 17
4336 80
4337 82
4338 36
4339 75
4340 70
4341 5
4342 39
4343 72
4344 63
4345 33
4346 39
4347 79
4348 56
4349 87
4350 74
4351 50
4352 95
4353 39
4354 39
4355 17
4356 12
4357 91
4358 86
4359 76
4360 77
4361 16
4362 75
4363 10
4364 27
4365 1
4366 12
4367 60
4368 20
4369 26
4370 74
4371 12
4372 70
4373 64
4374 93
4375 81
4376 9
4377 75
4378 51
4379 29
4380 16
4381 50
4382 77
4383 47
4384 27
4385 19
4386 5
4387 11
4388 70
4389 64
4390 60
4391 29
4392 4
4393 72
4394 81
4395 7
4396 22
4397 81
4398 16
4399 79
4400 69
4401 14
4402 29
4403 38
4404 79
4405 63
4406 79
4407 60
4408 19
4409 29
4410 13
4411 50
4412 25
4413 17
4414 29
4415 29
4416 68
4417 19
4418 64
4419 58
4420 66
4421 62
4422 63
4423 65
4424 79
4425 13
4426 17
4427 43
4428 23
4429 29
4430 80
4431 84
4432 5
4433 10
4434 43
4435 33
4436 45
4437 43
4438 11
4439 4
4440 24
4441 12
4442 20
4443 20
4444 65
4445 21
4446 66
4447 11
4448 25
4449 39
4450 83
4451 13
4452 13
4453 72
4454 47
4455 41
4456 57
4457 13
4458 72
4459 13
4460 66
4461 27
4462 5
4463 59
4464 67
4465 7
4466 27
4467 2
4468 82
4469 50
4470 37
4471 23
4472 65
4473 26
4474 72
4475 15
4476 5
4477 60
4478 27
4479 29
4480 62
4481 48
4482 29
4483 32
4484 19
4485 27
4486 14
4487 29
4488 75
4489 27
4490 33
4491 32
4492 45
4493 72
4494 48
4495 45
4496 48
4497 75
4498 13
4499 61
4500 88
4501 72
4502 29
4503 80
4504 13
4505 14
4506 19
4507 2
4508 5
4509 48
4510 32
4511 29
4512 86
4513 84
4514 29
4515 5
4516 5
4517 66
4518 3
4519 19
4520 26
4521 16
4522 39
4523 49
4524 72
4525 2
4526 29
4527 27
4528 26
4529 5
4530 38
4531 27
4532 2
4533 72
4534 2
4535 66
4536 66
4537 3
4538 3
4539 2
4540 68
4541 13
4542 14
4543 50
4544 5
4545 45
4546 77
4547 16
4548 32
4549 38
4550 70
4551 91
4552 70
4553 24
4554 63
4555 65
4556 16
4557 33
4558 32
4559 7
4560 32
4561 47
4562 27
4563 60
4564 27
4565 17
4566 3
4567 5
4568 17
4569 45
4570 17
4571 65
4572 13
4573 72
4574 27
4575 14
4576 2
4577 30
4578 43
4579 95
4580 13
4581 12
4582 1
4583 72
4584 44
4585 28
4586 33
4587 90
4588 2
4589 11
4590 29
4591 66
4592 47
4593 2
4594 46
4595 16
4596 79
4597 66
4598 27
4599 48
4600 30
4601 81
4602 47
4603 38
4604 46
4605 33
4606 5
4607 32
4608 15
4609 39
4610 22
4611 75
4612 9
4613 8
4614 5
4615 10
4616 11
4617 2
4618 40
4619 12
4620 14
4621 63
4622 36
4623 2
4624 64
4625 80
4626 45
4627 68
4628 66
4629 38
4630 66
4631 64
4632 68
4633 66
4634 61
4635 5
4636 66
4637 29
4638 65
4639 66
4640 30
4641 38
4642 9
4643 45
4644 47
4645 64
4646 81
4647 35
4648 72
4649 35
4650 66
4651 66
4652 40
4653 53
4654 60
4655 30
4656 67
4657 33
4658 64
4659 81
4660 12
4661 38
4662 26
4663 34
4664 88
4665 72
4666 16
4667 7
4668 66
4669 10
4670 47
4671 5
4672 5
4673 60
4674 12
4675 13
4676 19
4677 22
4678 23
4679 4
4680 33
4681 66
4682 40
4683 47
4684 5
4685 12
4686 33
4687 29
4688 5
4689 16
4690 8
4691 43
4692 60
4693 24
4694 39
4695 66
4696 13
4697 45
4698 22
4699 67
4700 24
4701 38
4702 71
4703 33
4704 24
4705 12
4706 5
4707 43
4708 66
4709 13
4710 18
4711 30
4712 40
4713 14
4714 33
4715 72
4716 25
4717 4
4718 87
4719 33
4720 60
4721 20
4722 29
4723 66
4724 6
4725 2
4726 24
4727 66
4728 17
4729 25
4730 62
4731 72
4732 7
4733 13
4734 72
4735 60
4736 29
4737 29
4738 68
4739 5
4740 16
4741 32
4742 16
4743 4
4744 5
4745 5
4746 21
4747 13
4748 33
4749 66
4750 74
4751 15
4752 24
4753 2
4754 5
4755 55
4756 48
4757 32
4758 68
4759 84
4760 15
4761 29
4762 62
4763 27
4764 16
4765 33
4766 33
4767 25
4768 74
4769 38
4770 37
4771 66
4772 27
4773 62
4774 24
4775 32
4776 48
4777 17
4778 66
4779 66
4780 2
4781 73
4782 16
4783 49
4784 66
4785 15
4786 14
4787 55
4788 5
4789 83
4790 29
4791 66
4792 19
4793 29
4794 72
4795 5
4796 82
4797 33
4798 17
4799 29
4800 30
4801 4
4802 24
4803 66
4804 13
4805 68
4806 33
4807 13
4808 2
4809 29
4810 27
4811 4
4812 72
4813 76
4814 29
4815 22
4816 15
4817 29
4818 59
4819 43
4820 5
4821 45
4822 66
4823 11
4824 9
4825 43
4826 90
4827 29
4828 48
4829 72
4830 10
4831 29
4832 5
4833 72
4834 8
4835 27
4836 4
4837 66
4838 45
4839 46
4840 20
4841 17
4842 29
4843 53
4844 9
4845 2
4846 8
4847 51
4848 48
4849 39
4850 65
4851 15
4852 29
4853 45
4854 72
4855 29
4856 29
4857 5
4858 8
4859 16
4860 45
4861 18
4862 38
4863 8
4864 1
4865 79
4866 29
4867 55
4868 32
4869 30
4870 65
4871 5
4872 86
4873 5
4874 68
4875 27
4876 66
4877 16
4878 13
4879 62
4880 48
4881 64
4882 38
4883 65
4884 57
4885 45
4886 17
4887 33
4888 5
4889 8
4890 29
4891 87
4892 45
4893 62
4894 2
4895 47
4896 29
4897 9
4898 27
4899 17
4900 91
4901 5
4902 2
4903 30
4904 38
4905 9
4906 5
4907 48
4908 62
4909 72
4910 32
4911 72
4912 27
4913 86
4914 32
4915 29
4916 38
4917 33
4918 16
4919 7
4920 16
4921 25
4922 29
4923 51
4924 61
4925 33
4926 75
4927 25
4928 2
4929 27
4930 30
4931 11
4932 29
4933 30
4934 6
4935 45
4936 27
4937 8
4938 65
4939 29
4940 72
4941 16
4942 87
4943 25
4944 47
4945 27
4946 39
4947 5
4948 43
4949 92
4950 29
4951 5
4952 30
4953 47
4954 72
4955 86
4956 2
4957 79
4958 33
4959 9
4960 16
4961 32
4962 5
4963 29
4964 33
4965 75
4966 32
4967 30
4968 24
4969 27
4970 20
4971 32
4972 45
4973 45
4974 30
4975 8
4976 33
4977 28
4978 45
4979 5
4980 75
4981 33
4982 51
4983 48
4984 29
4985 22
4986 2
4987 22
4988 80
4989 33
4990 22
4991 32
4992 29
4993 25
4994 6
4995 17
4996 29
4997 24
4998 27
4999 5
5000 45
5001 38
5002 30
5003 82
5004 38
5005 6
5006 45
5007 6
5008 72
5009 4
5010 17
5011 22
5012 25
5013 29
5014 13
5015 45
5016 32
5017 29
5018 38
5019 2
5020 6
5021 16
5022 46
5023 30
5024 27
5025 33
5026 79
5027 66
5028 2
5029 66
5030 5
5031 65
5032 47
5033 30
5034 24
5035 6
5036 75
5037 25
5038 31
5039 20
5040 65
5041 13
5042 74
5043 91
5044 2
5045 25
5046 2
5047 29
5048 29
5049 13
5050 38
5051 66
5052 3
5053 5
5054 33
5055 33
5056 5
5057 72
5058 48
5059 87
5060 14
5061 66
5062 33
5063 5
5064 74
5065 64
5066 5
5067 30
5068 24
5069 63
5070 32
5071 66
5072 31
5073 72
5074 48
5075 13
5076 32
5077 47
5078 30
5079 2
5080 23
5081 6
5082 13
5083 33
5084 28
5085 72
5086 23
5087 32
5088 6
5089 72
5090 13
5091 47
5092 48
5093 36
5094 93
5095 20
5096 25
5097 13
5098 5
5099 5
5100 26
5101 16
5102 80
5103 24
5104 20
5105 27
5106 45
5107 29
5108 45
5109 38
5110 25
5111 29
5112 35
5113 25
5114 5
5115 72
5116 9
5117 20
5118 40
5119 22
5120 37
5121 66
5122 37
5123 88
5124 28
5125 30
5126 27
5127 2
5128 60
5129 5
5130 42
5131 55
5132 33
5133 28
5134 66
5135 72
5136 85
5137 32
5138 82
5139 40
5140 27
5141 5
5142 51
5143 38
5144 72
5145 24
5146 48
5147 14
5148 10
5149 49
5150 34
5151 2
5152 23
5153 62
5154 22
5155 70
5156 7
5157 66
5158 72
5159 75
5160 33
5161 33
5162 87
5163 85
5164 12
5165 78
5166 33
5167 79
5168 37
5169 10
5170 20
5171 30
5172 72
5173 83
5174 6
5175 24
5176 14
5177 2
5178 56
5179 6
5180 57
5181 31
5182 42
5183 2
5184 4
5185 16
5186 37
5187 69
5188 3
5189 24
5190 37
5191 66
5192 41
5193 24
5194 32
5195 19
5196 5
5197 71
5198 86
5199 22
5200 27
5201 49
5202 39
5203 16
5204 29
5205 5
5206 29
5207 15
5208 3
5209 66
5210 76
5211 13
5212 66
5213 16
5214 5
5215 25
5216 90
5217 14
5218 81
5219 86
5220 78
5221 45
5222 27
5223 60
5224 84
5225 27
5226 24
5227 25
5228 7
5229 29
5230 17
5231 26
5232 16
5233 68
5234 5
5235 65
5236 89
5237 60
5238 2
5239 82
5240 70
5241 5
5242 87
5243 5
5244 89
5245 82
5246 72
5247 33
5248 60
5249 33
5250 44
5251 22
5252 27
5253 25
5254 13
5255 5
5256 6
5257 38
5258 62
5259 72
5260 2
5261 41
5262 45
5263 5
5264 72
5265 33
5266 35
5267 2
5268 56
5269 2
5270 84
5271 5
5272 65
5273 25
5274 10
5275 47
5276 21
5277 87
5278 29
5279 12
5280 87
5281 13
5282 7
5283 17
5284 72
5285 72
5286 64
5287 21
5288 32
5289 83
5290 70
5291 72
5292 7
5293 33
5294 16
5295 51
5296 5
5297 33
5298 5
5299 72
5300 7
5301 3
5302 33
5303 6
5304 5
5305 72
5306 38
5307 29
5308 5
5309 83
5310 5
5311 91
5312 68
5313 29
5314 2
5315 41
5316 24
5317 12
5318 83
5319 2
5320 80
5321 2
5322 13
5323 55
5324 11
5325 66
5326 66
5327 15
5328 64
5329 15
5330 22
5331 5
5332 36
5333 4
5334 2
5335 66
5336 33
5337 2
5338 17
5339 33
5340 81
5341 89
5342 16
5343 12
5344 14
5345 5
5346 2
5347 95
5348 39
5349 38
5350 5
5351 50
5352 72
5353 83
5354 87
5355 75
5356 33
5357 19
5358 29
5359 62
5360 28
5361 60
5362 5
5363 60
5364 33
5365 0
5366 33
5367 65
5368 70
5369 83
5370 35
5371 5
5372 62
5373 7
5374 82
5375 4
5376 33
5377 72
5378 8
5379 72
5380 66
5381 77
5382 3
5383 79
5384 25
5385 46
5386 2
5387 24
5388 72
5389 37
5390 7
5391 60
5392 5
5393 65
5394 26
5395 33
5396 2
5397 29
5398 2
5399 29
5400 55
5401 6
5402 47
5403 5
5404 62
5405 5
5406 4
5407 13
5408 16
5409 33
5410 13
5411 32
5412 14
5413 39
5414 55
5415 66
5416 1
5417 32
5418 8
5419 65
5420 66
5421 82
5422 25
5423 5
5424 46
5425 16
5426 2
5427 69
5428 83
5429 29
5430 72
5431 63
5432 5
5433 77
5434 39
5435 20
5436 70
5437 29
5438 80
5439 16
5440 7
5441 17
5442 47
5443 6
5444 15
5445 66
5446 13
5447 15
5448 89
5449 66
5450 2
5451 29
5452 83
5453 33
5454 45
5455 7
5456 19
5457 45
5458 45
5459 41
5460 16
5461 13
5462 45
5463 29
5464 65
5465 29
5466 5
5467 12
5468 11
5469 5
5470 2
5471 7
5472 29
5473 28
5474 72
5475 89
5476 64
5477 29
5478 30
5479 5
5480 72
5481 11
5482 94
5483 27
5484 65
5485 40
5486 47
5487 5
5488 44
5489 45
5490 66
5491 16
5492 29
5493 29
5494 33
5495 47
5496 13
5497 2
5498 2
5499 0
5500 28
5501 15
5502 66
5503 70
5504 16
5505 5
5506 27
5507 2
5508 60
5509 66
5510 39
5511 32
5512 5
5513 5
5514 16
5515 5
5516 45
5517 41
5518 72
5519 22
5520 66
5521 48
5522 29
5523 63
5524 47
5525 33
5526 15
5527 35
5528 13
5529 72
5530 50
5531 5
5532 5
5533 45
5534 48
5535 3
5536 29
5537 4
5538 37
5539 29
5540 77
5541 16
5542 66
5543 66
5544 16
5545 34
5546 6
5547 5
5548 4
5549 90
5550 13
5551 32
5552 0
5553 33
5554 27
5555 27
5556 48
5557 64
5558 30
5559 29
5560 56
5561 16
5562 30
5563 13
5564 14
5565 85
5566 37
5567 5
5568 21
5569 33
5570 73
5571 17
5572 64
5573 65
5574 27
5575 85
5576 30
5577 50
5578 50
5579 32
5580 29
5581 90
5582 72
5583 30
5584 86
5585 81
5586 28
5587 37
5588 38
5589 13
5590 4
5591 2
5592 81
5593 16
5594 55
5595 27
5596 66
5597 24
5598 65
5599 74
5600 15
5601 72
5602 61
5603 2
5604 24
5605 60
5606 69
5607 19
5608 64
5609 82
5610 90
5611 13
5612 72
5613 48
5614 49
5615 43
5616 28
5617 29
5618 5
5619 27
5620 35
5621 16
5622 70
5623 4
5624 33
5625 48
5626 33
5627 27
5628 28
5629 5
5630 63
5631 40
5632 3
5633 30
5634 12
5635 14
5636 70
5637 85
5638 19
5639 74
5640 72
5641 70
5642 17
5643 49
5644 72
5645 79
5646 24
5647 18
5648 45
5649 46
5650 48
5651 7
5652 19
5653 32
5654 79
5655 86
5656 19
5657 18
5658 21
5659 40
5660 82
5661 47
5662 29
5663 17
5664 33
5665 32
5666 2
5667 36
5668 45
5669 20
5670 85
5671 2
5672 14
5673 29
5674 7
5675 72
5676 32
5677 38
5678 0
5679 66
5680 66
5681 61
5682 87
5683 22
5684 48
5685 60
5686 47
5687 11
5688 38
5689 32
5690 30
5691 64
5692 38
5693 75
5694 66
5695 22
5696 66
5697 12
5698 5
5699 72
5700 14
5701 66
5702 48
5703 4
5704 29
5705 57
5706 66
5707 2
5708 40
5709 29
5710 16
5711 66
5712 29
5713 5
5714 13
5715 65
5716 12
5717 70
5718 66
5719 47
5720 13
5721 30
5722 22
5723 57
5724 78
5725 43
5726 49
5727 32
5728 24
5729 72
5730 48
5731 16
5732 33
5733 75
5734 5
5735 9
5736 29
5737 75
5738 29
5739 5
5740 72
5741 30
5742 72
5743 72
5744 17
5745 22
5746 9
5747 33
5748 66
5749 47
5750 60
5751 33
5752 66
5753 4
5754 6
5755 7
5756 29
5757 2
5758 33
5759 30
5760 7
5761 81
5762 16
5763 29
5764 32
5765 29
5766 70
5767 3
5768 66
5769 33
5770 29
5771 27
5772 13
5773 74
5774 27
5775 32
5776 2
5777 72
5778 43
5779 17
5780 22
5781 66
5782 19
5783 27
5784 49
5785 66
5786 13
5787 5
5788 56
5789 90
5790 0
5791 5
5792 62
5793 36
5794 39
5795 5
5796 66
5797 29
5798 16
5799 23
5800 66
5801 16
5802 49
5803 29
5804 48
5805 43
5806 16
5807 40
5808 24
5809 28
5810 39
5811 5
5812 2
5813 45
5814 48
5815 27
5816 27
5817 5
5818 45
5819 48
5820 29
5821 29
5822 16
5823 13
5824 5
5825 80
5826 20
5827 29
5828 7
5829 87
5830 27
5831 22
5832 5
5833 30
5834 7
5835 45
5836 27
5837 72
5838 9
5839 9
5840 8
5841 15
5842 2
5843 23
5844 33
5845 23
5846 27
5847 16
5848 72
5849 29
5850 83
5851 80
5852 33
5853 13
5854 16
5855 33
5856 68
5857 48
5858 12
5859 48
5860 5
5861 38
5862 38
5863 29
5864 55
5865 13
5866 48
5867 66
5868 90
5869 24
5870 32
5871 75
5872 2
5873 29
5874 5
5875 13
5876 72
5877 43
5878 29
5879 5
5880 5
5881 15
5882 29
5883 29
5884 29
5885 62
5886 21
5887 38
5888 30
5889 33
5890 38
5891 2
5892 32
5893 75
5894 72
5895 85
5896 16
5897 33
5898 33
5899 25
5900 91
5901 13
5902 27
5903 12
5904 77
5905 5
5906 14
5907 5
5908 8
5909 19
5910 30
5911 32
5912 29
5913 33
5914 5
5915 29
5916 22
5917 27
5918 13
5919 34
5920 88
5921 29
5922 5
5923 25
5924 25
5925 39
5926 77
5927 38
5928 27
5929 5
5930 30
5931 66
5932 65
5933 25
5934 30
5935 25
5936 48
5937 20
5938 33
5939 27
5940 25
5941 16
5942 38
5943 1
5944 30
5945 30
5946 75
5947 33
5948 64
5949 51
5950 27
5951 60
5952 48
5953 27
5954 65
5955 33
5956 5
5957 6
5958 45
5959 27
5960 17
5961 48
5962 38
5963 66
5964 80
5965 71
5966 89
5967 5
5968 2
5969 6
5970 45
5971 29
5972 32
5973 25
5974 5
5975 29
5976 75
5977 72
5978 29
5979 13
5980 75
5981 2
5982 45
5983 6
5984 16
5985 27
5986 27
5987 84
5988 38
5989 65
5990 27
5991 27
5992 72
5993 13
5994 27
5995 5
5996 48
5997 72
5998 30
5999 5
6000 48
6001 29
6002 45
6003 32
6004 13
6005 38
6006 20
6007 12
6008 20
6009 45
6010 27
6011 69
6012 72
6013 29
6014 5
6015 32
6016 15
6017 6
6018 66
6019 2
6020 47
6021 39
6022 2
6023 24
6024 7
6025 57
6026 72
6027 33
6028 2
6029 47
6030 48
6031 19
6032 27
6033 22
6034 31
6035 25
6036 4
6037 20
6038 45
6039 72
6040 48
6041 2
6042 2
6043 33
6044 7
6045 48
6046 75
6047 29
6048 2
6049 13
6050 33
6051 50
6052 1
6053 84
6054 20
6055 66
6056 25
6057 48
6058 1
6059 27
6060 82
6061 14
6062 5
6063 24
6064 55
6065 84
6066 47
6067 22
6068 83
6069 22
6070 85
6071 2
6072 89
6073 32
6074 16
6075 30
6076 25
6077 72
6078 29
6079 12
6080 4
6081 80
6082 34
6083 29
6084 15
6085 5
6086 25
6087 29
6088 48
6089 45
6090 27
6091 6
6092 37
6093 1
6094 19
6095 71
6096 13
6097 66
6098 32
6099 29
6100 7
6101 5
6102 30
6103 5
6104 16
6105 18
6106 33
6107 75
6108 13
6109 83
6110 72
6111 29
6112 22
6113 5
6114 27
6115 29
6116 48
6117 72
6118 27
6119 89
6120 86
6121 5
6122 20
6123 82
6124 5
6125 25
6126 32
6127 2
6128 5
6129 64
6130 22
6131 5
6132 29
6133 48
6134 16
6135 29
6136 29
6137 45
6138 33
6139 47
6140 36
6141 20
6142 38
6143 5
6144 5
6145 38
6146 86
6147 5
6148 3
6149 70
6150 38
6151 27
6152 30
6153 3
6154 20
6155 95
6156 56
6157 91
6158 82
6159 84
6160 25
6161 33
6162 22
6163 92
6164 77
6165 64
6166 24
6167 22
6168 47
6169 87
6170 8
6171 20
6172 24
6173 11
6174 54
6175 66
6176 45
6177 32
6178 29
6179 58
6180 80
6181 66
6182 57
6183 9
6184 70
6185 23
6186 29
6187 24
6188 5
6189 16
6190 48
6191 1
6192 66
6193 8
6194 40
6195 4
6196 50
6197 93
6198 2
6199 9
6200 87
6201 27
6202 9
6203 44
6204 60
6205 42
6206 85
6207 7
6208 5
6209 22
6210 27
6211 13
6212 41
6213 3
6214 9
6215 66
6216 25
6217 86
6218 27
6219 16
6220 60
6221 60
6222 35
6223 45
6224 27
6225 48
6226 27
6227 4
6228 4
6229 66
6230 83
6231 20
6232 12
6233 66
6234 30
6235 66
6236 64
6237 2
6238 65
6239 20
6240 79
6241 19
6242 32
6243 81
6244 6
6245 22
6246 46
6247 2
6248 66
6249 24
6250 4
6251 26
6252 7
6253 62
6254 27
6255 47
6256 6
6257 60
6258 24
6259 27
6260 0
6261 6
6262 7
6263 71
6264 87
6265 62
6266 13
6267 29
6268 34
6269 70
6270 53
6271 27
6272 20
6273 4
6274 7
6275 27
6276 6
6277 16
6278 2
6279 7
6280 62
6281 56
6282 84
6283 32
6284 29
6285 24
6286 7
6287 66
6288 64
6289 66
6290 30
6291 19
6292 62
6293 77
6294 43
6295 26
6296 84
6297 8
6298 64
6299 5
6300 47
6301 19
6302 41
6303 66
6304 40
6305 26
6306 13
6307 20
6308 74
6309 38
6310 62
6311 62
6312 4
6313 51
6314 14
6315 23
6316 26
6317 74
6318 27
6319 32
6320 55
6321 27
6322 1
6323 10
6324 15
6325 75
6326 46
6327 48
6328 80
6329 89
6330 15
6331 72
6332 65
6333 85
6334 66
6335 80
6336 33
6337 22
6338 22
6339 83
6340 51
6341 87
6342 3
6343 44
6344 14
6345 62
6346 7
6347 32
6348 41
6349 51
6350 72
6351 7
6352 66
6353 51
6354 50
6355 83
6356 38
6357 32
6358 13
6359 90
6360 23
6361 29
6362 86
6363 4
6364 77
6365 8
6366 47
6367 26
6368 33
6369 66
6370 79
6371 65
6372 66
6373 44
6374 22
6375 20
6376 81
6377 47
6378 72
6379 19
6380 14
6381 32
6382 22
6383 65
6384 30
6385 39
6386 72
6387 7
6388 23
6389 43
6390 66
6391 84
6392 32
6393 65
6394 20
6395 46
6396 90
6397 8
6398 36
6399 75
6400 14
6401 46
6402 80
6403 17
6404 50
6405 66
6406 69
6407 18
6408 23
6409 83
6410 17
6411 43
6412 5
6413 24
6414 25
6415 64
6416 3
6417 39
6418 68
6419 29
6420 55
6421 51
6422 29
6423 31
6424 77
6425 33
6426 1
6427 63
6428 27
6429 77
6430 84
6431 29
6432 38
6433 80
6434 16
6435 4
6436 4
6437 12
6438 66
6439 25
6440 78
6441 75
6442 10
6443 23
6444 47
6445 35
6446 56
6447 50
6448 5
6449 58
6450 16
6451 29
6452 4
6453 8
6454 80
6455 16
6456 27
6457 34
6458 64
6459 32
6460 1
6461 86
6462 24
6463 20
6464 57
6465 63
6466 29
6467 13
6468 13
6469 41
6470 83
6471 56
6472 16
6473 62
6474 5
6475 46
6476 66
6477 51
6478 6
6479 93
6480 16
6481 5
6482 68
6483 15
6484 60
6485 86
6486 93
6487 41
6488 82
6489 16
6490 20
6491 33
6492 6
6493 29
6494 16
6495 84
6496 80
6497 86
6498 29
6499 82
6500 16
6501 31
6502 29
6503 24
6504 41
6505 89
6506 30
6507 28
6508 6
6509 9
6510 6
6511 56
6512 62
6513 60
6514 82
6515 17
6516 19
6517 20
6518 75
6519 66
6520 50
6521 12
6522 45
6523 13
6524 43
6525 48
6526 8
6527 72
6528 33
6529 51
6530 39
6531 64
6532 32
6533 27
6534 67
6535 34
6536 71
6537 43
6538 28
6539 16
6540 62
6541 13
6542 91
6543 29
6544 75
6545 47
6546 66
6547 79
6548 77
6549 16
6550 46
6551 75
6552 8
6553 32
6554 16
6555 22
6556 4
6557 16
6558 16
6559 21
6560 91
6561 5
6562 32
6563 39
6564 15
6565 83
6566 45
6567 25
6568 13
6569 72
6570 1
6571 72
6572 79
6573 48
6574 66
6575 79
6576 15
6577 27
6578 15
6579 36
6580 5
6581 16
6582 30
6583 66
6584 48
6585 72
6586 43
6587 72
6588 65
6589 45
6590 32
6591 13
6592 5
6593 83
6594 48
6595 60
6596 75
6597 27
6598 2
6599 33
6600 69
6601 24
6602 27
6603 66
6604 29
6605 72
6606 2
6607 71
6608 16
6609 30
6610 32
6611 28
6612 50
6613 32
6614 5
6615 7
6616 12
6617 64
6618 32
6619 27
6620 43
6621 7
6622 33
6623 12
6624 22
6625 0
6626 33
6627 16
6628 24
6629 48
6630 8
6631 2
6632 27
6633 43
6634 49
6635 83
6636 72
6637 9
6638 3
6639 16
6640 22
6641 2
6642 13
6643 1
6644 20
6645 38
6646 32
6647 94
6648 13
6649 30
6650 5
6651 39
6652 23
6653 42
6654 32
6655 21
6656 90
6657 65
6658 84
6659 66
6660 0
6661 65
6662 70
6663 45
6664 13
6665 15
6666 45
6667 86
6668 33
6669 66
6670 13
6671 72
6672 2
6673 22
6674 72
6675 5
6676 26
6677 70
6678 66
6679 33
6680 24
6681 23
6682 2
6683 12
6684 12
6685 65
6686 39
6687 12
6688 66
6689 7
6690 33
6691 12
6692 38
6693 68
6694 29
6695 33
6696 72
6697 61
6698 30
6699 82
6700 24
6701 80
6702 5
6703 39
6704 72
6705 79
6706 60
6707 72
6708 51
6709 14
6710 88
6711 35
6712 72
6713 29
6714 36
6715 82
6716 66
6717 2
6718 40
6719 4
6720 13
6721 76
6722 2
6723 40
6724 66
6725 33
6726 2
6727 30
6728 14
6729 50
6730 71
6731 16
6732 40
6733 5
6734 39
6735 9
6736 13
6737 89
6738 40
6739 1
6740 5
6741 27
6742 72
6743 5
6744 88
6745 5
6746 27
6747 17
6748 34
6749 5
6750 5
6751 81
6752 40
6753 25
6754 4
6755 68
6756 37
6757 22
6758 39
6759 82
6760 5
6761 46
6762 7
6763 13
6764 33
6765 66
6766 20
6767 66
6768 55
6769 29
6770 5
6771 36
6772 16
6773 5
6774 4
6775 72
6776 5
6777 7
6778 27
6779 3
6780 65
6781 16
6782 66
6783 38
6784 51
6785 81
6786 72
6787 0
6788 40
6789 5
6790 76
6791 29
6792 17
6793 29
6794 60
6795 17
6796 33
6797 29
6798 17
6799 7
6800 33
6801 66
6802 93
6803 20
6804 1
6805 32
6806 32
6807 64
6808 2
6809 41
6810 51
6811 33
6812 5
6813 6
6814 9
6815 7
6816 72
6817 70
6818 27
6819 60
6820 13
6821 27
6822 5
6823 30
6824 48
6825 33
6826 20
6827 13
6828 33
6829 74
6830 45
6831 16
6832 80
6833 33
6834 32
6835 55
6836 72
6837 38
6838 5
6839 72
6840 81
6841 80
6842 8
6843 20
6844 29
6845 62
6846 32
6847 64
6848 32
6849 45
6850 81
6851 55
6852 32
6853 20
6854 15
6855 29
6856 72
6857 11
6858 5
6859 27
6860 2
6861 32
6862 85
6863 27
6864 27
6865 70
6866 45
6867 19
6868 20
6869 83
6870 15
6871 33
6872 47
6873 72
6874 61
6875 80
6876 22
6877 12
6878 51
6879 65
6880 45
6881 13
6882 66
6883 24
6884 13
6885 83
6886 70
6887 25
6888 39
6889 13
6890 32
6891 5
6892 48
6893 38
6894 14
6895 77
6896 91
6897 82
6898 65
6899 79
6900 22
6901 43
6902 62
6903 48
6904 72
6905 32
6906 1
6907 79
6908 66
6909 27
6910 29
6911 21
6912 29
6913 72
6914 29
6915 28
6916 66
6917 32
6918 27
6919 38
6920 29
6921 45
6922 72
6923 32
6924 72
6925 22
6926 29
6927 23
6928 66
6929 6
6930 35
6931 38
6932 33
6933 72
6934 29
6935 72
6936 5
6937 5
6938 29
6939 7
6940 33
6941 15
6942 29
6943 38
6944 29
6945 17
6946 27
6947 29
6948 38
6949 83
6950 14
6951 45
6952 62
6953 29
6954 45
6955 29
6956 16
6957 64
6958 29
6959 85
6960 32
6961 22
6962 29
6963 72
6964 13
6965 38
6966 27
6967 25
6968 11
6969 33
6970 27
6971 16
6972 22
6973 8
6974 16
6975 33
6976 48
6977 55
6978 89
6979 45
6980 25
6981 72
6982 72
6983 38
6984 8
6985 48
6986 2
6987 5
6988 32
6989 6
6990 27
6991 27
6992 52
6993 30
6994 5
6995 16
6996 6
6997 7
6998 45
6999 63
7000 66
7001 39
7002 45
7003 81
7004 27
7005 5
7006 5
7007 25
7008 80
7009 32
7010 32
7011 45
7012 25
7013 27
7014 38
7015 13
7016 47
7017 37
7018 39
7019 16
7020 38
7021 5
7022 16
7023 79
7024 33
7025 37
7026 22
7027 16
7028 5
7029 66
7030 13
7031 13
7032 5
7033 16
7034 60
7035 66
7036 27
7037 6
7038 29
7039 29
7040 24
7041 25
7042 33
7043 32
7044 27
7045 75
7046 45
7047 16
7048 30
7049 30
7050 13
7051 25
7052 0
7053 6
7054 48
7055 89
7056 29
7057 80
7058 51
7059 29
7060 77
7061 2
7062 32
7063 77
7064 2
7065 75
7066 33
7067 5
7068 27
7069 40
7070 1
7071 65
7072 25
7073 59
7074 33
7075 6
7076 29
7077 32
7078 16
7079 51
7080 0
7081 81
7082 60
7083 22
7084 72
7085 4
7086 14
7087 36
7088 13
7089 65
7090 8
7091 79
7092 72
7093 2
7094 24
7095 23
7096 2
7097 13
7098 47
7099 29
7100 38
7101 20
7102 2
7103 29
7104 38
7105 29
7106 29
7107 33
7108 85
7109 30
7110 33
7111 30
7112 5
7113 6
7114 70
7115 36
7116 90
7117 6
7118 27
7119 6
7120 16
7121 32
7122 29
7123 22
7124 13
7125 38
7126 2
7127 28
7128 32
7129 6
7130 2
7131 36
7132 27
7133 32
7134 20
7135 83
7136 27
7137 26
7138 79
7139 6
7140 33
7141 79
7142 33
7143 72
7144 29
7145 5
7146 32
7147 59
7148 5
7149 6
7150 32
7151 33
7152 67
7153 16
7154 6
7155 9
7156 43
7157 82
7158 29
7159 0
7160 6
7161 49
7162 17
7163 25
7164 24
7165 87
7166 13
7167 30
7168 65
7169 23
7170 35
7171 56
7172 30
7173 17
7174 70
7175 66
7176 61
7177 18
7178 37
7179 40
7180 33
7181 34
7182 55
7183 36
7184 77
7185 33
7186 48
7187 2
7188 14
7189 20
7190 45
7191 62
7192 65
7193 85
7194 32
7195 4
7196 63
7197 53
7198 16
7199 6
7200 29
7201 76
7202 19
7203 5
7204 76
7205 72
7206 87
7207 12
7208 70
7209 61
7210 24
7211 80
7212 40
7213 60
7214 6
7215 30
7216 40
7217 77
7218 65
7219 16
7220 5
7221 3
7222 32
7223 24
7224 62
7225 31
7226 5
7227 16
7228 5
7229 16
7230 27
7231 20
7232 42
7233 5
7234 25
7235 13
7236 5
7237 29
7238 45
7239 13
7240 0
7241 16
7242 72
7243 41
7244 36
7245 75
7246 72
7247 5
7248 14
7249 6
7250 33
7251 87
7252 64
7253 33
7254 2
7255 29
7256 13
7257 63
7258 12
7259 27
7260 38
7261 44
7262 30
7263 33
7264 16
7265 82
7266 2
7267 12
7268 13
7269 5
7270 25
7271 4
7272 27
7273 60
7274 70
7275 45
7276 16
7277 40
7278 59
7279 29
7280 66
7281 20
7282 72
7283 5
7284 5
7285 44
7286 16
7287 29
7288 67
7289 29
7290 17
7291 49
7292 7
7293 29
7294 5
7295 62
7296 17
7297 17
7298 33
7299 6
7300 33
7301 33
7302 66
7303 5
7304 65
7305 20
7306 60
7307 6
7308 30
7309 57
7310 29
7311 72
7312 5
7313 20
7314 59
7315 36
7316 45
7317 33
7318 33
7319 53
7320 25
7321 1
7322 62
7323 9
7324 70
7325 15
7326 72
7327 57
7328 24
7329 25
7330 65
7331 33
7332 37
7333 66
7334 5
7335 93
7336 13
7337 66
7338 68
7339 25
7340 7
7341 80
7342 2
7343 29
7344 80
7345 51
7346 52
7347 62
7348 22
7349 42
7350 13
7351 13
7352 5
7353 30
7354 15
7355 13
7356 38
7357 28
7358 57
7359 33
7360 70
7361 24
7362 58
7363 67
7364 16
7365 5
7366 69
7367 60
7368 2
7369 65
7370 5
7371 22
7372 13
7373 50
7374 25
7375 17
7376 5
7377 16
7378 20
7379 70
7380 30
7381 6
7382 33
7383 15
7384 82
7385 6
7386 33
7387 13
7388 12
7389 81
7390 33
7391 15
7392 49
7393 3
7394 10
7395 29
7396 32
7397 24
7398 66
7399 17
7400 72
7401 0
7402 17
7403 85
7404 53
7405 35
7406 79
7407 72
7408 5
7409 17
7410 16
7411 12
7412 2
7413 80
7414 13
7415 36
7416 33
7417 0
7418 23
7419 27
7420 29
7421 5
7422 36
7423 7
7424 48
7425 22
7426 72
7427 71
7428 62
7429 39
7430 82
7431 72
7432 29
7433 46
7434 66
7435 65
7436 36
7437 39
7438 8
7439 0
7440 40
7441 7
7442 29
7443 31
7444 85
7445 35
7446 55
7447 63
7448 39
7449 55
7450 45
7451 31
7452 60
7453 5
7454 72
7455 72
7456 34
7457 12
7458 13
7459 7
7460 65
7461 5
7462 22
7463 19
7464 33
7465 74
7466 61
7467 7
7468 29
7469 11
7470 40
7471 79
7472 33
7473 91
7474 5
7475 5
7476 5
7477 64
7478 13
7479 27
7480 85
7481 81
7482 14
7483 13
7484 57
7485 16
7486 9
7487 27
7488 2
7489 81
7490 45
7491 65
7492 28
7493 35
7494 29
7495 75
7496 70
7497 27
7498 29
7499 24
7500 65
7501 9
7502 32
7503 61
7504 51
7505 7
7506 41
7507 89
7508 20
7509 0
7510 83
7511 48
7512 5
7513 5
7514 29
7515 40
7516 11
7517 66
7518 57
7519 5
7520 45
7521 66
7522 55
7523 82
7524 64
7525 64
7526 16
7527 66
7528 15
7529 54
7530 94
7531 29
7532 33
7533 60
7534 2
7535 30
7536 75
7537 68
7538 47
7539 16
7540 68
7541 48
7542 53
7543 29
7544 77
7545 47
7546 32
7547 65
7548 23
7549 7
7550 12
7551 50
7552 48
7553 33
7554 32
7555 55
7556 5
7557 39
7558 68
7559 0
7560 33
7561 16
7562 33
7563 50
7564 27
7565 39
7566 65
7567 5
7568 16
7569 79
7570 33
7571 2
7572 32
7573 47
7574 2
7575 49
7576 39
7577 82
7578 48
7579 27
7580 5
7581 2
7582 14
7583 5
7584 45
7585 29
7586 31
7587 31
7588 27
7589 37
7590 48
7591 90
7592 45
7593 37
7594 2
7595 29
7596 2
7597 79
7598 30
7599 13
7600 16
7601 15
7602 51
7603 19
7604 33
7605 32
7606 32
7607 4
7608 13
7609 82
7610 33
7611 61
7612 33
7613 72
7614 27
7615 72
7616 0
7617 4
7618 16
7619 30
7620 39
7621 91
7622 38
7623 23
7624 36
7625 23
7626 60
7627 66
7628 49
7629 38
7630 27
7631 8
7632 4
7633 45
7634 2
7635 39
7636 38
7637 17
7638 65
7639 39
7640 16
7641 83
7642 29
7643 49
7644 45
7645 27
7646 4
7647 32
7648 5
7649 36
7650 5
7651 75
7652 45
7653 23
7654 72
7655 32
7656 33
7657 10
7658 22
7659 37
7660 23
7661 82
7662 45
7663 29
7664 38
7665 27
7666 29
7667 59
7668 29
7669 32
7670 30
7671 1
7672 32
7673 38
7674 90
7675 86
7676 21
7677 77
7678 66
7679 82
7680 29
7681 40
7682 27
7683 80
7684 48
7685 72
7686 24
7687 16
7688 63
7689 47
7690 27
7691 87
7692 3
7693 33
7694 81
7695 72
7696 4
7697 18
7698 45
7699 7
7700 66
7701 2
7702 40
7703 17
7704 7
7705 43
7706 38
7707 23
7708 27
7709 29
7710 2
7711 75
7712 78
7713 72
7714 7
7715 9
7716 86
7717 32
7718 0
7719 48
7720 1
7721 26
7722 7
7723 9
7724 47
7725 1
7726 29
7727 47
7728 27
7729 40
7730 65
7731 87
7732 3
7733 5
7734 48
7735 33
7736 22
7737 24
7738 72
7739 50
7740 40
7741 5
7742 87
7743 9
7744 16
7745 5
7746 72
7747 60
7748 11
7749 59
7750 33
7751 22
7752 72
7753 9
7754 33
7755 90
7756 86
7757 5
7758 66
7759 59
7760 39
7761 29
7762 42
7763 27
7764 84
7765 33
7766 25
7767 13
7768 2
7769 40
7770 33
7771 70
7772 36
7773 13
7774 16
7775 30
7776 66
7777 16
7778 70
7779 23
7780 5
7781 9
7782 4
7783 29
7784 84
7785 5
7786 47
7787 75
7788 2
7789 5
7790 17
7791 4
7792 5
7793 13
7794 66
7795 70
7796 5
7797 29
7798 44
7799 37
7800 29
7801 66
7802 2
7803 33
7804 7
7805 2
7806 25
7807 55
7808 72
7809 6
7810 73
7811 33
7812 29
7813 7
7814 72
7815 74
7816 29
7817 16
7818 74
7819 39
7820 49
7821 50
7822 95
7823 16
7824 49
7825 72
7826 83
7827 41
7828 72
7829 70
7830 87
7831 66
7832 29
7833 19
7834 82
7835 72
7836 29
7837 82
7838 83
7839 32
7840 29
7841 81
7842 16
7843 27
7844 33
7845 29
7846 82
7847 61
7848 66
7849 45
7850 19
7851 3
7852 27
7853 13
7854 80
7855 32
7856 55
7857 89
7858 72
7859 34
7860 72
7861 80
7862 81
7863 72
7864 37
7865 2
7866 72
7867 29
7868 1
7869 66
7870 29
7871 77
7872 66
7873 56
7874 74
7875 72
7876 72
7877 48
7878 29
7879 6
7880 45
7881 66
7882 34
7883 15
7884 33
7885 5
7886 86
7887 14
7888 32
7889 80
7890 13
7891 38
7892 33
7893 29
7894 87
7895 29
7896 32
7897 33
7898 7
7899 5
7900 65
7901 29
7902 29
7903 86
7904 16
7905 94
7906 45
7907 40
7908 66
7909 13
7910 13
7911 29
7912 65
7913 79
7914 38
7915 3
7916 5
7917 66
7918 38
7919 29
7920 38
7921 16
7922 22
7923 72
7924 30
7925 29
7926 2
7927 39
7928 27
7929 55
7930 30
7931 66
7932 72
7933 27
7934 29
7935 65
7936 38
7937 29
7938 45
7939 62
7940 48
7941 8
7942 30
7943 45
7944 33
7945 47
7946 8
7947 66
7948 48
7949 33
7950 66
7951 80
7952 43
7953 33
7954 5
7955 29
7956 38
7957 2
7958 5
7959 25
7960 48
7961 72
7962 40
7963 72
7964 33
7965 63
7966 50
7967 32
7968 65
7969 2
7970 85
7971 47
7972 48
7973 76
7974 33
7975 48
7976 29
7977 55
7978 62
7979 5
7980 32
7981 72
7982 66
7983 16
7984 3
7985 16
7986 16
7987 33
7988 92
7989 8
7990 72
7991 64
7992 6
7993 8
7994 5
7995 5
7996 25
7997 7
7998 17
7999 27
8000 39
8001 72
8002 72
8003 48
8004 16
8005 16
8006 66
8007 48
8008 30
8009 32
8010 16
8011 49
8012 5
8013 25
8014 51
8015 28
8016 8
8017 14
8018 13
8019 30
8020 5
8021 72
8022 48
8023 60
8024 29
8025 41
8026 65
8027 29
8028 29
8029 33
8030 12
8031 75
8032 16
8033 2
8034 29
8035 5
8036 64
8037 6
8038 20
8039 5
8040 5
8041 57
8042 27
8043 65
8044 84
8045 25
8046 20
8047 27
8048 0
8049 24
8050 57
8051 11
8052 25
8053 24
8054 5
8055 65
8056 73
8057 8
8058 33
8059 5
8060 5
8061 6
8062 80
8063 10
8064 29
8065 31
8066 79
8067 45
8068 72
8069 6
8070 6
8071 29
8072 7
8073 45
8074 72
8075 48
8076 48
8077 30
8078 2
8079 22
8080 27
8081 29
8082 47
8083 47
8084 77
8085 30
8086 29
8087 27
8088 7
8089 8
8090 48
8091 22
8092 48
8093 5
8094 38
8095 33
8096 38
8097 5
8098 24
8099 66
8100 10
8101 68
8102 29
8103 32
8104 2
8105 75
8106 29
8107 29
8108 45
8109 25
8110 22
8111 16
8112 70
8113 22
8114 45
8115 72
8116 85
8117 16
8118 14
8119 20
8120 35
8121 16
8122 20
8123 6
8124 15
8125 22
8126 13
8127 5
8128 5
8129 27
8130 5
8131 33
8132 13
8133 38
8134 66
8135 29
8136 48
8137 65
8138 45
8139 79
8140 66
8141 48
8142 65
8143 20
8144 25
8145 24
8146 47
8147 33
8148 66
8149 30
8150 2
8151 72
8152 27
8153 33
8154 91
8155 4
8156 30
8157 21
8158 53
8159 44
8160 53
8161 5
8162 16
8163 27
8164 20
8165 30
8166 6
8167 47
8168 5
8169 23
8170 5
8171 5
8172 74
8173 5
8174 50
8175 80
8176 2
8177 38
8178 13
8179 5
8180 24
8181 13
8182 5
8183 33
8184 66
8185 3
8186 27
8187 33
8188 6
8189 27
8190 80
8191 45
8192 7
8193 33
8194 37
8195 36
8196 74
8197 4
8198 39
8199 3
8200 48
8201 32
8202 75
8203 71
8204 66
8205 79
8206 48
8207 47
8208 86
8209 13
8210 79
8211 87
8212 51
8213 47
8214 33
8215 0
8216 29
8217 22
8218 91
8219 16
8220 9
8221 53
8222 5
8223 5
8224 87
8225 27
8226 2
8227 35
8228 38
8229 27
8230 19
8231 65
8232 22
8233 46
8234 12
8235 6
8236 87
8237 5
8238 27
8239 7
8240 47
8241 51
8242 64
8243 82
8244 52
8245 4
8246 51
8247 16
8248 12
8249 14
8250 1
8251 21
8252 85
8253 9
8254 22
8255 72
8256 9
8257 14
8258 22
8259 75
8260 25
8261 82
8262 66
8263 24
8264 66
8265 57
8266 28
8267 25
8268 13
8269 48
8270 33
8271 65
8272 24
8273 6
8274 0
8275 49
8276 5
8277 24
8278 38
8279 27
8280 27
8281 82
8282 46
8283 25
8284 13
8285 38
8286 25
8287 69
8288 6
8289 3
8290 84
8291 20
8292 12
8293 76
8294 34
8295 59
8296 62
8297 86
8298 30
8299 60
8300 38
8301 12
8302 60
8303 20
8304 67
8305 62
8306 61
8307 35
8308 27
8309 27
8310 29
8311 43
8312 10
8313 63
8314 56
8315 89
8316 2
8317 51
8318 5
8319 65
8320 14
8321 24
8322 12
8323 31
8324 81
8325 22
8326 32
8327 24
8328 1
8329 3
8330 41
8331 5
8332 14
8333 12
8334 81
8335 91
8336 17
8337 71
8338 38
8339 30
8340 5
8341 83
8342 76
8343 27
8344 50
8345 17
8346 50
8347 70
8348 90
8349 36
8350 38
8351 25
8352 10
8353 5
8354 59
8355 94
8356 81
8357 12
8358 72
8359 47
8360 15
8361 25
8362 62
8363 66
8364 32
8365 48
8366 80
8367 5
8368 17
8369 7
8370 72
8371 20
8372 74
8373 15
8374 25
8375 14
8376 75
8377 25
8378 89
8379 64
8380 4
8381 88
8382 47
8383 56
8384 27
8385 16
8386 14
8387 38
8388 42
8389 41
8390 55
8391 72
8392 95
8393 72
8394 33
8395 85
8396 64
8397 68
8398 51
8399 29
8400 15
8401 16
8402 65
8403 15
8404 3
8405 23
8406 72
8407 21
8408 84
8409 30
8410 28
8411 74
8412 5
8413 68
8414 20
8415 6
8416 79
8417 56
8418 17
8419 54
8420 94
8421 25
8422 35
8423 37
8424 8
8425 14
8426 27
8427 60
8428 25
8429 62
8430 29
8431 5
8432 55
8433 68
8434 24
8435 72
8436 20
8437 50
8438 80
8439 92
8440 29
8441 51
8442 90
8443 32
8444 38
8445 51
8446 55
8447 16
8448 7
8449 38
8450 33
8451 92
8452 75
8453 29
8454 66
8455 66
8456 72
8457 61
8458 65
8459 17
8460 48
8461 39
8462 72
8463 8
8464 8
8465 35
8466 17
8467 5
8468 5
8469 81
8470 49
8471 75
8472 27
8473 17
8474 7
8475 29
8476 66
8477 47
8478 51
8479 29
8480 30
8481 74
8482 14
8483 25
8484 4
8485 66
8486 79
8487 95
8488 81
8489 91
8490 46
8491 47
8492 66
8493 90
8494 12
8495 47
8496 82
8497 67
8498 83
8499 5
8500 85
8501 87
8502 12
8503 16
8504 87
8505 59
8506 74
8507 37
8508 29
8509 15
8510 72
8511 5
8512 13
8513 11
8514 10
8515 75
8516 12
8517 45
8518 24
8519 17
8520 40
8521 66
8522 20
8523 5
8524 18
8525 76
8526 72
8527 5
8528 56
8529 80
8530 19
8531 39
8532 65
8533 8
8534 45
8535 45
8536 10
8537 14
8538 13
8539 43
8540 17
8541 62
8542 66
8543 80
8544 80
8545 16
8546 88
8547 5
8548 75
8549 26
8550 46
8551 13
8552 16
8553 84
8554 29
8555 44
8556 67
8557 29
8558 30
8559 94
8560 39
8561 79
8562 72
8563 35
8564 59
8565 5
8566 49
8567 49
8568 27
8569 86
8570 13
8571 57
8572 90
8573 5
8574 50
8575 13
8576 45
8577 33
8578 27
8579 66
8580 91
8581 86
8582 80
8583 72
8584 48
8585 48
8586 13
8587 32
8588 16
8589 74
8590 4
8591 47
8592 72
8593 16
8594 29
8595 28
8596 48
8597 48
8598 33
8599 91
8600 84
8601 40
8602 72
8603 80
8604 84
8605 16
8606 48
8607 16
8608 33
8609 23
8610 29
8611 5
8612 79
8613 5
8614 33
8615 17
8616 67
8617 7
8618 36
8619 66
8620 30
8621 30
8622 32
8623 13
8624 6
8625 5
8626 13
8627 5
8628 16
8629 32
8630 33
8631 52
8632 29
8633 38
8634 51
8635 83
8636 32
8637 21
8638 32
8639 29
8640 56
8641 48
8642 84
8643 72
8644 48
8645 27
8646 5
8647 91
8648 2
8649 15
8650 18
8651 49
8652 3
8653 2
8654 13
8655 2
8656 92
8657 42
8658 39
8659 17
8660 48
8661 45
8662 29
8663 85
8664 50
8665 16
8666 45
8667 32
8668 56
8669 66
8670 16
8671 17
8672 30
8673 27
8674 26
8675 57
8676 48
8677 47
8678 16
8679 27
8680 72
8681 14
8682 32
8683 72
8684 45
8685 75
8686 27
8687 87
8688 67
8689 42
8690 47
8691 13
8692 64
8693 69
8694 32
8695 30
8696 38
8697 73
8698 33
8699 86
8700 29
8701 45
8702 3
8703 33
8704 60
8705 2
8706 72
8707 38
8708 84
8709 2
8710 70
8711 60
8712 65
8713 20
8714 70
8715 56
8716 95
8717 3
8718 4
8719 9
8720 72
8721 30
8722 80
8723 80
8724 3
8725 87
8726 48
8727 86
8728 87
8729 82
8730 40
8731 5
8732 22
8733 2
8734 14
8735 43
8736 32
8737 29
8738 27
8739 13
8740 70
8741 70
8742 27
8743 27
8744 2
8745 27
8746 2
8747 26
8748 29
8749 66
8750 47
8751 79
8752 40
8753 38
8754 20
8755 71
8756 60
8757 33
8758 33
8759 63
8760 65
8761 33
8762 47
8763 37
8764 2
8765 89
8766 13
8767 76
8768 25
8769 22
8770 22
8771 33
8772 36
8773 4
8774 40
8775 4
8776 14
8777 10
8778 72
8779 13
8780 77
8781 2
8782 5
8783 2
8784 33
8785 72
8786 9
8787 25
8788 5
8789 9
8790 14
8791 69
8792 16
8793 24
8794 33
8795 56
8796 13
8797 5
8798 27
8799 40
8800 35
8801 13
8802 4
8803 9
8804 5
8805 72
8806 51
8807 1
8808 24
8809 72
8810 86
8811 33
8812 5
8813 22
8814 29
8815 33
8816 14
8817 16
8818 92
8819 30
8820 72
8821 2
8822 55
8823 64
8824 60
8825 5
8826 52
8827 29
8828 4
8829 5
8830 32
8831 20
8832 72
8833 72
8834 40
8835 68
8836 17
8837 72
8838 72
8839 27
8840 2
8841 29
8842 64
8843 65
8844 20
8845 7
8846 29
8847 68
8848 51
8849 19
8850 72
8851 70
8852 68
8853 77
8854 72
8855 5
8856 40
8857 29
8858 76
8859 5
8860 56
8861 81
8862 62
8863 17
8864 29
8865 9
8866 88
8867 55
8868 16
8869 29
8870 16
8871 5
8872 5
8873 33
8874 32
8875 3
8876 76
8877 75
8878 88
8879 32
8880 32
8881 7
8882 22
8883 2
8884 5
8885 45
8886 48
8887 15
8888 66
8889 66
8890 16
8891 62
8892 5
8893 33
8894 87
8895 7
8896 66
8897 27
8898 29
8899 29
8900 27
8901 6
8902 33
8903 2
8904 36
8905 38
8906 45
8907 17
8908 72
8909 5
8910 29
8911 2
8912 45
8913 32
8914 5
8915 7
8916 79
8917 48
8918 87
8919 32
8920 13
8921 29
8922 48
8923 48
8924 17
8925 16
8926 15
8927 29
8928 11
8929 27
8930 45
8931 77
8932 88
8933 2
8934 45
8935 29
8936 16
8937 11
8938 45
8939 13
8940 12
8941 16
8942 17
8943 80
8944 27
8945 4
8946 33
8947 87
8948 13
8949 82
8950 27
8951 22
8952 29
8953 29
8954 38
8955 16
8956 80
8957 5
8958 13
8959 66
8960 29
8961 2
8962 32
8963 5
8964 29
8965 11
8966 5
8967 79
8968 29
8969 48
8970 66
8971 16
8972 15
8973 27
8974 66
8975 33
8976 5
8977 65
8978 30
8979 45
8980 48
8981 2
8982 29
8983 22
8984 2
8985 30
8986 15
8987 62
8988 33
8989 30
8990 32
8991 29
8992 79
8993 20
8994 5
8995 29
8996 7
8997 5
8998 61
8999 33
9000 2
9001 32
9002 23
9003 48
9004 45
9005 33
9006 91
9007 5
9008 64
9009 8
9010 32
9011 38
9012 35
9013 32
9014 6
9015 25
9016 66
9017 9
9018 79
9019 72
9020 3
9021 89
9022 24
9023 32
9024 33
9025 33
9026 55
9027 86
9028 48
9029 16
9030 27
9031 88
9032 32
9033 15
9034 71
9035 6
9036 5
9037 5
9038 12
9039 32
9040 27
9041 11
9042 45
9043 29
9044 15
9045 37
9046 5
9047 89
9048 72
9049 7
9050 30
9051 27
9052 2
9053 30
9054 5
9055 29
9056 66
9057 0
9058 4
9059 23
9060 13
9061 65
9062 13
9063 29
9064 32
9065 32
9066 16
9067 20
9068 72
9069 82
9070 40
9071 15
9072 2
9073 80
9074 50
9075 45
9076 20
9077 56
9078 29
9079 25
9080 82
9081 64
9082 72
9083 27
9084 45
9085 33
9086 29
9087 32
9088 29
9089 48
9090 13
9091 29
9092 40
9093 33
9094 6
9095 29
9096 88
9097 52
9098 20
9099 20
9100 45
9101 20
9102 44
9103 25
9104 13
9105 49
9106 48
9107 29
9108 10
9109 29
9110 5
9111 66
9112 2
9113 27
9114 16
9115 72
9116 28
9117 2
9118 2
9119 13
9120 47
9121 15
9122 72
9123 5
9124 66
9125 13
9126 25
9127 29
9128 30
9129 48
9130 39
9131 32
9132 5
9133 12
9134 66
9135 25
9136 38
9137 29
9138 8
9139 94
9140 20
9141 38
9142 40
9143 29
9144 29
9145 29
9146 2
9147 5
9148 41
9149 5
9150 29
9151 14
9152 80
9153 65
9154 24
9155 22
9156 48
9157 37
9158 40
9159 50
9160 14
9161 65
9162 33
9163 90
9164 16
9165 95
9166 30
9167 6
9168 87
9169 66
9170 65
9171 20
9172 66
9173 32
9174 6
9175 22
9176 5
9177 66
9178 20
9179 38
9180 16
9181 22
9182 42
9183 73
9184 29
9185 29
9186 16
9187 66
9188 30
9189 3
9190 4
9191 33
9192 5
9193 20
9194 66
9195 79
9196 32
9197 2
9198 40
9199 6
9200 2
9201 38
9202 74
9203 2
9204 12
9205 74
9206 29
9207 30
9208 33
9209 17
9210 43
9211 24
9212 12
9213 38
9214 33
9215 79
9216 28
9217 29
9218 94
9219 4
9220 47
9221 32
9222 29
9223 66
9224 74
9225 85
9226 31
9227 36
9228 68
9229 38
9230 66
9231 80
9232 31
9233 82
9234 87
9235 2
9236 17
9237 24
9238 3
9239 72
9240 30
9241 29
9242 41
9243 29
9244 9
9245 30
9246 29
9247 6
9248 6
9249 40
9250 66
9251 33
9252 33
9253 75
9254 32
9255 8
9256 32
9257 66
9258 22
9259 85
9260 70
9261 24
9262 65
9263 22
9264 4
9265 0
9266 58
9267 87
9268 5
9269 6
9270 5
9271 66
9272 28
9273 47
9274 5
9275 13
9276 6
9277 5
9278 0
9279 29
9280 13
9281 6
9282 2
9283 25
9284 5
9285 24
9286 24
9287 15
9288 66
9289 66
9290 29
9291 5
9292 70
9293 3
9294 20
9295 66
9296 24
9297 33
9298 29
9299 7
9300 72
9301 2
9302 29
9303 5
9304 43
9305 5
9306 3
9307 16
9308 7
9309 86
9310 5
9311 51
9312 5
9313 2
9314 12
9315 29
9316 72
9317 5
9318 40
9319 19
9320 16
9321 60
9322 64
9323 0
9324 16
9325 54
9326 17
9327 16
9328 7
9329 7
9330 9
9331 16
9332 40
9333 81
9334 38
9335 45
9336 5
9337 7
9338 72
9339 62
9340 16
9341 90
9342 5
9343 2
9344 38
9345 82
9346 74
9347 5
9348 5
9349 9
9350 9
9351 66
9352 32
9353 38
9354 13
9355 25
9356 28
9357 66
9358 48
9359 47
9360 33
9361 51
9362 72
9363 66
9364 66
9365 38
9366 66
9367 65
9368 9
9369 25
9370 65
9371 66
9372 27
9373 5
9374 2
9375 17
9376 82
9377 17
9378 15
9379 22
9380 30
9381 2
9382 78
9383 33
9384 2
9385 29
9386 33
9387 69
9388 9
9389 11
9390 29
9391 58
9392 25
9393 23
9394 48
9395 74
9396 5
9397 8
9398 20
9399 5
9400 80
9401 72
9402 38
9403 24
9404 5
9405 24
9406 5
9407 72
9408 7
9409 33
9410 27
9411 14
9412 29
9413 40
9414 66
9415 6
9416 75
9417 84
9418 2
9419 84
9420 2
9421 91
9422 22
9423 40
9424 23
9425 88
9426 87
9427 6
9428 13
9429 2
9430 68
9431 1
9432 4
9433 66
9434 67
9435 12
9436 33
9437 56
9438 2
9439 10
9440 29
9441 72
9442 67
9443 60
9444 51
9445 5
9446 2
9447 66
9448 13
9449 6
9450 40
9451 13
9452 5
9453 27
9454 72
9455 39
9456 39
9457 72
9458 66
9459 25
9460 17
9461 22
9462 6
9463 2
9464 94
9465 36
9466 87
9467 16
9468 11
9469 25
9470 47
9471 66
9472 33
9473 55
9474 29
9475 39
9476 29
9477 33
9478 18
9479 5
9480 33
9481 68
9482 33
9483 83
9484 13
9485 81
9486 66
9487 64
9488 13
9489 62
9490 29
9491 81
9492 35
9493 16
9494 4
9495 72
9496 75
9497 66
9498 29
9499 75
9500 62
9501 2
9502 29
9503 37
9504 13
9505 16
9506 36
9507 62
9508 51
9509 3
9510 66
9511 65
9512 68
9513 22
9514 15
9515 56
9516 2
9517 32
9518 15
9519 86
9520 12
9521 42
9522 4
9523 8
9524 12
9525 2
9526 13
9527 17
9528 62
9529 13
9530 70
9531 23
9532 38
9533 5
9534 80
9535 5
9536 35
9537 46
9538 66
9539 23
9540 79
9541 7
9542 57
9543 22
9544 7
9545 24
9546 16
9547 64
9548 72
9549 86
9550 28
9551 13
9552 4
9553 63
9554 89
9555 29
9556 66
9557 45
9558 5
9559 5
9560 68
9561 5
9562 72
9563 27
9564 13
9565 72
9566 34
9567 84
9568 51
9569 16
9570 82
9571 29
9572 39
9573 67
9574 45
9575 41
9576 2
9577 47
9578 33
9579 23
9580 47
9581 82
9582 60
9583 56
9584 29
9585 81
9586 29
9587 87
9588 16
9589 66
9590 15
9591 45
9592 48
9593 2
9594 34
9595 33
9596 45
9597 38
9598 5
9599 2
9600 29
9601 57
9602 47
9603 27
9604 66
9605 68
9606 29
9607 7
9608 5
9609 32
9610 66
9611 76
9612 32
9613 72
9614 5
9615 27
9616 68
9617 75
9618 62
9619 16
9620 72
9621 82
9622 27
9623 66
9624 66
9625 4
9626 26
9627 48
9628 81
9629 27
9630 13
9631 6
9632 66
9633 33
9634 66
9635 48
9636 86
9637 72
9638 7
9639 27
9640 16
9641 64
9642 5
9643 13
9644 2
9645 66
9646 70
9647 5
9648 13
9649 69
9650 65
9651 21
9652 5
9653 82
9654 90
9655 36
9656 13
9657 42
9658 30
9659 56
9660 15
9661 64
9662 72
9663 1
9664 45
9665 66
9666 38
9667 24
9668 48
9669 29
9670 32
9671 84
9672 45
9673 27
9674 8
9675 0
9676 91
9677 66
9678 66
9679 69
9680 72
9681 27
9682 29
9683 66
9684 52
9685 91
9686 29
9687 5
9688 43
9689 22
9690 29
9691 72
9692 40
9693 25
9694 29
9695 37
9696 23
9697 16
9698 5
9699 29
9700 24
9701 38
9702 33
9703 83
9704 48
9705 70
9706 65
9707 2
9708 37
9709 38
9710 38
9711 80
9712 24
9713 13
9714 72
9715 32
9716 60
9717 29
9718 91
9719 5
9720 64
9721 68
9722 30
9723 62
9724 32
9725 2
9726 33
9727 48
9728 26
9729 64
9730 72
9731 7
9732 79
9733 89
9734 48
9735 47
9736 12
9737 48
9738 9
9739 39
9740 3
9741 2
9742 24
9743 66
9744 46
9745 9
9746 72
9747 64
9748 77
9749 94
9750 46
9751 66
9752 72
9753 45
9754 90
9755 3
9756 2
9757 39
9758 30
9759 36
9760 2
9761 8
9762 62
9763 33
9764 70
9765 3
9766 47
9767 88
9768 87
9769 86
9770 88
9771 65
9772 30
9773 33
9774 12
9775 12
9776 22
9777 22
9778 61
9779 40
9780 80
9781 13
9782 16
9783 2
9784 33
9785 66
9786 38
9787 23
9788 89
9789 33
9790 29
9791 27
9792 42
9793 77
9794 21
9795 51
9796 2
9797 79
9798 22
9799 55
9800 5
9801 5
9802 5
9803 38
9804 24
9805 5
9806 61
9807 64
9808 29
9809 70
9810 40
9811 16
9812 72
9813 39
9814 66
9815 2
9816 2
9817 5
9818 46
9819 7
9820 29
9821 27
9822 66
9823 29
9824 10
9825 30
9826 72
9827 33
9828 79
9829 66
9830 29
9831 5
9832 30
9833 16
9834 60
9835 29
9836 33
9837 4
9838 27
9839 45
9840 17
9841 12
9842 57
9843 17
9844 5
9845 14
9846 29
9847 49
9848 3
9849 17
9850 51
9851 92
9852 13
9853 14
9854 33
9855 81
9856 5
9857 6
9858 29
9859 62
9860 62
9861 5
9862 27
9863 5
9864 72
9865 63
9866 29
9867 14
9868 62
9869 75
9870 33
9871 27
9872 72
9873 22
9874 47
9875 18
9876 89
9877 63
9878 13
9879 32
9880 25
9881 77
9882 29
9883 16
9884 72
9885 32
9886 16
9887 66
9888 16
9889 47
9890 51
9891 83
9892 66
9893 16
9894 2
9895 22
9896 20
9897 17
9898 16
9899 30
9900 6
9901 32
9902 27
9903 25
9904 65
9905 66
9906 5
9907 2
9908 45
9909 1
9910 2
9911 29
9912 5
9913 5
9914 5
9915 15
9916 15
9917 48
9918 29
9919 91
9920 29
9921 15
9922 53
9923 36
9924 27
9925 29
9926 47
9927 66
9928 40
9929 5
9930 66
9931 38
9932 5
9933 4
9934 27
9935 33
9936 20
9937 32
9938 51
9939 25
9940 81
9941 45
9942 30
9943 5
9944 5
9945 5
9946 34
9947 75
9948 57
9949 13
9950 56
9951 16
9952 17
9953 90
9954 75
9955 83
9956 27
9957 79
9958 27
9959 5
9960 13
9961 13
9962 85
9963 39
9964 72
9965 30
9966 5
9967 83
9968 67
9969 81
9970 90
9971 5
9972 33
9973 51
9974 32
9975 13
9976 6
9977 45
9978 32
9979 83
9980 2
9981 13
9982 30
9983 28
9984 27
9985 4
9986 37
9987 29
9988 29
9989 13
9990 20
9991 11
9992 85
9993 2
9994 9
9995 79
9996 30
9997 38
9998 33
9999 32
