0 0
1 1
2 2
3 3
4 4
5 5
6 6
7 2
8 7
9 8
10 9
11 10
12 10
13 11
14 12
15 13
16 14
17 15
18 16
19 17
20 7
21 18
22 19
23 20
24 21
25 22
26 3
27 23
28 24
29 10
30 25
31 23
32 26
33 27
34 28
35 29
36 8
37 13
38 2
39 30
40 31
41 32
42 33
43 11
44 34
45 35
46 36
47 37
48 2
49 26
50 13
51 8
52 5
53 0
54 30
55 2
56 32
57 38
58 32
59 39
60 40
61 25
62 26
63 37
64 41
65 42
66 36
67 43
68 37
69 44
70 45
71 37
72 46
73 6
74 7
75 47
76 35
77 48
78 49
79 8
80 50
81 11
82 51
83 52
84 53
85 22
86 5
87 31
88 2
89 28
90 11
91 43
92 13
93 54
94 55
95 32
96 56
97 52
98 6
99 29
100 57
101 58
102 53
103 22
104 5
105 5
106 41
107 11
108 50
109 6
110 25
111 59
112 38
113 44
114 60
115 54
116 61
117 28
118 8
119 43
120 53
121 36
122 8
123 7
124 27
125 62
126 15
127 32
128 33
129 0
130 22
131 46
132 37
133 44
134 9
135 36
136 47
137 29
138 8
139 31
140 63
141 20
142 64
143 65
144 58
145 43
146 66
147 23
148 44
149 67
150 34
151 15
152 26
153 67
154 68
155 69
156 2
157 30
158 50
159 70
160 8
161 5
162 3
163 71
164 49
165 70
166 0
167 20
168 31
169 11
170 72
171 56
172 28
173 41
174 56
175 73
176 25
177 74
178 5
179 75
180 13
181 29
182 76
183 53
184 43
185 21
186 24
187 11
188 75
189 34
190 15
191 64
192 25
193 13
194 40
195 5
196 28
197 54
198 14
199 65
200 8
201 67
202 68
203 77
204 56
205 17
206 15
207 8
208 76
209 66
210 78
211 44
212 44
213 0
214 56
215 15
216 67
217 76
218 44
219 48
220 71
221 44
222 26
223 67
224 7
225 40
226 67
227 11
228 28
229 7
230 56
231 38
232 79
233 80
234 6
235 80
236 44
237 77
238 59
239 65
240 25
241 22
242 11
243 25
244 42
245 67
246 71
247 14
248 81
249 82
250 19
251 42
252 71
253 16
254 7
255 13
256 67
257 31
258 42
259 67
260 83
261 13
262 75
263 76
264 84
265 56
266 77
267 85
268 86
269 67
270 80
271 27
272 25
273 25
274 6
275 27
276 86
277 49
278 4
279 2
280 59
281 7
282 71
283 87
284 7
285 18
286 53
287 17
288 32
289 42
290 71
291 65
292 6
293 84
294 44
295 25
296 27
297 8
298 21
299 36
300 21
301 81
302 72
303 48
304 35
305 23
306 77
307 54
308 27
309 69
310 16
311 42
312 84
313 21
314 76
315 8
316 69
317 67
318 26
319 76
320 0
321 19
322 20
323 6
324 51
325 44
326 36
327 4
328 5
329 87
330 65
331 36
332 67
333 15
334 88
335 86
336 69
337 47
338 72
339 44
340 56
341 46
342 15
343 89
344 67
345 67
346 26
347 5
348 5
349 27
350 36
351 76
352 56
353 0
354 58
355 56
356 32
357 44
358 44
359 15
360 34
361 11
362 22
363 21
364 11
365 42
366 63
367 54
368 17
369 6
370 70
371 44
372 54
373 47
374 11
375 28
376 76
377 80
378 2
379 58
380 67
381 42
382 2
383 77
384 17
385 76
386 53
387 14
388 75
389 26
390 56
391 53
392 89
393 4
394 79
395 33
396 15
397 35
398 59
399 37
400 46
401 50
402 1
403 44
404 53
405 18
406 42
407 69
408 9
409 69
410 49
411 5
412 59
413 42
414 7
415 37
416 59
417 1
418 17
419 11
420 56
421 2
422 27
423 27
424 24
425 80
426 87
427 37
428 37
429 69
430 90
431 47
432 22
433 4
434 86
435 32
436 54
437 31
438 59
439 39
440 81
441 13
442 50
443 44
444 42
445 39
446 42
447 37
448 70
449 28
450 53
451 33
452 25
453 91
454 33
455 37
456 74
457 21
458 71
459 84
460 5
461 22
462 76
463 36
464 65
465 80
466 4
467 42
468 2
469 24
470 45
471 2
472 34
473 5
474 36
475 24
476 40
477 76
478 84
479 82
480 89
481 41
482 50
483 25
484 48
485 86
486 81
487 2
488 43
489 74
490 33
491 74
492 53
493 25
494 74
495 9
496 26
497 92
498 46
499 43
500 47
501 5
502 62
503 37
504 83
505 50
506 2
507 53
508 4
509 42
510 53
511 82
512 13
513 37
514 34
515 37
516 44
517 72
518 71
519 17
520 37
521 41
522 74
523 28
524 71
525 34
526 13
527 7
528 8
529 56
530 59
531 26
532 38
533 80
534 28
535 53
536 76
537 25
538 32
539 89
540 69
541 35
542 33
543 4
544 69
545 93
546 44
547 31
548 15
549 85
550 53
551 23
552 43
553 2
554 43
555 85
556 15
557 10
558 34
559 90
560 68
561 88
562 17
563 23
564 88
565 79
566 37
567 47
568 88
569 0
570 22
571 76
572 37
573 36
574 73
575 47
576 92
577 2
578 2
579 66
580 53
581 20
582 71
583 50
584 37
585 36
586 0
587 2
588 88
589 33
590 5
591 4
592 31
593 13
594 63
595 33
596 83
597 88
598 76
599 8
600 43
601 54
602 70
603 54
604 5
605 14
606 77
607 13
608 29
609 71
610 71
611 54
612 4
613 93
614 8
615 50
616 56
617 0
618 4
619 0
620 15
621 56
622 44
623 21
624 4
625 58
626 74
627 14
628 83
629 53
630 82
631 30
632 60
633 17
634 41
635 50
636 13
637 37
638 5
639 11
640 54
641 14
642 33
643 86
644 29
645 9
646 21
647 29
648 13
649 41
650 36
651 5
652 36
653 44
654 45
655 53
656 61
657 16
658 16
659 43
660 93
661 31
662 65
663 37
664 47
665 37
666 16
667 44
668 32
669 71
670 6
671 76
672 8
673 24
674 81
675 71
676 26
677 91
678 31
679 65
680 0
681 93
682 90
683 85
684 23
685 23
686 0
687 44
688 8
689 2
690 11
691 90
692 31
693 32
694 92
695 0
696 26
697 47
698 13
699 58
700 8
701 5
702 37
703 37
704 41
705 43
706 49
707 5
708 36
709 2
710 44
711 0
712 37
713 27
714 76
715 31
716 67
717 25
718 26
719 2
720 77
721 5
722 81
723 2
724 6
725 56
726 44
727 31
728 71
729 12
730 35
731 8
732 67
733 47
734 44
735 15
736 24
737 53
738 81
739 42
740 71
741 15
742 44
743 5
744 5
745 21
746 11
747 26
748 44
749 41
750 71
751 75
752 44
753 76
754 5
755 59
756 83
757 77
758 10
759 54
760 47
761 68
762 4
763 2
764 80
765 2
766 77
767 11
768 39
769 16
770 31
771 80
772 13
773 5
774 41
775 37
776 37
777 40
778 48
779 11
780 91
781 80
782 88
783 41
784 76
785 72
786 16
787 88
788 17
789 25
790 93
791 5
792 81
793 71
794 25
795 32
796 21
797 0
798 63
799 75
800 80
801 41
802 11
803 76
804 27
805 76
806 31
807 82
808 81
809 5
810 25
811 69
812 18
813 48
814 17
815 36
816 71
817 84
818 31
819 37
820 76
821 41
822 76
823 78
824 41
825 53
826 55
827 76
828 58
829 15
830 17
831 42
832 35
833 82
834 25
835 37
836 0
837 47
838 33
839 5
840 10
841 34
842 53
843 10
844 81
845 0
846 49
847 48
848 26
849 2
850 4
851 6
852 31
853 69
854 5
855 44
856 4
857 33
858 15
859 86
860 80
861 32
862 33
863 17
864 42
865 8
866 71
867 36
868 31
869 86
870 76
871 47
872 42
873 21
874 11
875 29
876 23
877 6
878 26
879 20
880 11
881 37
882 55
883 4
884 34
885 80
886 59
887 29
888 26
889 22
890 75
891 2
892 58
893 25
894 71
895 11
896 65
897 47
898 5
899 13
900 87
901 81
902 87
903 10
904 22
905 59
906 47
907 2
908 25
909 28
910 46
911 25
912 6
913 37
914 59
915 21
916 37
917 82
918 46
919 50
920 65
921 64
922 80
923 17
924 85
925 74
926 11
927 71
928 5
929 57
930 35
931 3
932 33
933 3
934 33
935 59
936 34
937 23
938 44
939 5
940 42
941 32
942 84
943 41
944 58
945 26
946 58
947 53
948 74
949 85
950 70
951 73
952 26
953 71
954 21
955 28
956 41
957 28
958 74
959 23
960 40
961 25
962 39
963 5
964 60
965 47
966 27
967 33
968 42
969 69
970 69
971 69
972 44
973 93
974 33
975 6
976 24
977 85
978 29
979 23
980 2
981 25
982 12
983 67
984 44
985 48
986 11
987 47
988 85
989 71
990 11
991 3
992 2
993 77
994 21
995 13
996 76
997 8
998 37
999 86
1000 43
1001 31
1002 11
1003 80
1004 49
1005 5
1006 88
1007 17
1008 41
1009 23
1010 94
1011 25
1012 26
1013 23
1014 29
1015 71
1016 5
1017 23
1018 3
1019 47
1020 31
1021 19
1022 29
1023 43
1024 25
1025 70
1026 42
1027 41
1028 26
1029 6
1030 11
1031 29
1032 0
1033 78
1034 43
1035 23
1036 43
1037 0
1038 86
1039 41
1040 76
1041 88
1042 76
1043 47
1044 2
1045 42
1046 0
1047 11
1048 28
1049 74
1050 8
1051 71
1052 57
1053 26
1054 23
1055 0
1056 3
1057 25
1058 3
1059 56
1060 55
1061 76
1062 65
1063 29
1064 88
1065 11
1066 92
1067 4
1068 87
1069 49
1070 35
1071 84
1072 5
1073 2
1074 3
1075 71
1076 69
1077 2
1078 38
1079 43
1080 91
1081 47
1082 95
1083 84
1084 84
1085 53
1086 2
1087 17
1088 10
1089 8
1090 17
1091 43
1092 5
1093 88
1094 11
1095 33
1096 33
1097 11
1098 10
1099 56
1100 20
1101 2
1102 2
1103 80
1104 58
1105 7
1106 18
1107 11
1108 30
1109 47
1110 1
1111 23
1112 15
1113 21
1114 34
1115 5
1116 2
1117 47
1118 11
1119 68
1120 74
1121 14
1122 34
1123 37
1124 3
1125 88
1126 6
1127 0
1128 11
1129 23
1130 2
1131 27
1132 74
1133 82
1134 5
1135 93
1136 36
1137 13
1138 31
1139 3
1140 51
1141 22
1142 7
1143 21
1144 15
1145 2
1146 66
1147 22
1148 10
1149 44
1150 50
1151 5
1152 56
1153 23
1154 11
1155 1
1156 15
1157 76
1158 52
1159 23
1160 13
1161 2
1162 2
1163 41
1164 16
1165 16
1166 44
1167 17
1168 21
1169 2
1170 36
1171 26
1172 44
1173 6
1174 36
1175 67
1176 51
1177 36
1178 56
1179 72
1180 71
1181 65
1182 67
1183 39
1184 44
1185 11
1186 34
1187 74
1188 71
1189 85
1190 0
1191 44
1192 37
1193 13
1194 56
1195 17
1196 87
1197 34
1198 50
1199 77
1200 35
1201 7
1202 43
1203 0
1204 11
1205 5
1206 82
1207 86
1208 85
1209 65
1210 3
1211 44
1212 25
1213 13
1214 11
1215 26
1216 54
1217 3
1218 44
1219 36
1220 1
1221 44
1222 23
1223 71
1224 17
1225 46
1226 86
1227 67
1228 41
1229 60
1230 91
1231 7
1232 11
1233 7
1234 7
1235 44
1236 29
1237 90
1238 27
1239 87
1240 11
1241 17
1242 5
1243 80
1244 80
1245 13
1246 25
1247 80
1248 17
1249 24
1250 45
1251 17
1252 25
1253 65
1254 86
1255 45
1256 96
1257 41
1258 44
1259 6
1260 48
1261 70
1262 71
1263 10
1264 71
1265 79
1266 52
1267 56
1268 81
1269 83
1270 80
1271 11
1272 93
1273 44
1274 42
1275 59
1276 70
1277 7
1278 59
1279 11
1280 71
1281 44
1282 17
1283 29
1284 2
1285 76
1286 63
1287 4
1288 16
1289 71
1290 5
1291 9
1292 59
1293 54
1294 17
1295 71
1296 2
1297 21
1298 44
1299 25
1300 2
1301 27
1302 69
1303 4
1304 7
1305 44
1306 5
1307 86
1308 5
1309 42
1310 81
1311 16
1312 48
1313 48
1314 91
1315 88
1316 16
1317 86
1318 11
1319 42
1320 13
1321 70
1322 81
1323 17
1324 69
1325 73
1326 32
1327 56
1328 28
1329 88
1330 82
1331 69
1332 25
1333 71
1334 36
1335 5
1336 11
1337 76
1338 5
1339 11
1340 5
1341 71
1342 2
1343 0
1344 69
1345 61
1346 5
1347 18
1348 17
1349 9
1350 2
1351 27
1352 16
1353 16
1354 47
1355 67
1356 71
1357 29
1358 76
1359 82
1360 44
1361 9
1362 25
1363 34
1364 56
1365 67
1366 76
1367 12
1368 26
1369 42
1370 5
1371 69
1372 21
1373 42
1374 88
1375 0
1376 11
1377 17
1378 5
1379 25
1380 56
1381 43
1382 81
1383 51
1384 67
1385 71
1386 43
1387 76
1388 31
1389 88
1390 5
1391 50
1392 65
1393 32
1394 25
1395 31
1396 2
1397 17
1398 44
1399 36
1400 0
1401 5
1402 17
1403 57
1404 5
1405 31
1406 84
1407 58
1408 53
1409 87
1410 69
1411 46
1412 3
1413 58
1414 25
1415 74
1416 21
1417 93
1418 76
1419 21
1420 13
1421 25
1422 30
1423 76
1424 67
1425 54
1426 77
1427 84
1428 48
1429 71
1430 31
1431 71
1432 32
1433 2
1434 70
1435 78
1436 7
1437 36
1438 7
1439 90
1440 39
1441 82
1442 0
1443 21
1444 82
1445 80
1446 5
1447 17
1448 17
1449 6
1450 22
1451 47
1452 69
1453 0
1454 49
1455 39
1456 11
1457 93
1458 5
1459 41
1460 76
1461 50
1462 5
1463 80
1464 67
1465 53
1466 27
1467 33
1468 69
1469 42
1470 2
1471 76
1472 40
1473 42
1474 85
1475 3
1476 53
1477 18
1478 44
1479 47
1480 31
1481 86
1482 44
1483 55
1484 21
1485 5
1486 28
1487 71
1488 21
1489 51
1490 71
1491 56
1492 17
1493 82
1494 53
1495 61
1496 49
1497 16
1498 70
1499 11
1500 93
1501 25
1502 34
1503 30
1504 24
1505 25
1506 86
1507 71
1508 14
1509 34
1510 4
1511 17
1512 24
1513 59
1514 47
1515 31
1516 47
1517 25
1518 0
1519 65
1520 43
1521 41
1522 41
1523 5
1524 47
1525 47
1526 53
1527 6
1528 39
1529 28
1530 48
1531 92
1532 17
1533 54
1534 1
1535 89
1536 72
1537 16
1538 74
1539 10
1540 41
1541 0
1542 8
1543 1
1544 88
1545 36
1546 13
1547 26
1548 18
1549 32
1550 71
1551 86
1552 17
1553 21
1554 32
1555 4
1556 13
1557 11
1558 25
1559 76
1560 40
1561 93
1562 35
1563 89
1564 85
1565 30
1566 28
1567 65
1568 21
1569 31
1570 53
1571 50
1572 68
1573 31
1574 11
1575 25
1576 25
1577 2
1578 59
1579 87
1580 5
1581 76
1582 43
1583 5
1584 43
1585 2
1586 27
1587 86
1588 86
1589 71
1590 16
1591 17
1592 4
1593 5
1594 86
1595 21
1596 21
1597 74
1598 15
1599 85
1600 54
1601 55
1602 41
1603 21
1604 38
1605 61
1606 0
1607 36
1608 34
1609 21
1610 76
1611 29
1612 3
1613 1
1614 17
1615 61
1616 39
1617 29
1618 15
1619 34
1620 0
1621 54
1622 71
1623 51
1624 2
1625 14
1626 21
1627 71
1628 21
1629 5
1630 37
1631 71
1632 43
1633 0
1634 74
1635 47
1636 4
1637 11
1638 67
1639 11
1640 76
1641 21
1642 34
1643 36
1644 79
1645 0
1646 71
1647 31
1648 34
1649 18
1650 5
1651 32
1652 3
1653 25
1654 75
1655 32
1656 25
1657 47
1658 43
1659 5
1660 44
1661 44
1662 5
1663 89
1664 37
1665 51
1666 0
1667 4
1668 37
1669 2
1670 41
1671 35
1672 0
1673 8
1674 37
1675 36
1676 78
1677 92
1678 25
1679 11
1680 6
1681 29
1682 89
1683 71
1684 65
1685 57
1686 0
1687 67
1688 76
1689 6
1690 67
1691 34
1692 26
1693 37
1694 16
1695 34
1696 31
1697 93
1698 33
1699 2
1700 76
1701 11
1702 23
1703 32
1704 76
1705 21
1706 5
1707 45
1708 37
1709 21
1710 32
1711 41
1712 81
1713 53
1714 17
1715 68
1716 5
1717 17
1718 11
1719 17
1720 15
1721 25
1722 53
1723 71
1724 16
1725 11
1726 18
1727 21
1728 87
1729 44
1730 54
1731 76
1732 41
1733 76
1734 84
1735 47
1736 37
1737 21
1738 4
1739 1
1740 15
1741 5
1742 39
1743 5
1744 21
1745 37
1746 10
1747 40
1748 7
1749 67
1750 7
1751 36
1752 41
1753 3
1754 5
1755 0
1756 71
1757 17
1758 81
1759 11
1760 39
1761 37
1762 91
1763 13
1764 71
1765 53
1766 36
1767 31
1768 58
1769 71
1770 7
1771 28
1772 25
1773 17
1774 82
1775 17
1776 32
1777 76
1778 13
1779 5
1780 86
1781 67
1782 48
1783 36
1784 81
1785 2
1786 16
1787 25
1788 12
1789 44
1790 17
1791 21
1792 18
1793 92
1794 92
1795 82
1796 34
1797 27
1798 17
1799 71
1800 41
1801 21
1802 53
1803 71
1804 53
1805 35
1806 84
1807 2
1808 25
1809 4
1810 37
1811 76
1812 41
1813 80
1814 76
1815 35
1816 5
1817 25
1818 59
1819 76
1820 25
1821 28
1822 86
1823 84
1824 59
1825 76
1826 31
1827 48
1828 84
1829 81
1830 11
1831 31
1832 5
1833 47
1834 34
1835 41
1836 26
1837 23
1838 68
1839 65
1840 6
1841 44
1842 6
1843 9
1844 31
1845 24
1846 41
1847 5
1848 71
1849 0
1850 34
1851 0
1852 0
1853 34
1854 41
1855 25
1856 39
1857 42
1858 5
1859 0
1860 37
1861 41
1862 88
1863 21
1864 29
1865 84
1866 49
1867 19
1868 49
1869 54
1870 71
1871 2
1872 15
1873 81
1874 46
1875 26
1876 41
1877 37
1878 13
1879 6
1880 21
1881 48
1882 16
1883 32
1884 33
1885 7
1886 76
1887 17
1888 6
1889 37
1890 66
1891 29
1892 4
1893 46
1894 41
1895 82
1896 5
1897 19
1898 26
1899 21
1900 11
1901 64
1902 2
1903 50
1904 42
1905 26
1906 76
1907 27
1908 16
1909 21
1910 94
1911 63
1912 36
1913 69
1914 21
1915 87
1916 92
1917 89
1918 71
1919 63
1920 50
1921 34
1922 69
1923 43
1924 23
1925 5
1926 21
1927 76
1928 71
1929 11
1930 29
1931 11
1932 26
1933 17
1934 2
1935 26
1936 47
1937 47
1938 25
1939 47
1940 71
1941 18
1942 82
1943 95
1944 37
1945 11
1946 21
1947 0
1948 23
1949 34
1950 80
1951 5
1952 31
1953 11
1954 92
1955 60
1956 45
1957 23
1958 59
1959 25
1960 21
1961 28
1962 25
1963 84
1964 41
1965 90
1966 11
1967 77
1968 5
1969 76
1970 17
1971 5
1972 64
1973 21
1974 41
1975 1
1976 29
1977 44
1978 29
1979 31
1980 64
1981 11
1982 56
1983 93
1984 72
1985 71
1986 11
1987 25
1988 28
1989 37
1990 76
1991 33
1992 53
1993 26
1994 2
1995 91
1996 23
1997 29
1998 5
1999 23
2000 74
2001 25
2002 5
2003 44
2004 6
2005 17
2006 0
2007 36
2008 34
2009 50
2010 74
2011 11
2012 53
2013 84
2014 37
2015 36
2016 2
2017 59
2018 87
2019 71
2020 8
2021 53
2022 5
2023 3
2024 41
2025 0
2026 71
2027 11
2028 17
2029 41
2030 56
2031 25
2032 34
2033 47
2034 31
2035 9
2036 5
2037 25
2038 74
2039 17
2040 2
2041 76
2042 11
2043 48
2044 37
2045 19
2046 69
2047 11
2048 23
2049 85
2050 65
2051 80
2052 10
2053 71
2054 29
2055 31
2056 81
2057 58
2058 86
2059 68
2060 23
2061 65
2062 6
2063 3
2064 66
2065 2
2066 6
2067 23
2068 43
2069 93
2070 76
2071 74
2072 70
2073 33
2074 56
2075 34
2076 24
2077 87
2078 22
2079 50
2080 26
2081 41
2082 11
2083 96
2084 57
2085 36
2086 12
2087 26
2088 31
2089 13
2090 19
2091 47
2092 29
2093 50
2094 1
2095 65
2096 36
2097 3
2098 6
2099 83
2100 69
2101 8
2102 29
2103 4
2104 13
2105 47
2106 13
2107 77
2108 5
2109 25
2110 3
2111 53
2112 25
2113 2
2114 88
2115 3
2116 17
2117 43
2118 12
2119 8
2120 48
2121 17
2122 61
2123 92
2124 5
2125 71
2126 56
2127 6
2128 29
2129 71
2130 41
2131 73
2132 53
2133 52
2134 24
2135 25
2136 18
2137 0
2138 87
2139 80
2140 74
2141 36
2142 71
2143 79
2144 28
2145 62
2146 61
2147 72
2148 53
2149 11
2150 31
2151 37
2152 11
2153 54
2154 28
2155 18
2156 0
2157 63
2158 5
2159 0
2160 22
2161 49
2162 67
2163 86
2164 2
2165 36
2166 83
2167 48
2168 68
2169 43
2170 67
2171 77
2172 26
2173 31
2174 41
2175 70
2176 41
2177 44
2178 2
2179 87
2180 47
2181 36
2182 29
2183 82
2184 36
2185 61
2186 80
2187 43
2188 44
2189 17
2190 67
2191 95
2192 6
2193 85
2194 53
2195 24
2196 2
2197 24
2198 21
2199 44
2200 36
2201 1
2202 24
2203 15
2204 77
2205 64
2206 28
2207 44
2208 39
2209 90
2210 16
2211 11
2212 71
2213 60
2214 76
2215 92
2216 49
2217 29
2218 71
2219 91
2220 11
2221 1
2222 76
2223 75
2224 21
2225 5
2226 64
2227 29
2228 71
2229 1
2230 16
2231 50
2232 76
2233 82
2234 70
2235 23
2236 67
2237 67
2238 43
2239 5
2240 0
2241 91
2242 14
2243 11
2244 5
2245 64
2246 8
2247 91
2248 53
2249 7
2250 72
2251 66
2252 41
2253 56
2254 67
2255 37
2256 58
2257 33
2258 16
2259 30
2260 56
2261 72
2262 76
2263 37
2264 10
2265 11
2266 50
2267 65
2268 65
2269 56
2270 84
2271 43
2272 56
2273 52
2274 39
2275 56
2276 9
2277 60
2278 44
2279 0
2280 94
2281 4
2282 34
2283 39
2284 5
2285 81
2286 37
2287 80
2288 51
2289 70
2290 46
2291 25
2292 57
2293 26
2294 6
2295 29
2296 77
2297 71
2298 71
2299 14
2300 26
2301 23
2302 96
2303 54
2304 44
2305 40
2306 4
2307 25
2308 41
2309 36
2310 59
2311 66
2312 14
2313 85
2314 81
2315 6
2316 42
2317 77
2318 46
2319 54
2320 44
2321 65
2322 56
2323 69
2324 42
2325 51
2326 19
2327 18
2328 67
2329 25
2330 80
2331 17
2332 56
2333 58
2334 23
2335 65
2336 4
2337 82
2338 37
2339 42
2340 71
2341 71
2342 28
2343 58
2344 25
2345 17
2346 67
2347 76
2348 67
2349 25
2350 81
2351 42
2352 23
2353 21
2354 17
2355 62
2356 69
2357 64
2358 32
2359 2
2360 45
2361 36
2362 25
2363 33
2364 8
2365 37
2366 31
2367 14
2368 43
2369 81
2370 7
2371 3
2372 21
2373 71
2374 35
2375 8
2376 76
2377 20
2378 88
2379 76
2380 46
2381 25
2382 69
2383 0
2384 47
2385 3
2386 76
2387 82
2388 31
2389 78
2390 84
2391 17
2392 21
2393 21
2394 87
2395 36
2396 16
2397 76
2398 88
2399 17
2400 59
2401 7
2402 11
2403 4
2404 25
2405 67
2406 25
2407 0
2408 25
2409 47
2410 19
2411 41
2412 6
2413 71
2414 25
2415 21
2416 50
2417 44
2418 10
2419 35
2420 47
2421 6
2422 32
2423 51
2424 28
2425 25
2426 96
2427 0
2428 71
2429 95
2430 37
2431 48
2432 42
2433 48
2434 91
2435 69
2436 59
2437 55
2438 37
2439 16
2440 1
2441 31
2442 84
2443 5
2444 30
2445 31
2446 21
2447 17
2448 21
2449 76
2450 71
2451 21
2452 3
2453 11
2454 53
2455 4
2456 93
2457 31
2458 62
2459 6
2460 7
2461 70
2462 70
2463 42
2464 47
2465 25
2466 25
2467 37
2468 86
2469 53
2470 5
2471 39
2472 9
2473 25
2474 53
2475 31
2476 56
2477 17
2478 81
2479 21
2480 71
2481 34
2482 53
2483 71
2484 43
2485 37
2486 17
2487 37
2488 25
2489 76
2490 25
2491 28
2492 21
2493 80
2494 22
2495 37
2496 14
2497 28
2498 54
2499 47
2500 52
2501 78
2502 3
2503 7
2504 22
2505 87
2506 21
2507 21
2508 74
2509 65
2510 47
2511 74
2512 53
2513 27
2514 15
2515 0
2516 76
2517 4
2518 5
2519 17
2520 57
2521 1
2522 33
2523 5
2524 71
2525 41
2526 81
2527 1
2528 47
2529 31
2530 11
2531 11
2532 26
2533 40
2534 74
2535 30
2536 5
2537 94
2538 74
2539 38
2540 25
2541 8
2542 17
2543 0
2544 0
2545 34
2546 11
2547 17
2548 34
2549 84
2550 28
2551 5
2552 0
2553 96
2554 25
2555 34
2556 0
2557 77
2558 1
2559 53
2560 10
2561 43
2562 96
2563 58
2564 69
2565 77
2566 89
2567 49
2568 62
2569 2
2570 47
2571 11
2572 32
2573 71
2574 3
2575 69
2576 71
2577 35
2578 35
2579 48
2580 68
2581 34
2582 2
2583 4
2584 21
2585 7
2586 11
2587 34
2588 25
2589 28
2590 44
2591 53
2592 68
2593 11
2594 34
2595 76
2596 5
2597 42
2598 7
2599 77
2600 74
2601 76
2602 40
2603 45
2604 28
2605 53
2606 41
2607 3
2608 13
2609 5
2610 11
2611 71
2612 31
2613 34
2614 5
2615 16
2616 76
2617 47
2618 76
2619 53
2620 2
2621 2
2622 21
2623 5
2624 17
2625 92
2626 77
2627 63
2628 65
2629 52
2630 64
2631 5
2632 53
2633 71
2634 34
2635 5
2636 76
2637 2
2638 13
2639 5
2640 22
2641 76
2642 57
2643 68
2644 37
2645 0
2646 3
2647 13
2648 5
2649 34
2650 10
2651 29
2652 2
2653 77
2654 58
2655 31
2656 29
2657 21
2658 11
2659 21
2660 2
2661 88
2662 34
2663 56
2664 29
2665 4
2666 76
2667 82
2668 0
2669 71
2670 15
2671 14
2672 4
2673 11
2674 26
2675 44
2676 40
2677 36
2678 65
2679 10
2680 21
2681 56
2682 17
2683 34
2684 72
2685 5
2686 73
2687 5
2688 11
2689 18
2690 66
2691 22
2692 11
2693 5
2694 0
2695 32
2696 71
2697 37
2698 74
2699 11
2700 44
2701 58
2702 29
2703 17
2704 31
2705 5
2706 56
2707 44
2708 5
2709 31
2710 15
2711 31
2712 56
2713 14
2714 0
2715 56
2716 71
2717 67
2718 2
2719 16
2720 88
2721 6
2722 28
2723 27
2724 36
2725 67
2726 78
2727 87
2728 21
2729 56
2730 17
2731 65
2732 5
2733 16
2734 28
2735 5
2736 2
2737 44
2738 37
2739 88
2740 21
2741 17
2742 0
2743 53
2744 81
2745 49
2746 7
2747 11
2748 11
2749 16
2750 21
2751 17
2752 6
2753 37
2754 11
2755 11
2756 44
2757 34
2758 24
2759 21
2760 0
2761 37
2762 76
2763 90
2764 2
2765 54
2766 71
2767 49
2768 25
2769 31
2770 71
2771 80
2772 53
2773 21
2774 84
2775 21
2776 4
2777 5
2778 15
2779 37
2780 7
2781 92
2782 17
2783 13
2784 71
2785 81
2786 37
2787 54
2788 42
2789 67
2790 30
2791 56
2792 37
2793 5
2794 47
2795 37
2796 19
2797 5
2798 21
2799 41
2800 5
2801 41
2802 5
2803 80
2804 0
2805 37
2806 22
2807 2
2808 85
2809 76
2810 5
2811 7
2812 53
2813 45
2814 48
2815 47
2816 25
2817 2
2818 6
2819 86
2820 25
2821 31
2822 25
2823 41
2824 42
2825 47
2826 25
2827 11
2828 28
2829 34
2830 65
2831 21
2832 84
2833 5
2834 17
2835 13
2836 53
2837 59
2838 42
2839 53
2840 7
2841 6
2842 6
2843 71
2844 37
2845 11
2846 5
2847 5
2848 71
2849 59
2850 29
2851 62
2852 37
2853 5
2854 25
2855 53
2856 76
2857 10
2858 12
2859 86
2860 50
2861 37
2862 25
2863 29
2864 80
2865 25
2866 36
2867 37
2868 92
2869 47
2870 63
2871 76
2872 16
2873 34
2874 29
2875 28
2876 31
2877 6
2878 71
2879 2
2880 16
2881 80
2882 34
2883 76
2884 87
2885 2
2886 5
2887 34
2888 6
2889 17
2890 82
2891 81
2892 53
2893 29
2894 34
2895 64
2896 25
2897 35
2898 87
2899 2
2900 92
2901 53
2902 76
2903 25
2904 34
2905 71
2906 21
2907 76
2908 6
2909 80
2910 0
2911 69
2912 41
2913 21
2914 34
2915 69
2916 21
2917 11
2918 4
2919 5
2920 16
2921 71
2922 25
2923 16
2924 25
2925 44
2926 21
2927 11
2928 5
2929 53
2930 29
2931 46
2932 11
2933 59
2934 43
2935 7
2936 50
2937 76
2938 37
2939 22
2940 31
2941 0
2942 43
2943 32
2944 31
2945 37
2946 13
2947 0
2948 37
2949 71
2950 29
2951 53
2952 5
2953 15
2954 15
2955 44
2956 53
2957 28
2958 25
2959 65
2960 11
2961 23
2962 46
2963 5
2964 26
2965 26
2966 23
2967 22
2968 53
2969 21
2970 5
2971 31
2972 11
2973 59
2974 17
2975 9
2976 71
2977 25
2978 39
2979 29
2980 17
2981 22
2982 36
2983 29
2984 5
2985 56
2986 47
2987 53
2988 16
2989 17
2990 31
2991 34
2992 54
2993 36
2994 3
2995 2
2996 31
2997 25
2998 47
2999 21
3000 34
3001 85
3002 41
3003 71
3004 31
3005 29
3006 23
3007 53
3008 7
3009 0
3010 6
3011 28
3012 86
3013 41
3014 47
3015 0
3016 28
3017 17
3018 84
3019 53
3020 50
3021 71
3022 7
3023 47
3024 3
3025 26
3026 89
3027 34
3028 21
3029 3
3030 71
3031 0
3032 29
3033 37
3034 6
3035 26
3036 23
3037 21
3038 42
3039 28
3040 90
3041 79
3042 71
3043 22
3044 69
3045 23
3046 95
3047 45
3048 31
3049 33
3050 41
3051 76
3052 11
3053 2
3054 74
3055 82
3056 42
3057 28
3058 36
3059 41
3060 11
3061 8
3062 29
3063 53
3064 0
3065 25
3066 29
3067 28
3068 88
3069 17
3070 76
3071 28
3072 67
3073 19
3074 53
3075 8
3076 53
3077 2
3078 76
3079 29
3080 88
3081 42
3082 32
3083 20
3084 72
3085 52
3086 15
3087 57
3088 5
3089 41
3090 42
3091 11
3092 41
3093 53
3094 56
3095 29
3096 56
3097 13
3098 71
3099 34
3100 68
3101 18
3102 68
3103 77
3104 8
3105 10
3106 17
3107 31
3108 60
3109 5
3110 37
3111 20
3112 41
3113 23
3114 4
3115 31
3116 5
3117 74
3118 43
3119 26
3120 89
3121 44
3122 5
3123 74
3124 43
3125 77
3126 85
3127 39
3128 69
3129 43
3130 17
3131 17
3132 82
3133 81
3134 34
3135 31
3136 11
3137 17
3138 5
3139 11
3140 5
3141 27
3142 23
3143 29
3144 67
3145 11
3146 6
3147 28
3148 68
3149 59
3150 9
3151 30
3152 3
3153 84
3154 56
3155 11
3156 21
3157 21
3158 30
3159 51
3160 21
3161 38
3162 51
3163 7
3164 5
3165 87
3166 81
3167 17
3168 71
3169 84
3170 50
3171 46
3172 88
3173 34
3174 56
3175 67
3176 21
3177 13
3178 34
3179 26
3180 36
3181 88
3182 82
3183 36
3184 17
3185 21
3186 23
3187 45
3188 11
3189 88
3190 11
3191 49
3192 45
3193 44
3194 41
3195 70
3196 21
3197 58
3198 4
3199 2
3200 76
3201 89
3202 86
3203 44
3204 21
3205 0
3206 5
3207 5
3208 42
3209 21
3210 47
3211 91
3212 5
3213 2
3214 76
3215 36
3216 0
3217 72
3218 71
3219 36
3220 70
3221 29
3222 26
3223 76
3224 0
3225 25
3226 74
3227 5
3228 0
3229 76
3230 90
3231 5
3232 13
3233 71
3234 37
3235 23
3236 15
3237 5
3238 21
3239 74
3240 11
3241 17
3242 2
3243 67
3244 67
3245 53
3246 88
3247 49
3248 0
3249 35
3250 68
3251 5
3252 5
3253 53
3254 40
3255 56
3256 11
3257 76
3258 93
3259 63
3260 17
3261 2
3262 17
3263 16
3264 82
3265 21
3266 53
3267 24
3268 25
3269 69
3270 2
3271 46
3272 29
3273 61
3274 53
3275 7
3276 21
3277 76
3278 68
3279 15
3280 40
3281 41
3282 69
3283 7
3284 91
3285 76
3286 71
3287 5
3288 29
3289 21
3290 88
3291 62
3292 76
3293 2
3294 67
3295 2
3296 7
3297 52
3298 7
3299 29
3300 7
3301 11
3302 2
3303 95
3304 11
3305 56
3306 1
3307 5
3308 71
3309 36
3310 49
3311 44
3312 86
3313 44
3314 77
3315 6
3316 81
3317 71
3318 76
3319 46
3320 44
3321 12
3322 76
3323 76
3324 7
3325 16
3326 0
3327 5
3328 11
3329 42
3330 65
3331 89
3332 6
3333 23
3334 51
3335 49
3336 13
3337 65
3338 0
3339 12
3340 2
3341 54
3342 81
3343 36
3344 21
3345 65
3346 65
3347 5
3348 44
3349 48
3350 0
3351 37
3352 0
3353 88
3354 53
3355 16
3356 32
3357 2
3358 6
3359 42
3360 25
3361 0
3362 80
3363 29
3364 14
3365 25
3366 5
3367 14
3368 15
3369 78
3370 27
3371 31
3372 49
3373 9
3374 25
3375 5
3376 5
3377 29
3378 76
3379 2
3380 36
3381 11
3382 17
3383 5
3384 6
3385 13
3386 84
3387 32
3388 68
3389 71
3390 40
3391 41
3392 27
3393 2
3394 5
3395 59
3396 15
3397 65
3398 48
3399 36
3400 5
3401 81
3402 5
3403 71
3404 25
3405 49
3406 54
3407 69
3408 44
3409 77
3410 76
3411 22
3412 21
3413 21
3414 71
3415 71
3416 58
3417 4
3418 5
3419 50
3420 5
3421 80
3422 6
3423 2
3424 17
3425 68
3426 8
3427 17
3428 7
3429 18
3430 7
3431 11
3432 22
3433 5
3434 76
3435 17
3436 31
3437 23
3438 92
3439 31
3440 86
3441 11
3442 82
3443 47
3444 2
3445 71
3446 50
3447 77
3448 44
3449 41
3450 25
3451 21
3452 7
3453 81
3454 42
3455 47
3456 11
3457 2
3458 67
3459 9
3460 16
3461 80
3462 58
3463 11
3464 46
3465 5
3466 31
3467 53
3468 71
3469 44
3470 31
3471 37
3472 57
3473 37
3474 5
3475 5
3476 44
3477 5
3478 53
3479 70
3480 23
3481 11
3482 22
3483 36
3484 76
3485 88
3486 67
3487 16
3488 45
3489 5
3490 71
3491 11
3492 7
3493 37
3494 85
3495 11
3496 11
3497 31
3498 47
3499 6
3500 61
3501 42
3502 5
3503 90
3504 7
3505 5
3506 44
3507 41
3508 34
3509 24
3510 42
3511 76
3512 34
3513 64
3514 33
3515 92
3516 17
3517 17
3518 72
3519 25
3520 53
3521 71
3522 5
3523 20
3524 91
3525 31
3526 76
3527 53
3528 41
3529 40
3530 25
3531 0
3532 5
3533 65
3534 71
3535 36
3536 36
3537 7
3538 74
3539 18
3540 49
3541 61
3542 17
3543 54
3544 37
3545 47
3546 7
3547 26
3548 28
3549 84
3550 5
3551 11
3552 11
3553 30
3554 28
3555 76
3556 53
3557 9
3558 22
3559 53
3560 43
3561 71
3562 0
3563 74
3564 21
3565 5
3566 34
3567 52
3568 7
3569 3
3570 13
3571 26
3572 21
3573 37
3574 11
3575 63
3576 21
3577 2
3578 34
3579 26
3580 13
3581 2
3582 0
3583 15
3584 76
3585 37
3586 28
3587 72
3588 11
3589 31
3590 42
3591 2
3592 47
3593 56
3594 26
3595 65
3596 26
3597 23
3598 76
3599 8
3600 77
3601 34
3602 32
3603 43
3604 28
3605 57
3606 11
3607 68
3608 34
3609 68
3610 48
3611 33
3612 39
3613 64
3614 5
3615 25
3616 17
3617 18
3618 77
3619 0
3620 67
3621 37
3622 11
3623 5
3624 42
3625 16
3626 4
3627 34
3628 3
3629 53
3630 86
3631 33
3632 81
3633 92
3634 2
3635 2
3636 48
3637 5
3638 17
3639 71
3640 83
3641 4
3642 21
3643 59
3644 21
3645 84
3646 19
3647 11
3648 81
3649 11
3650 17
3651 41
3652 11
3653 31
3654 17
3655 41
3656 71
3657 44
3658 34
3659 56
3660 33
3661 80
3662 5
3663 21
3664 3
3665 31
3666 17
3667 35
3668 5
3669 42
3670 12
3671 30
3672 29
3673 42
3674 81
3675 59
3676 55
3677 76
3678 71
3679 77
3680 35
3681 41
3682 44
3683 21
3684 11
3685 71
3686 47
3687 5
3688 58
3689 0
3690 83
3691 76
3692 34
3693 76
3694 31
3695 49
3696 25
3697 43
3698 49
3699 41
3700 45
3701 39
3702 76
3703 50
3704 22
3705 66
3706 18
3707 22
3708 36
3709 2
3710 26
3711 70
3712 65
3713 5
3714 70
3715 31
3716 87
3717 0
3718 17
3719 37
3720 29
3721 11
3722 25
3723 5
3724 25
3725 30
3726 70
3727 5
3728 12
3729 0
3730 29
3731 21
3732 17
3733 27
3734 0
3735 2
3736 70
3737 38
3738 44
3739 76
3740 91
3741 31
3742 16
3743 22
3744 23
3745 56
3746 56
3747 4
3748 41
3749 87
3750 81
3751 43
3752 21
3753 2
3754 56
3755 25
3756 36
3757 17
3758 16
3759 0
3760 5
3761 70
3762 0
3763 25
3764 31
3765 1
3766 40
3767 75
3768 21
3769 88
3770 43
3771 37
3772 71
3773 31
3774 28
3775 84
3776 37
3777 5
3778 71
3779 11
3780 21
3781 76
3782 24
3783 44
3784 71
3785 25
3786 84
3787 0
3788 21
3789 44
3790 11
3791 58
3792 24
3793 53
3794 17
3795 26
3796 82
3797 50
3798 17
3799 16
3800 88
3801 76
3802 81
3803 76
3804 46
3805 86
3806 25
3807 71
3808 11
3809 17
3810 17
3811 44
3812 31
3813 42
3814 2
3815 59
3816 47
3817 44
3818 19
3819 11
3820 47
3821 91
3822 84
3823 15
3824 85
3825 27
3826 71
3827 41
3828 24
3829 2
3830 17
3831 17
3832 42
3833 6
3834 71
3835 42
3836 34
3837 47
3838 25
3839 27
3840 44
3841 93
3842 5
3843 31
3844 53
3845 15
3846 71
3847 85
3848 76
3849 16
3850 17
3851 44
3852 76
3853 41
3854 25
3855 25
3856 16
3857 23
3858 25
3859 65
3860 2
3861 53
3862 41
3863 65
3864 5
3865 32
3866 44
3867 41
3868 6
3869 40
3870 26
3871 76
3872 75
3873 29
3874 31
3875 5
3876 80
3877 41
3878 37
3879 71
3880 21
3881 65
3882 0
3883 37
3884 37
3885 41
3886 6
3887 5
3888 21
3889 6
3890 76
3891 5
3892 36
3893 85
3894 47
3895 37
3896 42
3897 2
3898 11
3899 63
3900 31
3901 92
3902 25
3903 37
3904 31
3905 72
3906 5
3907 25
3908 21
3909 67
3910 53
3911 67
3912 32
3913 23
3914 5
3915 41
3916 80
3917 4
3918 29
3919 0
3920 11
3921 22
3922 77
3923 26
3924 13
3925 18
3926 41
3927 34
3928 47
3929 2
3930 37
3931 5
3932 0
3933 5
3934 84
3935 11
3936 5
3937 71
3938 26
3939 41
3940 76
3941 0
3942 34
3943 42
3944 31
3945 53
3946 31
3947 29
3948 53
3949 29
3950 28
3951 0
3952 6
3953 31
3954 5
3955 5
3956 37
3957 5
3958 76
3959 76
3960 59
3961 26
3962 88
3963 25
3964 21
3965 17
3966 28
3967 76
3968 5
3969 42
3970 47
3971 21
3972 5
3973 6
3974 71
3975 94
3976 11
3977 77
3978 53
3979 2
3980 46
3981 34
3982 31
3983 29
3984 41
3985 30
3986 41
3987 77
3988 76
3989 34
3990 42
3991 29
3992 0
3993 76
3994 34
3995 34
3996 25
3997 21
3998 5
3999 76
4000 81
4001 31
4002 28
4003 5
4004 59
4005 23
4006 5
4007 76
4008 6
4009 51
4010 6
4011 44
4012 6
4013 29
4014 71
4015 25
4016 75
4017 26
4018 85
4019 71
4020 29
4021 27
4022 86
4023 34
4024 26
4025 25
4026 1
4027 25
4028 17
4029 83
4030 76
4031 31
4032 80
4033 29
4034 2
4035 76
4036 53
4037 83
4038 5
4039 31
4040 47
4041 37
4042 4
4043 69
4044 21
4045 2
4046 76
4047 34
4048 31
4049 54
4050 28
4051 25
4052 70
4053 29
4054 21
4055 29
4056 37
4057 72
4058 17
4059 29
4060 6
4061 6
4062 34
4063 53
4064 26
4065 34
4066 6
4067 2
4068 25
4069 31
4070 17
4071 23
4072 77
4073 29
4074 0
4075 11
4076 8
4077 16
4078 25
4079 81
4080 29
4081 86
4082 71
4083 37
4084 5
4085 5
4086 28
4087 59
4088 28
4089 33
4090 17
4091 31
4092 67
4093 47
4094 23
4095 60
4096 8
4097 38
4098 81
4099 43
4100 20
4101 5
4102 66
4103 0
4104 6
4105 81
4106 71
4107 9
4108 22
4109 68
4110 42
4111 42
4112 59
4113 80
4114 17
4115 30
4116 50
4117 44
4118 5
4119 11
4120 28
4121 71
4122 43
4123 6
4124 40
4125 3
4126 54
4127 80
4128 65
4129 8
4130 96
4131 31
4132 65
4133 21
4134 32
4135 49
4136 0
4137 44
4138 34
4139 29
4140 87
4141 65
4142 2
4143 88
4144 6
4145 33
4146 31
4147 27
4148 55
4149 15
4150 35
4151 5
4152 34
4153 1
4154 29
4155 44
4156 40
4157 71
4158 43
4159 79
4160 37
4161 36
4162 84
4163 4
4164 5
4165 11
4166 13
4167 71
4168 5
4169 49
4170 46
4171 61
4172 34
4173 29
4174 29
4175 38
4176 64
4177 88
4178 46
4179 34
4180 50
4181 6
4182 41
4183 9
4184 37
4185 71
4186 31
4187 43
4188 48
4189 26
4190 5
4191 13
4192 74
4193 50
4194 71
4195 40
4196 71
4197 12
4198 21
4199 2
4200 52
4201 11
4202 49
4203 86
4204 15
4205 23
4206 75
4207 62
4208 23
4209 72
4210 47
4211 11
4212 52
4213 88
4214 44
4215 22
4216 55
4217 5
4218 54
4219 8
4220 49
4221 44
4222 37
4223 95
4224 21
4225 71
4226 48
4227 49
4228 44
4229 51
4230 24
4231 6
4232 65
4233 49
4234 74
4235 20
4236 88
4237 15
4238 53
4239 71
4240 77
4241 26
4242 82
4243 23
4244 71
4245 58
4246 8
4247 44
4248 71
4249 56
4250 25
4251 44
4252 35
4253 51
4254 11
4255 9
4256 44
4257 37
4258 23
4259 53
4260 21
4261 0
4262 13
4263 25
4264 8
4265 64
4266 43
4267 67
4268 16
4269 31
4270 88
4271 56
4272 50
4273 71
4274 70
4275 94
4276 76
4277 34
4278 5
4279 87
4280 60
4281 0
4282 71
4283 26
4284 61
4285 49
4286 44
4287 11
4288 44
4289 35
4290 65
4291 13
4292 26
4293 85
4294 4
4295 44
4296 71
4297 54
4298 72
4299 29
4300 44
4301 76
4302 75
4303 6
4304 76
4305 58
4306 76
4307 50
4308 16
4309 34
4310 93
4311 5
4312 5
4313 33
4314 9
4315 27
4316 7
4317 12
4318 13
4319 41
4320 71
4321 91
4322 23
4323 57
4324 52
4325 13
4326 71
4327 39
4328 42
4329 25
4330 56
4331 58
4332 41
4333 80
4334 65
4335 44
4336 81
4337 13
4338 39
4339 77
4340 74
4341 5
4342 42
4343 76
4344 68
4345 4
4346 42
4347 80
4348 60
4349 88
4350 65
4351 59
4352 18
4353 42
4354 42
4355 44
4356 13
4357 91
4358 4
4359 56
4360 9
4361 17
4362 77
4363 9
4364 31
4365 1
4366 12
4367 63
4368 23
4369 73
4370 65
4371 13
4372 74
4373 69
4374 14
4375 82
4376 8
4377 77
4378 54
4379 25
4380 17
4381 59
4382 78
4383 50
4384 49
4385 25
4386 21
4387 10
4388 74
4389 69
4390 63
4391 11
4392 4
4393 76
4394 82
4395 36
4396 26
4397 82
4398 17
4399 80
4400 73
4401 15
4402 25
4403 41
4404 80
4405 68
4406 80
4407 92
4408 25
4409 25
4410 0
4411 59
4412 29
4413 18
4414 11
4415 25
4416 56
4417 13
4418 69
4419 27
4420 71
4421 67
4422 68
4423 70
4424 80
4425 0
4426 44
4427 46
4428 27
4429 25
4430 81
4431 87
4432 21
4433 9
4434 46
4435 5
4436 47
4437 46
4438 10
4439 19
4440 28
4441 12
4442 23
4443 13
4444 70
4445 24
4446 71
4447 10
4448 29
4449 42
4450 85
4451 0
4452 0
4453 76
4454 34
4455 51
4456 61
4457 0
4458 76
4459 0
4460 71
4461 31
4462 21
4463 62
4464 14
4465 32
4466 31
4467 32
4468 93
4469 59
4470 40
4471 27
4472 70
4473 73
4474 76
4475 16
4476 21
4477 92
4478 49
4479 25
4480 67
4481 53
4482 25
4483 37
4484 22
4485 31
4486 15
4487 25
4488 77
4489 31
4490 5
4491 37
4492 47
4493 76
4494 53
4495 47
4496 53
4497 77
4498 0
4499 65
4500 89
4501 76
4502 25
4503 81
4504 0
4505 15
4506 23
4507 32
4508 21
4509 53
4510 37
4511 25
4512 57
4513 87
4514 31
4515 21
4516 21
4517 71
4518 3
4519 13
4520 73
4521 17
4522 42
4523 22
4524 76
4525 2
4526 25
4527 49
4528 30
4529 21
4530 41
4531 31
4532 2
4533 76
4534 2
4535 71
4536 71
4537 3
4538 3
4539 2
4540 56
4541 0
4542 13
4543 59
4544 59
4545 47
4546 78
4547 17
4548 37
4549 41
4550 74
4551 91
4552 74
4553 28
4554 68
4555 13
4556 17
4557 5
4558 37
4559 36
4560 37
4561 72
4562 31
4563 92
4564 31
4565 18
4566 3
4567 59
4568 18
4569 47
4570 44
4571 70
4572 0
4573 76
4574 31
4575 15
4576 2
4577 34
4578 46
4579 18
4580 0
4581 83
4582 1
4583 76
4584 66
4585 33
4586 5
4587 90
4588 2
4589 10
4590 25
4591 71
4592 50
4593 2
4594 48
4595 17
4596 80
4597 71
4598 31
4599 53
4600 34
4601 82
4602 50
4603 41
4604 48
4605 5
4606 21
4607 37
4608 16
4609 42
4610 26
4611 77
4612 8
4613 7
4614 76
4615 92
4616 10
4617 2
4618 43
4619 13
4620 15
4621 68
4622 39
4623 2
4624 69
4625 81
4626 47
4627 56
4628 71
4629 41
4630 71
4631 69
4632 56
4633 71
4634 65
4635 21
4636 11
4637 25
4638 86
4639 71
4640 34
4641 41
4642 8
4643 47
4644 50
4645 69
4646 82
4647 38
4648 76
4649 38
4650 71
4651 71
4652 43
4653 56
4654 92
4655 34
4656 72
4657 5
4658 69
4659 82
4660 83
4661 41
4662 73
4663 64
4664 89
4665 76
4666 17
4667 20
4668 71
4669 9
4670 50
4671 21
4672 21
4673 92
4674 13
4675 0
4676 4
4677 26
4678 27
4679 19
4680 5
4681 71
4682 43
4683 50
4684 5
4685 13
4686 5
4687 25
4688 5
4689 17
4690 7
4691 46
4692 92
4693 28
4694 42
4695 71
4696 0
4697 47
4698 26
4699 14
4700 28
4701 41
4702 75
4703 5
4704 28
4705 13
4706 5
4707 46
4708 71
4709 0
4710 9
4711 34
4712 43
4713 15
4714 36
4715 76
4716 29
4717 4
4718 88
4719 5
4720 92
4721 23
4722 11
4723 71
4724 6
4725 2
4726 28
4727 71
4728 44
4729 29
4730 67
4731 76
4732 36
4733 0
4734 76
4735 92
4736 25
4737 25
4738 56
4739 21
4740 17
4741 37
4742 17
4743 4
4744 21
4745 21
4746 24
4747 0
4748 5
4749 71
4750 65
4751 16
4752 28
4753 2
4754 21
4755 44
4756 53
4757 37
4758 56
4759 87
4760 16
4761 11
4762 67
4763 23
4764 17
4765 5
4766 5
4767 29
4768 65
4769 41
4770 40
4771 71
4772 2
4773 67
4774 28
4775 37
4776 53
4777 44
4778 71
4779 71
4780 2
4781 14
4782 17
4783 22
4784 71
4785 16
4786 15
4787 44
4788 21
4789 85
4790 25
4791 71
4792 25
4793 11
4794 76
4795 21
4796 93
4797 5
4798 44
4799 25
4800 34
4801 19
4802 28
4803 71
4804 0
4805 56
4806 5
4807 0
4808 2
4809 71
4810 31
4811 19
4812 76
4813 56
4814 11
4815 26
4816 16
4817 25
4818 62
4819 46
4820 21
4821 47
4822 71
4823 10
4824 8
4825 46
4826 90
4827 11
4828 53
4829 76
4830 96
4831 11
4832 21
4833 73
4834 7
4835 37
4836 31
4837 71
4838 47
4839 48
4840 23
4841 44
4842 11
4843 56
4844 8
4845 2
4846 11
4847 54
4848 53
4849 42
4850 86
4851 16
4852 11
4853 47
4854 76
4855 11
4856 25
4857 21
4858 7
4859 17
4860 47
4861 9
4862 41
4863 7
4864 1
4865 80
4866 25
4867 44
4868 37
4869 34
4870 86
4871 21
4872 57
4873 21
4874 56
4875 49
4876 71
4877 76
4878 0
4879 67
4880 53
4881 69
4882 41
4883 70
4884 36
4885 47
4886 44
4887 5
4888 21
4889 93
4890 11
4891 88
4892 47
4893 67
4894 2
4895 5
4896 11
4897 8
4898 31
4899 44
4900 91
4901 5
4902 2
4903 34
4904 41
4905 8
4906 21
4907 53
4908 67
4909 76
4910 37
4911 76
4912 31
4913 4
4914 37
4915 25
4916 41
4917 5
4918 17
4919 32
4920 17
4921 29
4922 25
4923 54
4924 65
4925 5
4926 77
4927 29
4928 2
4929 31
4930 34
4931 10
4932 11
4933 34
4934 6
4935 47
4936 31
4937 36
4938 86
4939 11
4940 76
4941 17
4942 44
4943 29
4944 5
4945 49
4946 42
4947 21
4948 46
4949 65
4950 25
4951 5
4952 34
4953 72
4954 76
4955 4
4956 2
4957 80
4958 84
4959 8
4960 17
4961 37
4962 21
4963 25
4964 5
4965 77
4966 37
4967 34
4968 28
4969 31
4970 23
4971 37
4972 47
4973 47
4974 34
4975 93
4976 5
4977 33
4978 47
4979 21
4980 77
4981 84
4982 54
4983 53
4984 25
4985 26
4986 2
4987 26
4988 81
4989 5
4990 26
4991 37
4992 25
4993 29
4994 6
4995 44
4996 11
4997 28
4998 31
4999 5
5000 47
5001 41
5002 34
5003 93
5004 41
5005 6
5006 47
5007 6
5008 26
5009 4
5010 44
5011 26
5012 29
5013 11
5014 0
5015 47
5016 37
5017 11
5018 41
5019 2
5020 6
5021 17
5022 48
5023 34
5024 31
5025 5
5026 80
5027 71
5028 2
5029 71
5030 21
5031 86
5032 50
5033 34
5034 28
5035 6
5036 77
5037 29
5038 35
5039 23
5040 70
5041 0
5042 65
5043 91
5044 2
5045 29
5046 2
5047 11
5048 25
5049 0
5050 41
5051 86
5052 3
5053 21
5054 5
5055 5
5056 5
5057 76
5058 53
5059 88
5060 15
5061 71
5062 5
5063 5
5064 65
5065 69
5066 5
5067 34
5068 28
5069 68
5070 37
5071 4
5072 35
5073 76
5074 53
5075 6
5076 37
5077 50
5078 34
5079 2
5080 27
5081 6
5082 0
5083 5
5084 33
5085 76
5086 27
5087 37
5088 6
5089 76
5090 0
5091 34
5092 53
5093 39
5094 14
5095 45
5096 29
5097 14
5098 5
5099 5
5100 73
5101 17
5102 81
5103 28
5104 23
5105 31
5106 47
5107 25
5108 47
5109 41
5110 29
5111 25
5112 38
5113 29
5114 21
5115 76
5116 8
5117 23
5118 43
5119 26
5120 40
5121 71
5122 40
5123 89
5124 33
5125 34
5126 31
5127 2
5128 63
5129 21
5130 45
5131 44
5132 5
5133 33
5134 71
5135 76
5136 84
5137 37
5138 13
5139 43
5140 31
5141 5
5142 54
5143 41
5144 76
5145 4
5146 53
5147 15
5148 96
5149 22
5150 64
5151 2
5152 27
5153 67
5154 26
5155 74
5156 32
5157 71
5158 76
5159 77
5160 5
5161 5
5162 88
5163 84
5164 13
5165 79
5166 5
5167 80
5168 40
5169 9
5170 23
5171 34
5172 76
5173 85
5174 6
5175 28
5176 15
5177 2
5178 60
5179 6
5180 61
5181 35
5182 45
5183 2
5184 19
5185 17
5186 40
5187 73
5188 3
5189 28
5190 40
5191 71
5192 44
5193 28
5194 37
5195 13
5196 21
5197 75
5198 57
5199 26
5200 31
5201 22
5202 42
5203 17
5204 11
5205 21
5206 21
5207 16
5208 3
5209 71
5210 17
5211 6
5212 71
5213 17
5214 21
5215 29
5216 90
5217 15
5218 82
5219 4
5220 79
5221 47
5222 31
5223 92
5224 87
5225 53
5226 28
5227 29
5228 20
5229 11
5230 44
5231 30
5232 17
5233 56
5234 21
5235 52
5236 58
5237 92
5238 2
5239 93
5240 74
5241 21
5242 88
5243 5
5244 58
5245 13
5246 76
5247 25
5248 5
5249 5
5250 7
5251 26
5252 49
5253 29
5254 0
5255 21
5256 6
5257 41
5258 67
5259 76
5260 2
5261 51
5262 47
5263 5
5264 76
5265 5
5266 38
5267 2
5268 60
5269 2
5270 87
5271 5
5272 52
5273 29
5274 9
5275 72
5276 24
5277 88
5278 11
5279 13
5280 88
5281 0
5282 41
5283 44
5284 76
5285 76
5286 69
5287 24
5288 37
5289 85
5290 74
5291 76
5292 36
5293 5
5294 17
5295 46
5296 21
5297 5
5298 5
5299 76
5300 36
5301 3
5302 5
5303 6
5304 21
5305 76
5306 41
5307 11
5308 5
5309 85
5310 21
5311 91
5312 56
5313 25
5314 2
5315 51
5316 28
5317 13
5318 85
5319 2
5320 81
5321 2
5322 0
5323 44
5324 10
5325 56
5326 71
5327 16
5328 69
5329 16
5330 26
5331 21
5332 39
5333 4
5334 2
5335 71
5336 5
5337 2
5338 44
5339 5
5340 82
5341 58
5342 17
5343 12
5344 15
5345 5
5346 2
5347 18
5348 42
5349 41
5350 5
5351 59
5352 76
5353 85
5354 88
5355 77
5356 5
5357 25
5358 25
5359 67
5360 33
5361 92
5362 21
5363 63
5364 5
5365 11
5366 5
5367 86
5368 74
5369 85
5370 38
5371 21
5372 67
5373 36
5374 13
5375 19
5376 5
5377 76
5378 7
5379 76
5380 71
5381 78
5382 3
5383 80
5384 29
5385 48
5386 2
5387 28
5388 76
5389 40
5390 2
5391 63
5392 21
5393 86
5394 30
5395 84
5396 2
5397 25
5398 2
5399 11
5400 44
5401 6
5402 34
5403 5
5404 67
5405 21
5406 4
5407 0
5408 17
5409 5
5410 0
5411 37
5412 15
5413 42
5414 44
5415 71
5416 1
5417 37
5418 7
5419 6
5420 71
5421 93
5422 29
5423 5
5424 21
5425 17
5426 7
5427 73
5428 85
5429 25
5430 76
5431 68
5432 21
5433 78
5434 42
5435 13
5436 74
5437 11
5438 81
5439 17
5440 2
5441 44
5442 50
5443 6
5444 16
5445 71
5446 0
5447 16
5448 58
5449 71
5450 2
5451 25
5452 85
5453 5
5454 47
5455 36
5456 13
5457 47
5458 47
5459 51
5460 17
5461 0
5462 47
5463 25
5464 86
5465 25
5466 21
5467 12
5468 10
5469 21
5470 2
5471 36
5472 25
5473 33
5474 76
5475 58
5476 69
5477 11
5478 34
5479 21
5480 76
5481 10
5482 95
5483 31
5484 86
5485 43
5486 50
5487 41
5488 66
5489 47
5490 71
5491 5
5492 11
5493 25
5494 5
5495 50
5496 0
5497 2
5498 2
5499 11
5500 33
5501 16
5502 71
5503 74
5504 17
5505 5
5506 31
5507 2
5508 92
5509 71
5510 42
5511 37
5512 21
5513 5
5514 17
5515 21
5516 47
5517 51
5518 76
5519 26
5520 71
5521 53
5522 25
5523 68
5524 72
5525 5
5526 16
5527 38
5528 0
5529 11
5530 53
5531 21
5532 21
5533 47
5534 53
5535 3
5536 11
5537 4
5538 40
5539 11
5540 78
5541 17
5542 71
5543 71
5544 17
5545 64
5546 6
5547 5
5548 4
5549 90
5550 0
5551 37
5552 11
5553 5
5554 31
5555 31
5556 53
5557 69
5558 34
5559 25
5560 60
5561 17
5562 34
5563 0
5564 25
5565 84
5566 40
5567 5
5568 24
5569 5
5570 14
5571 44
5572 69
5573 86
5574 31
5575 84
5576 34
5577 59
5578 59
5579 37
5580 11
5581 90
5582 76
5583 34
5584 4
5585 82
5586 33
5587 40
5588 41
5589 0
5590 19
5591 2
5592 82
5593 17
5594 44
5595 31
5596 71
5597 28
5598 70
5599 65
5600 16
5601 76
5602 65
5603 2
5604 28
5605 92
5606 73
5607 22
5608 69
5609 93
5610 90
5611 0
5612 76
5613 53
5614 22
5615 46
5616 33
5617 11
5618 5
5619 31
5620 38
5621 17
5622 74
5623 19
5624 5
5625 53
5626 5
5627 31
5628 33
5629 5
5630 68
5631 5
5632 3
5633 34
5634 13
5635 15
5636 74
5637 84
5638 22
5639 65
5640 76
5641 74
5642 44
5643 22
5644 76
5645 80
5646 28
5647 20
5648 47
5649 48
5650 53
5651 36
5652 22
5653 37
5654 80
5655 4
5656 25
5657 9
5658 24
5659 43
5660 13
5661 2
5662 2
5663 44
5664 5
5665 37
5666 2
5667 39
5668 47
5669 45
5670 84
5671 2
5672 15
5673 25
5674 20
5675 76
5676 37
5677 41
5678 11
5679 71
5680 71
5681 65
5682 88
5683 26
5684 13
5685 92
5686 50
5687 10
5688 41
5689 37
5690 34
5691 69
5692 41
5693 77
5694 71
5695 26
5696 90
5697 13
5698 5
5699 76
5700 15
5701 71
5702 53
5703 94
5704 11
5705 61
5706 71
5707 2
5708 43
5709 11
5710 17
5711 71
5712 25
5713 21
5714 0
5715 70
5716 12
5717 74
5718 71
5719 50
5720 0
5721 34
5722 22
5723 61
5724 79
5725 46
5726 34
5727 37
5728 28
5729 76
5730 53
5731 17
5732 5
5733 77
5734 21
5735 8
5736 25
5737 77
5738 11
5739 21
5740 76
5741 34
5742 76
5743 76
5744 44
5745 26
5746 8
5747 5
5748 71
5749 50
5750 92
5751 5
5752 71
5753 4
5754 6
5755 36
5756 11
5757 2
5758 5
5759 34
5760 36
5761 82
5762 17
5763 25
5764 37
5765 14
5766 74
5767 3
5768 71
5769 5
5770 11
5771 49
5772 0
5773 65
5774 31
5775 37
5776 2
5777 76
5778 46
5779 18
5780 26
5781 71
5782 23
5783 13
5784 22
5785 5
5786 0
5787 5
5788 60
5789 90
5790 11
5791 21
5792 67
5793 39
5794 42
5795 5
5796 71
5797 25
5798 17
5799 27
5800 71
5801 17
5802 22
5803 11
5804 53
5805 46
5806 17
5807 43
5808 28
5809 33
5810 42
5811 21
5812 2
5813 47
5814 53
5815 31
5816 31
5817 5
5818 47
5819 53
5820 11
5821 25
5822 17
5823 0
5824 21
5825 81
5826 23
5827 11
5828 53
5829 88
5830 31
5831 26
5832 5
5833 34
5834 36
5835 47
5836 31
5837 76
5838 8
5839 8
5840 7
5841 16
5842 2
5843 27
5844 5
5845 27
5846 31
5847 17
5848 76
5849 25
5850 85
5851 81
5852 5
5853 0
5854 17
5855 5
5856 56
5857 53
5858 6
5859 53
5860 5
5861 41
5862 41
5863 11
5864 44
5865 0
5866 53
5867 71
5868 90
5869 28
5870 37
5871 77
5872 2
5873 11
5874 21
5875 0
5876 76
5877 46
5878 11
5879 21
5880 5
5881 16
5882 25
5883 25
5884 11
5885 52
5886 24
5887 41
5888 34
5889 5
5890 41
5891 2
5892 37
5893 77
5894 76
5895 84
5896 17
5897 5
5898 5
5899 29
5900 91
5901 0
5902 31
5903 83
5904 78
5905 21
5906 15
5907 5
5908 7
5909 7
5910 34
5911 37
5912 11
5913 5
5914 5
5915 25
5916 26
5917 31
5918 0
5919 64
5920 89
5921 25
5922 21
5923 29
5924 29
5925 42
5926 78
5927 41
5928 31
5929 21
5930 34
5931 71
5932 86
5933 29
5934 34
5935 29
5936 53
5937 23
5938 5
5939 31
5940 29
5941 17
5942 41
5943 1
5944 34
5945 34
5946 77
5947 5
5948 69
5949 54
5950 50
5951 92
5952 53
5953 31
5954 86
5955 5
5956 21
5957 6
5958 47
5959 31
5960 44
5961 53
5962 41
5963 71
5964 81
5965 75
5966 58
5967 21
5968 2
5969 6
5970 47
5971 25
5972 37
5973 29
5974 21
5975 25
5976 77
5977 76
5978 25
5979 0
5980 77
5981 2
5982 47
5983 6
5984 17
5985 31
5986 31
5987 87
5988 41
5989 86
5990 31
5991 31
5992 76
5993 0
5994 31
5995 5
5996 53
5997 76
5998 34
5999 21
6000 53
6001 5
6002 47
6003 37
6004 0
6005 41
6006 23
6007 13
6008 23
6009 47
6010 31
6011 73
6012 76
6013 25
6014 21
6015 37
6016 16
6017 6
6018 71
6019 2
6020 50
6021 42
6022 2
6023 28
6024 32
6025 61
6026 76
6027 5
6028 2
6029 50
6030 53
6031 25
6032 31
6033 26
6034 35
6035 29
6036 19
6037 23
6038 47
6039 76
6040 53
6041 2
6042 2
6043 4
6044 36
6045 53
6046 77
6047 25
6048 2
6049 0
6050 5
6051 59
6052 1
6053 87
6054 23
6055 71
6056 29
6057 53
6058 1
6059 31
6060 13
6061 13
6062 21
6063 28
6064 44
6065 87
6066 72
6067 26
6068 85
6069 26
6070 84
6071 2
6072 11
6073 37
6074 17
6075 34
6076 29
6077 76
6078 25
6079 47
6080 94
6081 81
6082 64
6083 11
6084 16
6085 21
6086 29
6087 11
6088 53
6089 47
6090 31
6091 6
6092 40
6093 1
6094 4
6095 75
6096 6
6097 71
6098 37
6099 11
6100 36
6101 5
6102 34
6103 5
6104 52
6105 20
6106 4
6107 77
6108 0
6109 85
6110 86
6111 25
6112 26
6113 21
6114 31
6115 11
6116 53
6117 76
6118 31
6119 58
6120 4
6121 5
6122 23
6123 13
6124 21
6125 29
6126 37
6127 2
6128 5
6129 69
6130 26
6131 5
6132 11
6133 53
6134 17
6135 11
6136 25
6137 47
6138 5
6139 44
6140 39
6141 23
6142 41
6143 21
6144 21
6145 41
6146 4
6147 21
6148 3
6149 74
6150 41
6151 31
6152 34
6153 3
6154 23
6155 18
6156 60
6157 91
6158 93
6159 87
6160 29
6161 25
6162 26
6163 65
6164 9
6165 69
6166 28
6167 26
6168 50
6169 88
6170 58
6171 23
6172 28
6173 10
6174 57
6175 71
6176 47
6177 37
6178 11
6179 27
6180 81
6181 71
6182 36
6183 8
6184 74
6185 27
6186 11
6187 28
6188 21
6189 17
6190 53
6191 1
6192 71
6193 7
6194 43
6195 19
6196 59
6197 14
6198 18
6199 8
6200 88
6201 49
6202 8
6203 66
6204 92
6205 45
6206 84
6207 36
6208 5
6209 26
6210 49
6211 0
6212 51
6213 3
6214 8
6215 71
6216 29
6217 57
6218 49
6219 17
6220 92
6221 92
6222 38
6223 47
6224 49
6225 53
6226 31
6227 4
6228 19
6229 71
6230 85
6231 23
6232 13
6233 71
6234 34
6235 71
6236 69
6237 2
6238 86
6239 23
6240 80
6241 13
6242 37
6243 82
6244 6
6245 26
6246 48
6247 2
6248 71
6249 28
6250 4
6251 56
6252 36
6253 67
6254 31
6255 50
6256 6
6257 92
6258 28
6259 31
6260 11
6261 6
6262 36
6263 75
6264 88
6265 67
6266 0
6267 31
6268 64
6269 74
6270 56
6271 31
6272 23
6273 4
6274 36
6275 31
6276 6
6277 17
6278 2
6279 32
6280 67
6281 60
6282 87
6283 37
6284 25
6285 28
6286 20
6287 71
6288 69
6289 71
6290 34
6291 22
6292 67
6293 78
6294 46
6295 30
6296 87
6297 58
6298 69
6299 7
6300 50
6301 25
6302 51
6303 71
6304 43
6305 73
6306 5
6307 23
6308 65
6309 41
6310 67
6311 67
6312 4
6313 54
6314 15
6315 27
6316 73
6317 65
6318 49
6319 37
6320 44
6321 49
6322 1
6323 9
6324 16
6325 2
6326 21
6327 41
6328 81
6329 58
6330 16
6331 76
6332 86
6333 84
6334 71
6335 81
6336 5
6337 26
6338 26
6339 85
6340 54
6341 44
6342 3
6343 66
6344 41
6345 67
6346 36
6347 37
6348 51
6349 54
6350 76
6351 20
6352 71
6353 54
6354 13
6355 85
6356 41
6357 37
6358 0
6359 90
6360 27
6361 13
6362 4
6363 4
6364 9
6365 7
6366 72
6367 30
6368 76
6369 71
6370 80
6371 70
6372 71
6373 66
6374 26
6375 23
6376 82
6377 50
6378 76
6379 4
6380 15
6381 37
6382 26
6383 86
6384 34
6385 42
6386 76
6387 36
6388 27
6389 46
6390 71
6391 87
6392 37
6393 70
6394 23
6395 48
6396 90
6397 7
6398 39
6399 77
6400 15
6401 48
6402 81
6403 44
6404 59
6405 71
6406 73
6407 9
6408 22
6409 85
6410 44
6411 46
6412 5
6413 28
6414 29
6415 69
6416 3
6417 42
6418 56
6419 25
6420 44
6421 54
6422 25
6423 35
6424 9
6425 17
6426 1
6427 68
6428 23
6429 78
6430 87
6431 25
6432 41
6433 81
6434 17
6435 19
6436 19
6437 12
6438 71
6439 29
6440 79
6441 77
6442 96
6443 27
6444 50
6445 38
6446 60
6447 59
6448 5
6449 27
6450 17
6451 25
6452 19
6453 7
6454 81
6455 17
6456 49
6457 64
6458 69
6459 37
6460 1
6461 4
6462 28
6463 13
6464 61
6465 68
6466 25
6467 0
6468 0
6469 51
6470 85
6471 60
6472 17
6473 67
6474 21
6475 21
6476 71
6477 54
6478 6
6479 14
6480 17
6481 21
6482 56
6483 16
6484 92
6485 4
6486 14
6487 51
6488 37
6489 17
6490 23
6491 25
6492 6
6493 25
6494 17
6495 87
6496 81
6497 4
6498 25
6499 93
6500 17
6501 35
6502 25
6503 28
6504 51
6505 58
6506 34
6507 33
6508 6
6509 8
6510 6
6511 60
6512 67
6513 63
6514 13
6515 41
6516 25
6517 23
6518 77
6519 71
6520 59
6521 13
6522 47
6523 0
6524 46
6525 53
6526 58
6527 76
6528 5
6529 54
6530 42
6531 69
6532 37
6533 31
6534 14
6535 64
6536 75
6537 46
6538 33
6539 17
6540 67
6541 0
6542 91
6543 11
6544 77
6545 72
6546 71
6547 80
6548 78
6549 17
6550 48
6551 77
6552 7
6553 37
6554 5
6555 26
6556 4
6557 17
6558 17
6559 24
6560 91
6561 21
6562 37
6563 42
6564 16
6565 85
6566 47
6567 29
6568 0
6569 76
6570 1
6571 76
6572 80
6573 53
6574 71
6575 80
6576 16
6577 31
6578 16
6579 39
6580 21
6581 17
6582 34
6583 71
6584 53
6585 76
6586 46
6587 76
6588 15
6589 47
6590 37
6591 0
6592 21
6593 85
6594 53
6595 92
6596 77
6597 31
6598 2
6599 5
6600 73
6601 28
6602 31
6603 71
6604 25
6605 76
6606 2
6607 75
6608 17
6609 34
6610 37
6611 33
6612 59
6613 37
6614 21
6615 36
6616 12
6617 69
6618 37
6619 49
6620 46
6621 39
6622 25
6623 12
6624 26
6625 11
6626 5
6627 17
6628 28
6629 53
6630 7
6631 2
6632 31
6633 46
6634 22
6635 85
6636 76
6637 8
6638 3
6639 52
6640 26
6641 2
6642 0
6643 1
6644 23
6645 41
6646 37
6647 95
6648 0
6649 0
6650 53
6651 42
6652 27
6653 88
6654 37
6655 24
6656 90
6657 86
6658 87
6659 71
6660 11
6661 70
6662 74
6663 47
6664 0
6665 16
6666 47
6667 4
6668 5
6669 71
6670 0
6671 76
6672 2
6673 26
6674 76
6675 21
6676 73
6677 74
6678 71
6679 5
6680 28
6681 27
6682 2
6683 13
6684 12
6685 70
6686 4
6687 83
6688 71
6689 32
6690 5
6691 13
6692 41
6693 2
6694 11
6695 5
6696 76
6697 65
6698 34
6699 13
6700 28
6701 81
6702 5
6703 42
6704 76
6705 80
6706 63
6707 76
6708 54
6709 13
6710 89
6711 38
6712 76
6713 44
6714 39
6715 7
6716 71
6717 2
6718 43
6719 4
6720 0
6721 56
6722 2
6723 43
6724 71
6725 5
6726 2
6727 34
6728 15
6729 59
6730 75
6731 17
6732 43
6733 21
6734 42
6735 8
6736 0
6737 58
6738 43
6739 1
6740 7
6741 49
6742 76
6743 21
6744 89
6745 21
6746 31
6747 18
6748 30
6749 21
6750 21
6751 82
6752 43
6753 29
6754 19
6755 56
6756 40
6757 26
6758 42
6759 93
6760 21
6761 48
6762 21
6763 0
6764 5
6765 71
6766 23
6767 71
6768 44
6769 11
6770 21
6771 39
6772 17
6773 5
6774 19
6775 76
6776 21
6777 36
6778 31
6779 3
6780 52
6781 17
6782 71
6783 41
6784 54
6785 82
6786 76
6787 11
6788 43
6789 51
6790 56
6791 25
6792 44
6793 11
6794 92
6795 5
6796 5
6797 25
6798 44
6799 36
6800 5
6801 71
6802 14
6803 23
6804 1
6805 37
6806 37
6807 69
6808 2
6809 51
6810 54
6811 5
6812 5
6813 6
6814 8
6815 36
6816 76
6817 74
6818 49
6819 63
6820 5
6821 31
6822 21
6823 34
6824 53
6825 5
6826 23
6827 0
6828 5
6829 65
6830 47
6831 17
6832 81
6833 49
6834 37
6835 44
6836 76
6837 41
6838 21
6839 76
6840 82
6841 81
6842 7
6843 23
6844 11
6845 67
6846 37
6847 69
6848 37
6849 47
6850 82
6851 44
6852 37
6853 23
6854 16
6855 25
6856 76
6857 10
6858 5
6859 31
6860 2
6861 37
6862 84
6863 31
6864 49
6865 74
6866 47
6867 22
6868 45
6869 85
6870 16
6871 58
6872 50
6873 76
6874 65
6875 81
6876 26
6877 12
6878 54
6879 70
6880 47
6881 0
6882 71
6883 28
6884 5
6885 85
6886 74
6887 29
6888 42
6889 0
6890 37
6891 21
6892 53
6893 41
6894 70
6895 9
6896 91
6897 7
6898 86
6899 80
6900 26
6901 46
6902 67
6903 53
6904 76
6905 37
6906 1
6907 80
6908 71
6909 31
6910 11
6911 24
6912 25
6913 76
6914 11
6915 33
6916 71
6917 37
6918 31
6919 41
6920 11
6921 47
6922 76
6923 37
6924 76
6925 26
6926 25
6927 27
6928 71
6929 6
6930 38
6931 41
6932 5
6933 76
6934 11
6935 76
6936 5
6937 21
6938 11
6939 32
6940 5
6941 16
6942 25
6943 31
6944 25
6945 44
6946 37
6947 25
6948 41
6949 85
6950 13
6951 47
6952 67
6953 25
6954 47
6955 11
6956 17
6957 69
6958 11
6959 84
6960 37
6961 5
6962 25
6963 76
6964 0
6965 41
6966 31
6967 29
6968 10
6969 5
6970 31
6971 17
6972 26
6973 7
6974 17
6975 5
6976 53
6977 44
6978 58
6979 47
6980 29
6981 64
6982 76
6983 41
6984 7
6985 53
6986 2
6987 21
6988 37
6989 6
6990 31
6991 31
6992 55
6993 34
6994 21
6995 17
6996 6
6997 36
6998 47
6999 68
7000 71
7001 42
7002 47
7003 82
7004 31
7005 21
7006 5
7007 29
7008 81
7009 37
7010 37
7011 47
7012 29
7013 31
7014 2
7015 0
7016 50
7017 40
7018 42
7019 52
7020 41
7021 5
7022 17
7023 80
7024 4
7025 40
7026 26
7027 17
7028 21
7029 71
7030 0
7031 0
7032 21
7033 17
7034 92
7035 71
7036 31
7037 6
7038 11
7039 25
7040 11
7041 29
7042 5
7043 92
7044 31
7045 77
7046 47
7047 17
7048 34
7049 34
7050 0
7051 29
7052 47
7053 6
7054 53
7055 58
7056 25
7057 81
7058 54
7059 25
7060 9
7061 2
7062 37
7063 78
7064 2
7065 77
7066 5
7067 21
7068 31
7069 43
7070 1
7071 86
7072 29
7073 9
7074 5
7075 6
7076 11
7077 37
7078 17
7079 54
7080 11
7081 82
7082 36
7083 26
7084 76
7085 4
7086 15
7087 39
7088 0
7089 20
7090 7
7091 80
7092 76
7093 2
7094 28
7095 27
7096 2
7097 0
7098 50
7099 11
7100 41
7101 23
7102 2
7103 11
7104 41
7105 25
7106 11
7107 5
7108 84
7109 34
7110 58
7111 34
7112 21
7113 6
7114 74
7115 39
7116 90
7117 6
7118 31
7119 6
7120 17
7121 37
7122 11
7123 26
7124 0
7125 41
7126 2
7127 33
7128 37
7129 6
7130 2
7131 39
7132 31
7133 37
7134 23
7135 85
7136 7
7137 73
7138 80
7139 6
7140 5
7141 80
7142 58
7143 76
7144 11
7145 21
7146 37
7147 9
7148 5
7149 6
7150 37
7151 5
7152 72
7153 17
7154 6
7155 8
7156 46
7157 7
7158 25
7159 21
7160 6
7161 22
7162 44
7163 29
7164 28
7165 88
7166 0
7167 34
7168 86
7169 5
7170 38
7171 60
7172 34
7173 44
7174 74
7175 4
7176 65
7177 20
7178 40
7179 43
7180 5
7181 30
7182 44
7183 39
7184 78
7185 5
7186 53
7187 2
7188 15
7189 23
7190 47
7191 52
7192 70
7193 84
7194 37
7195 19
7196 68
7197 56
7198 17
7199 6
7200 11
7201 56
7202 25
7203 21
7204 56
7205 76
7206 88
7207 83
7208 74
7209 65
7210 4
7211 81
7212 43
7213 92
7214 6
7215 34
7216 43
7217 78
7218 52
7219 26
7220 21
7221 3
7222 37
7223 28
7224 67
7225 35
7226 21
7227 17
7228 21
7229 17
7230 31
7231 23
7232 45
7233 21
7234 29
7235 0
7236 21
7237 11
7238 47
7239 0
7240 11
7241 17
7242 76
7243 51
7244 39
7245 77
7246 76
7247 21
7248 13
7249 6
7250 5
7251 88
7252 69
7253 5
7254 2
7255 71
7256 0
7257 68
7258 74
7259 49
7260 41
7261 66
7262 34
7263 5
7264 17
7265 93
7266 2
7267 12
7268 0
7269 5
7270 29
7271 4
7272 31
7273 92
7274 74
7275 47
7276 17
7277 43
7278 9
7279 11
7280 71
7281 23
7282 76
7283 21
7284 21
7285 66
7286 17
7287 25
7288 14
7289 11
7290 44
7291 5
7292 36
7293 11
7294 5
7295 67
7296 44
7297 44
7298 5
7299 6
7300 5
7301 5
7302 71
7303 21
7304 52
7305 23
7306 63
7307 6
7308 34
7309 61
7310 11
7311 76
7312 21
7313 23
7314 9
7315 39
7316 47
7317 5
7318 5
7319 56
7320 29
7321 1
7322 67
7323 8
7324 74
7325 16
7326 76
7327 61
7328 28
7329 29
7330 70
7331 5
7332 40
7333 71
7334 21
7335 14
7336 0
7337 71
7338 56
7339 29
7340 36
7341 81
7342 34
7343 25
7344 81
7345 54
7346 55
7347 67
7348 26
7349 45
7350 0
7351 0
7352 5
7353 34
7354 16
7355 0
7356 41
7357 33
7358 61
7359 5
7360 74
7361 45
7362 59
7363 72
7364 17
7365 21
7366 73
7367 92
7368 2
7369 70
7370 21
7371 26
7372 0
7373 13
7374 29
7375 44
7376 21
7377 76
7378 23
7379 74
7380 34
7381 6
7382 5
7383 16
7384 13
7385 6
7386 5
7387 0
7388 12
7389 82
7390 5
7391 16
7392 22
7393 3
7394 96
7395 11
7396 37
7397 4
7398 71
7399 44
7400 76
7401 11
7402 44
7403 84
7404 56
7405 38
7406 80
7407 76
7408 21
7409 44
7410 17
7411 12
7412 2
7413 81
7414 0
7415 39
7416 5
7417 11
7418 27
7419 31
7420 25
7421 21
7422 39
7423 36
7424 53
7425 26
7426 76
7427 75
7428 67
7429 42
7430 13
7431 76
7432 25
7433 48
7434 71
7435 86
7436 39
7437 42
7438 7
7439 11
7440 43
7441 36
7442 25
7443 35
7444 84
7445 38
7446 44
7447 68
7448 42
7449 44
7450 47
7451 35
7452 63
7453 5
7454 76
7455 76
7456 30
7457 12
7458 0
7459 36
7460 86
7461 21
7462 26
7463 25
7464 5
7465 65
7466 65
7467 50
7468 25
7469 10
7470 43
7471 80
7472 5
7473 91
7474 5
7475 5
7476 21
7477 69
7478 0
7479 49
7480 84
7481 82
7482 15
7483 0
7484 61
7485 17
7486 8
7487 5
7488 2
7489 82
7490 47
7491 86
7492 33
7493 38
7494 25
7495 77
7496 74
7497 49
7498 11
7499 4
7500 5
7501 5
7502 37
7503 65
7504 54
7505 20
7506 51
7507 58
7508 23
7509 11
7510 85
7511 53
7512 21
7513 5
7514 25
7515 43
7516 10
7517 71
7518 61
7519 47
7520 47
7521 71
7522 44
7523 93
7524 69
7525 69
7526 17
7527 71
7528 16
7529 57
7530 95
7531 11
7532 5
7533 92
7534 2
7535 34
7536 77
7537 56
7538 50
7539 17
7540 56
7541 53
7542 56
7543 11
7544 9
7545 72
7546 37
7547 86
7548 27
7549 32
7550 83
7551 59
7552 53
7553 5
7554 37
7555 44
7556 5
7557 42
7558 56
7559 11
7560 5
7561 17
7562 5
7563 59
7564 31
7565 42
7566 70
7567 5
7568 17
7569 80
7570 5
7571 2
7572 37
7573 50
7574 2
7575 5
7576 42
7577 13
7578 53
7579 50
7580 5
7581 2
7582 15
7583 5
7584 47
7585 25
7586 35
7587 35
7588 31
7589 40
7590 53
7591 90
7592 17
7593 40
7594 2
7595 25
7596 2
7597 80
7598 34
7599 0
7600 17
7601 16
7602 54
7603 4
7604 17
7605 37
7606 37
7607 19
7608 0
7609 93
7610 5
7611 65
7612 5
7613 76
7614 31
7615 76
7616 11
7617 4
7618 17
7619 34
7620 42
7621 91
7622 41
7623 27
7624 39
7625 27
7626 92
7627 71
7628 22
7629 41
7630 31
7631 7
7632 4
7633 47
7634 47
7635 42
7636 41
7637 44
7638 86
7639 42
7640 17
7641 85
7642 11
7643 22
7644 47
7645 31
7646 4
7647 37
7648 21
7649 39
7650 5
7651 77
7652 47
7653 7
7654 35
7655 37
7656 5
7657 9
7658 26
7659 40
7660 11
7661 13
7662 47
7663 25
7664 41
7665 31
7666 25
7667 9
7668 25
7669 37
7670 34
7671 1
7672 37
7673 41
7674 90
7675 4
7676 24
7677 9
7678 71
7679 93
7680 11
7681 43
7682 31
7683 81
7684 53
7685 76
7686 11
7687 17
7688 68
7689 72
7690 31
7691 88
7692 3
7693 5
7694 82
7695 76
7696 19
7697 9
7698 47
7699 32
7700 71
7701 2
7702 43
7703 44
7704 32
7705 46
7706 41
7707 22
7708 31
7709 25
7710 2
7711 77
7712 79
7713 76
7714 32
7715 8
7716 4
7717 92
7718 11
7719 53
7720 1
7721 30
7722 32
7723 8
7724 50
7725 1
7726 14
7727 43
7728 31
7729 43
7730 86
7731 88
7732 3
7733 53
7734 53
7735 5
7736 26
7737 28
7738 76
7739 59
7740 43
7741 5
7742 88
7743 8
7744 17
7745 5
7746 76
7747 63
7748 10
7749 62
7750 5
7751 26
7752 76
7753 8
7754 5
7755 90
7756 4
7757 21
7758 71
7759 62
7760 42
7761 11
7762 45
7763 49
7764 87
7765 5
7766 29
7767 0
7768 2
7769 43
7770 5
7771 74
7772 39
7773 0
7774 17
7775 34
7776 71
7777 17
7778 74
7779 27
7780 5
7781 8
7782 19
7783 25
7784 87
7785 5
7786 50
7787 77
7788 2
7789 7
7790 44
7791 94
7792 5
7793 0
7794 71
7795 74
7796 21
7797 11
7798 7
7799 40
7800 25
7801 71
7802 2
7803 5
7804 36
7805 2
7806 29
7807 44
7808 76
7809 6
7810 14
7811 5
7812 25
7813 32
7814 76
7815 65
7816 4
7817 17
7818 65
7819 42
7820 22
7821 59
7822 18
7823 17
7824 22
7825 76
7826 85
7827 51
7828 76
7829 74
7830 88
7831 71
7832 11
7833 22
7834 13
7835 76
7836 11
7837 7
7838 85
7839 37
7840 25
7841 82
7842 17
7843 31
7844 5
7845 25
7846 13
7847 65
7848 32
7849 47
7850 4
7851 3
7852 31
7853 0
7854 81
7855 37
7856 44
7857 58
7858 76
7859 64
7860 76
7861 81
7862 82
7863 76
7864 40
7865 2
7866 76
7867 11
7868 1
7869 71
7870 11
7871 9
7872 71
7873 60
7874 65
7875 76
7876 76
7877 53
7878 11
7879 6
7880 47
7881 71
7882 64
7883 16
7884 5
7885 5
7886 53
7887 25
7888 37
7889 81
7890 0
7891 41
7892 5
7893 11
7894 88
7895 25
7896 37
7897 5
7898 36
7899 5
7900 86
7901 11
7902 11
7903 4
7904 17
7905 95
7906 47
7907 43
7908 71
7909 0
7910 0
7911 25
7912 86
7913 80
7914 41
7915 3
7916 21
7917 71
7918 41
7919 25
7920 41
7921 17
7922 26
7923 76
7924 34
7925 11
7926 2
7927 42
7928 31
7929 44
7930 34
7931 71
7932 5
7933 31
7934 11
7935 86
7936 41
7937 25
7938 47
7939 67
7940 53
7941 7
7942 34
7943 47
7944 25
7945 50
7946 7
7947 71
7948 53
7949 5
7950 71
7951 81
7952 46
7953 5
7954 21
7955 11
7956 41
7957 2
7958 5
7959 29
7960 53
7961 76
7962 43
7963 76
7964 11
7965 68
7966 59
7967 37
7968 70
7969 2
7970 84
7971 50
7972 53
7973 56
7974 5
7975 53
7976 25
7977 44
7978 67
7979 5
7980 37
7981 76
7982 71
7983 17
7984 3
7985 17
7986 17
7987 5
7988 65
7989 7
7990 76
7991 69
7992 6
7993 7
7994 21
7995 21
7996 29
7997 32
7998 44
7999 31
8000 42
8001 76
8002 76
8003 53
8004 17
8005 17
8006 71
8007 53
8008 34
8009 37
8010 17
8011 22
8012 5
8013 29
8014 54
8015 33
8016 7
8017 15
8018 0
8019 34
8020 2
8021 76
8022 53
8023 92
8024 11
8025 44
8026 86
8027 11
8028 11
8029 5
8030 83
8031 77
8032 17
8033 2
8034 11
8035 21
8036 69
8037 6
8038 23
8039 5
8040 21
8041 61
8042 31
8043 86
8044 87
8045 29
8046 23
8047 5
8048 11
8049 28
8050 61
8051 10
8052 29
8053 28
8054 21
8055 86
8056 14
8057 7
8058 5
8059 5
8060 21
8061 6
8062 81
8063 9
8064 25
8065 35
8066 80
8067 47
8068 76
8069 6
8070 6
8071 25
8072 39
8073 47
8074 76
8075 53
8076 53
8077 34
8078 2
8079 26
8080 31
8081 25
8082 50
8083 50
8084 78
8085 34
8086 25
8087 31
8088 36
8089 7
8090 53
8091 26
8092 53
8093 21
8094 41
8095 5
8096 41
8097 47
8098 28
8099 71
8100 9
8101 56
8102 25
8103 37
8104 2
8105 77
8106 25
8107 11
8108 47
8109 29
8110 26
8111 17
8112 74
8113 26
8114 47
8115 76
8116 84
8117 17
8118 13
8119 23
8120 38
8121 17
8122 23
8123 6
8124 16
8125 26
8126 0
8127 21
8128 21
8129 31
8130 5
8131 5
8132 0
8133 41
8134 71
8135 11
8136 53
8137 70
8138 47
8139 80
8140 71
8141 53
8142 86
8143 23
8144 29
8145 28
8146 50
8147 5
8148 71
8149 34
8150 2
8151 76
8152 31
8153 5
8154 91
8155 4
8156 34
8157 24
8158 56
8159 7
8160 56
8161 5
8162 17
8163 31
8164 23
8165 34
8166 6
8167 50
8168 5
8169 27
8170 5
8171 5
8172 65
8173 5
8174 59
8175 81
8176 2
8177 41
8178 0
8179 21
8180 28
8181 0
8182 21
8183 5
8184 71
8185 3
8186 31
8187 11
8188 6
8189 31
8190 81
8191 47
8192 58
8193 5
8194 40
8195 39
8196 65
8197 0
8198 42
8199 3
8200 53
8201 37
8202 77
8203 75
8204 71
8205 80
8206 53
8207 50
8208 57
8209 0
8210 80
8211 88
8212 22
8213 50
8214 5
8215 11
8216 25
8217 26
8218 91
8219 17
8220 8
8221 56
8222 5
8223 5
8224 88
8225 31
8226 2
8227 38
8228 41
8229 49
8230 25
8231 86
8232 26
8233 48
8234 12
8235 6
8236 88
8237 5
8238 31
8239 36
8240 50
8241 54
8242 69
8243 13
8244 55
8245 0
8246 54
8247 17
8248 13
8249 25
8250 1
8251 24
8252 84
8253 8
8254 26
8255 76
8256 8
8257 13
8258 26
8259 77
8260 29
8261 13
8262 71
8263 28
8264 71
8265 36
8266 33
8267 29
8268 0
8269 53
8270 5
8271 52
8272 28
8273 6
8274 11
8275 22
8276 5
8277 28
8278 41
8279 31
8280 31
8281 93
8282 48
8283 29
8284 0
8285 41
8286 29
8287 73
8288 6
8289 3
8290 87
8291 58
8292 13
8293 56
8294 64
8295 62
8296 67
8297 4
8298 34
8299 92
8300 41
8301 13
8302 63
8303 23
8304 72
8305 67
8306 65
8307 38
8308 49
8309 31
8310 11
8311 46
8312 9
8313 68
8314 60
8315 58
8316 2
8317 54
8318 5
8319 70
8320 15
8321 28
8322 83
8323 35
8324 82
8325 26
8326 37
8327 28
8328 1
8329 3
8330 51
8331 54
8332 15
8333 13
8334 82
8335 91
8336 44
8337 75
8338 41
8339 34
8340 5
8341 85
8342 56
8343 31
8344 59
8345 44
8346 59
8347 74
8348 90
8349 39
8350 41
8351 29
8352 9
8353 5
8354 9
8355 95
8356 82
8357 13
8358 76
8359 50
8360 16
8361 29
8362 67
8363 71
8364 37
8365 53
8366 81
8367 5
8368 44
8369 32
8370 76
8371 23
8372 65
8373 16
8374 29
8375 15
8376 77
8377 29
8378 58
8379 69
8380 19
8381 89
8382 26
8383 60
8384 49
8385 65
8386 76
8387 41
8388 45
8389 51
8390 44
8391 76
8392 18
8393 26
8394 5
8395 84
8396 69
8397 56
8398 54
8399 11
8400 16
8401 52
8402 70
8403 16
8404 3
8405 7
8406 76
8407 24
8408 87
8409 34
8410 33
8411 65
8412 5
8413 56
8414 23
8415 6
8416 80
8417 60
8418 18
8419 57
8420 95
8421 29
8422 38
8423 40
8424 7
8425 15
8426 31
8427 63
8428 29
8429 67
8430 25
8431 78
8432 44
8433 56
8434 28
8435 76
8436 23
8437 59
8438 81
8439 65
8440 25
8441 54
8442 90
8443 37
8444 41
8445 54
8446 44
8447 17
8448 36
8449 37
8450 5
8451 65
8452 77
8453 25
8454 71
8455 71
8456 76
8457 65
8458 86
8459 44
8460 53
8461 4
8462 76
8463 7
8464 7
8465 38
8466 44
8467 5
8468 21
8469 82
8470 22
8471 77
8472 86
8473 44
8474 32
8475 25
8476 71
8477 72
8478 54
8479 13
8480 34
8481 65
8482 15
8483 29
8484 19
8485 71
8486 80
8487 18
8488 82
8489 91
8490 48
8491 72
8492 71
8493 90
8494 12
8495 50
8496 93
8497 72
8498 85
8499 21
8500 84
8501 88
8502 83
8503 17
8504 88
8505 9
8506 65
8507 40
8508 25
8509 16
8510 76
8511 21
8512 0
8513 10
8514 9
8515 77
8516 12
8517 47
8518 28
8519 18
8520 43
8521 71
8522 23
8523 21
8524 20
8525 56
8526 76
8527 21
8528 60
8529 81
8530 13
8531 42
8532 70
8533 7
8534 47
8535 47
8536 9
8537 15
8538 0
8539 46
8540 18
8541 67
8542 71
8543 81
8544 81
8545 17
8546 89
8547 21
8548 77
8549 30
8550 48
8551 0
8552 17
8553 87
8554 25
8555 66
8556 14
8557 25
8558 34
8559 95
8560 42
8561 80
8562 76
8563 38
8564 62
8565 21
8566 22
8567 22
8568 31
8569 57
8570 0
8571 61
8572 90
8573 21
8574 59
8575 0
8576 47
8577 5
8578 31
8579 71
8580 91
8581 4
8582 29
8583 76
8584 53
8585 21
8586 0
8587 37
8588 17
8589 65
8590 19
8591 50
8592 76
8593 17
8594 25
8595 33
8596 53
8597 53
8598 53
8599 91
8600 87
8601 23
8602 76
8603 81
8604 44
8605 17
8606 53
8607 17
8608 5
8609 22
8610 25
8611 21
8612 80
8613 21
8614 5
8615 44
8616 14
8617 32
8618 39
8619 71
8620 34
8621 34
8622 37
8623 0
8624 6
8625 21
8626 0
8627 21
8628 17
8629 37
8630 5
8631 55
8632 25
8633 41
8634 54
8635 85
8636 37
8637 24
8638 37
8639 25
8640 60
8641 53
8642 87
8643 76
8644 53
8645 31
8646 21
8647 91
8648 2
8649 16
8650 9
8651 22
8652 3
8653 2
8654 0
8655 2
8656 65
8657 45
8658 42
8659 44
8660 53
8661 47
8662 25
8663 84
8664 13
8665 17
8666 47
8667 37
8668 60
8669 71
8670 17
8671 44
8672 34
8673 31
8674 30
8675 61
8676 53
8677 50
8678 17
8679 31
8680 76
8681 15
8682 37
8683 76
8684 47
8685 77
8686 31
8687 88
8688 14
8689 45
8690 50
8691 0
8692 69
8693 73
8694 37
8695 34
8696 41
8697 14
8698 5
8699 4
8700 2
8701 47
8702 3
8703 5
8704 63
8705 2
8706 76
8707 41
8708 7
8709 2
8710 74
8711 92
8712 86
8713 13
8714 74
8715 60
8716 18
8717 3
8718 4
8719 8
8720 76
8721 34
8722 81
8723 81
8724 3
8725 88
8726 53
8727 4
8728 88
8729 13
8730 43
8731 21
8732 26
8733 2
8734 15
8735 46
8736 37
8737 25
8738 31
8739 0
8740 74
8741 74
8742 49
8743 49
8744 2
8745 31
8746 2
8747 73
8748 25
8749 71
8750 50
8751 80
8752 43
8753 41
8754 23
8755 75
8756 92
8757 93
8758 5
8759 68
8760 86
8761 4
8762 25
8763 40
8764 2
8765 58
8766 0
8767 56
8768 29
8769 26
8770 26
8771 5
8772 39
8773 0
8774 43
8775 4
8776 13
8777 9
8778 76
8779 0
8780 78
8781 2
8782 21
8783 2
8784 5
8785 76
8786 8
8787 29
8788 5
8789 8
8790 15
8791 73
8792 17
8793 28
8794 5
8795 60
8796 0
8797 5
8798 49
8799 43
8800 38
8801 0
8802 4
8803 8
8804 21
8805 76
8806 54
8807 1
8808 28
8809 76
8810 57
8811 5
8812 5
8813 26
8814 25
8815 44
8816 15
8817 17
8818 65
8819 34
8820 76
8821 2
8822 44
8823 69
8824 92
8825 21
8826 55
8827 11
8828 19
8829 5
8830 37
8831 23
8832 76
8833 76
8834 43
8835 56
8836 44
8837 76
8838 76
8839 49
8840 2
8841 11
8842 69
8843 70
8844 23
8845 36
8846 25
8847 56
8848 54
8849 13
8850 76
8851 74
8852 56
8853 78
8854 76
8855 21
8856 43
8857 25
8858 56
8859 21
8860 60
8861 82
8862 67
8863 44
8864 25
8865 8
8866 89
8867 44
8868 17
8869 11
8870 17
8871 21
8872 5
8873 5
8874 37
8875 3
8876 17
8877 4
8878 89
8879 37
8880 37
8881 36
8882 26
8883 2
8884 37
8885 47
8886 53
8887 16
8888 71
8889 71
8890 17
8891 67
8892 53
8893 5
8894 44
8895 36
8896 71
8897 31
8898 11
8899 11
8900 49
8901 6
8902 5
8903 2
8904 39
8905 41
8906 47
8907 18
8908 76
8909 22
8910 11
8911 2
8912 47
8913 37
8914 21
8915 36
8916 80
8917 53
8918 88
8919 37
8920 0
8921 25
8922 53
8923 53
8924 44
8925 17
8926 16
8927 25
8928 10
8929 31
8930 47
8931 9
8932 89
8933 2
8934 47
8935 11
8936 17
8937 10
8938 47
8939 0
8940 12
8941 17
8942 44
8943 29
8944 31
8945 19
8946 5
8947 88
8948 0
8949 5
8950 86
8951 26
8952 11
8953 25
8954 41
8955 17
8956 81
8957 5
8958 0
8959 71
8960 25
8961 2
8962 37
8963 5
8964 11
8965 10
8966 5
8967 80
8968 11
8969 53
8970 71
8971 17
8972 16
8973 31
8974 71
8975 5
8976 5
8977 86
8978 34
8979 47
8980 53
8981 2
8982 11
8983 26
8984 2
8985 34
8986 16
8987 67
8988 5
8989 34
8990 37
8991 25
8992 80
8993 45
8994 5
8995 11
8996 32
8997 5
8998 65
8999 5
9000 2
9001 37
9002 22
9003 53
9004 47
9005 5
9006 91
9007 21
9008 69
9009 58
9010 37
9011 41
9012 38
9013 37
9014 6
9015 29
9016 71
9017 8
9018 80
9019 76
9020 3
9021 58
9022 28
9023 37
9024 84
9025 5
9026 44
9027 4
9028 53
9029 17
9030 31
9031 89
9032 37
9033 16
9034 75
9035 6
9036 21
9037 21
9038 13
9039 37
9040 31
9041 10
9042 47
9043 25
9044 16
9045 40
9046 76
9047 58
9048 76
9049 39
9050 34
9051 31
9052 2
9053 34
9054 21
9055 11
9056 71
9057 11
9058 94
9059 7
9060 0
9061 86
9062 0
9063 25
9064 37
9065 37
9066 17
9067 23
9068 76
9069 93
9070 43
9071 16
9072 2
9073 81
9074 59
9075 47
9076 23
9077 60
9078 25
9079 29
9080 93
9081 69
9082 76
9083 31
9084 47
9085 5
9086 11
9087 37
9088 11
9089 53
9090 0
9091 25
9092 43
9093 5
9094 6
9095 25
9096 89
9097 55
9098 23
9099 23
9100 47
9101 23
9102 66
9103 29
9104 0
9105 22
9106 53
9107 11
9108 9
9109 11
9110 21
9111 71
9112 2
9113 31
9114 17
9115 76
9116 33
9117 2
9118 2
9119 0
9120 50
9121 16
9122 76
9123 21
9124 71
9125 0
9126 29
9127 25
9128 34
9129 13
9130 42
9131 37
9132 22
9133 83
9134 71
9135 29
9136 41
9137 11
9138 29
9139 95
9140 23
9141 41
9142 43
9143 25
9144 11
9145 11
9146 2
9147 5
9148 44
9149 21
9150 11
9151 13
9152 81
9153 0
9154 28
9155 26
9156 53
9157 40
9158 43
9159 59
9160 13
9161 86
9162 4
9163 90
9164 17
9165 18
9166 34
9167 6
9168 28
9169 71
9170 38
9171 13
9172 71
9173 37
9174 6
9175 26
9176 21
9177 71
9178 23
9179 41
9180 17
9181 26
9182 45
9183 14
9184 11
9185 11
9186 17
9187 71
9188 34
9189 3
9190 4
9191 5
9192 21
9193 23
9194 71
9195 80
9196 37
9197 2
9198 43
9199 6
9200 2
9201 41
9202 65
9203 2
9204 12
9205 65
9206 11
9207 34
9208 25
9209 18
9210 46
9211 28
9212 12
9213 41
9214 5
9215 80
9216 33
9217 25
9218 7
9219 19
9220 50
9221 37
9222 25
9223 71
9224 65
9225 71
9226 35
9227 39
9228 56
9229 41
9230 71
9231 81
9232 35
9233 5
9234 88
9235 2
9236 44
9237 28
9238 3
9239 76
9240 34
9241 25
9242 51
9243 11
9244 8
9245 34
9246 11
9247 6
9248 6
9249 43
9250 71
9251 5
9252 5
9253 77
9254 37
9255 58
9256 37
9257 71
9258 26
9259 84
9260 74
9261 28
9262 86
9263 26
9264 19
9265 11
9266 27
9267 88
9268 21
9269 6
9270 5
9271 71
9272 33
9273 25
9274 21
9275 0
9276 22
9277 5
9278 11
9279 11
9280 0
9281 6
9282 46
9283 29
9284 5
9285 28
9286 28
9287 16
9288 71
9289 71
9290 25
9291 21
9292 74
9293 3
9294 23
9295 71
9296 28
9297 5
9298 11
9299 36
9300 76
9301 2
9302 11
9303 21
9304 46
9305 5
9306 3
9307 17
9308 36
9309 57
9310 5
9311 54
9312 21
9313 2
9314 12
9315 11
9316 76
9317 5
9318 43
9319 41
9320 17
9321 92
9322 69
9323 11
9324 17
9325 57
9326 44
9327 17
9328 70
9329 32
9330 8
9331 17
9332 3
9333 82
9334 41
9335 47
9336 47
9337 36
9338 76
9339 67
9340 17
9341 90
9342 5
9343 2
9344 41
9345 13
9346 65
9347 5
9348 21
9349 8
9350 8
9351 71
9352 37
9353 41
9354 0
9355 29
9356 33
9357 71
9358 53
9359 72
9360 5
9361 54
9362 76
9363 71
9364 71
9365 41
9366 71
9367 70
9368 8
9369 29
9370 70
9371 5
9372 56
9373 5
9374 2
9375 44
9376 13
9377 44
9378 16
9379 26
9380 34
9381 0
9382 79
9383 5
9384 2
9385 25
9386 5
9387 73
9388 8
9389 10
9390 13
9391 59
9392 29
9393 27
9394 53
9395 65
9396 5
9397 7
9398 23
9399 21
9400 81
9401 76
9402 41
9403 28
9404 21
9405 4
9406 5
9407 76
9408 36
9409 5
9410 49
9411 15
9412 25
9413 43
9414 71
9415 6
9416 77
9417 87
9418 2
9419 87
9420 2
9421 91
9422 26
9423 43
9424 27
9425 89
9426 88
9427 6
9428 0
9429 0
9430 56
9431 1
9432 94
9433 71
9434 72
9435 12
9436 5
9437 60
9438 2
9439 96
9440 11
9441 76
9442 72
9443 92
9444 54
9445 21
9446 2
9447 71
9448 0
9449 6
9450 43
9451 0
9452 21
9453 31
9454 76
9455 42
9456 42
9457 76
9458 71
9459 29
9460 44
9461 26
9462 6
9463 2
9464 95
9465 39
9466 88
9467 17
9468 10
9469 29
9470 5
9471 71
9472 37
9473 44
9474 11
9475 42
9476 25
9477 5
9478 9
9479 5
9480 5
9481 2
9482 5
9483 85
9484 0
9485 82
9486 71
9487 69
9488 0
9489 67
9490 11
9491 82
9492 38
9493 17
9494 19
9495 76
9496 77
9497 71
9498 11
9499 77
9500 67
9501 2
9502 11
9503 40
9504 0
9505 17
9506 11
9507 67
9508 54
9509 3
9510 71
9511 86
9512 2
9513 26
9514 16
9515 60
9516 2
9517 37
9518 16
9519 57
9520 83
9521 45
9522 19
9523 7
9524 13
9525 2
9526 0
9527 18
9528 67
9529 0
9530 74
9531 27
9532 31
9533 5
9534 81
9535 5
9536 38
9537 21
9538 71
9539 27
9540 80
9541 36
9542 61
9543 26
9544 39
9545 28
9546 17
9547 69
9548 76
9549 4
9550 33
9551 0
9552 21
9553 68
9554 58
9555 11
9556 71
9557 47
9558 21
9559 25
9560 13
9561 21
9562 76
9563 31
9564 0
9565 76
9566 64
9567 87
9568 54
9569 17
9570 93
9571 26
9572 4
9573 72
9574 47
9575 51
9576 2
9577 50
9578 5
9579 5
9580 2
9581 93
9582 63
9583 60
9584 25
9585 82
9586 25
9587 88
9588 17
9589 71
9590 16
9591 47
9592 53
9593 2
9594 64
9595 5
9596 47
9597 41
9598 21
9599 2
9600 11
9601 61
9602 50
9603 31
9604 71
9605 56
9606 25
9607 36
9608 21
9609 37
9610 71
9611 56
9612 37
9613 76
9614 21
9615 31
9616 2
9617 77
9618 67
9619 17
9620 76
9621 13
9622 31
9623 71
9624 71
9625 19
9626 30
9627 53
9628 82
9629 31
9630 0
9631 6
9632 71
9633 5
9634 71
9635 53
9636 57
9637 76
9638 58
9639 31
9640 17
9641 69
9642 21
9643 0
9644 2
9645 71
9646 74
9647 36
9648 0
9649 73
9650 86
9651 24
9652 5
9653 93
9654 90
9655 39
9656 0
9657 45
9658 34
9659 60
9660 16
9661 69
9662 76
9663 1
9664 47
9665 71
9666 41
9667 28
9668 53
9669 11
9670 37
9671 87
9672 47
9673 5
9674 7
9675 47
9676 91
9677 71
9678 71
9679 73
9680 76
9681 31
9682 25
9683 71
9684 55
9685 91
9686 11
9687 21
9688 46
9689 26
9690 25
9691 76
9692 43
9693 29
9694 11
9695 40
9696 27
9697 17
9698 5
9699 11
9700 28
9701 41
9702 5
9703 85
9704 53
9705 74
9706 70
9707 2
9708 40
9709 41
9710 41
9711 81
9712 28
9713 0
9714 76
9715 37
9716 92
9717 11
9718 91
9719 13
9720 69
9721 56
9722 34
9723 67
9724 37
9725 2
9726 5
9727 53
9728 30
9729 69
9730 76
9731 32
9732 80
9733 58
9734 53
9735 50
9736 13
9737 53
9738 8
9739 42
9740 3
9741 2
9742 28
9743 71
9744 48
9745 8
9746 76
9747 69
9748 78
9749 95
9750 48
9751 11
9752 76
9753 47
9754 90
9755 3
9756 2
9757 42
9758 34
9759 39
9760 2
9761 58
9762 67
9763 2
9764 74
9765 3
9766 50
9767 89
9768 88
9769 4
9770 89
9771 86
9772 34
9773 5
9774 83
9775 13
9776 26
9777 11
9778 65
9779 43
9780 81
9781 0
9782 17
9783 2
9784 5
9785 71
9786 41
9787 27
9788 58
9789 5
9790 11
9791 49
9792 45
9793 78
9794 24
9795 54
9796 2
9797 80
9798 26
9799 44
9800 5
9801 5
9802 21
9803 41
9804 28
9805 21
9806 65
9807 69
9808 11
9809 74
9810 43
9811 17
9812 76
9813 42
9814 71
9815 2
9816 2
9817 21
9818 48
9819 36
9820 11
9821 31
9822 71
9823 11
9824 9
9825 34
9826 76
9827 5
9828 80
9829 71
9830 25
9831 25
9832 34
9833 17
9834 63
9835 11
9836 5
9837 4
9838 49
9839 47
9840 44
9841 47
9842 61
9843 44
9844 5
9845 15
9846 25
9847 22
9848 3
9849 44
9850 54
9851 65
9852 0
9853 15
9854 5
9855 82
9856 21
9857 6
9858 25
9859 67
9860 67
9861 21
9862 31
9863 5
9864 76
9865 68
9866 25
9867 36
9868 67
9869 77
9870 5
9871 49
9872 76
9873 26
9874 50
9875 20
9876 58
9877 68
9878 0
9879 37
9880 29
9881 9
9882 11
9883 17
9884 76
9885 37
9886 52
9887 25
9888 17
9889 13
9890 54
9891 85
9892 71
9893 17
9894 2
9895 26
9896 23
9897 44
9898 17
9899 34
9900 6
9901 37
9902 31
9903 29
9904 70
9905 71
9906 21
9907 2
9908 47
9909 1
9910 2
9911 11
9912 5
9913 21
9914 21
9915 16
9916 16
9917 53
9918 25
9919 91
9920 11
9921 16
9922 56
9923 39
9924 31
9925 11
9926 34
9927 71
9928 43
9929 5
9930 71
9931 41
9932 5
9933 19
9934 31
9935 5
9936 23
9937 37
9938 54
9939 29
9940 82
9941 47
9942 34
9943 5
9944 21
9945 7
9946 30
9947 2
9948 61
9949 0
9950 60
9951 17
9952 44
9953 90
9954 2
9955 85
9956 31
9957 80
9958 31
9959 15
9960 0
9961 0
9962 84
9963 42
9964 76
9965 34
9966 21
9967 85
9968 14
9969 77
9970 90
9971 21
9972 25
9973 54
9974 37
9975 0
9976 5
9977 47
9978 37
9979 85
9980 2
9981 0
9982 34
9983 33
9984 31
9985 19
9986 40
9987 11
9988 25
9989 0
9990 23
9991 10
9992 84
9993 2
9994 8
9995 80
9996 34
9997 41
9998 5
9999 37
