1 0
1030 1
3983 2
5317 3
6635 0
7700 4
8257 0
8867 1
8885 5
9423 6
9815 7
2 8
1655 9
1819 8
2214 9
3330 10
5688 11
5942 12
8729 13
9108 1
9698 8
3 3
3768 14
3896 3
4075 10
4209 15
4565 16
5094 17
5573 3
8034 18
8560 19
8627 20
4 10
2487 21
4374 22
6393 23
7108 10
7476 24
7725 25
9054 21
9515 20
9829 21
9930 26
5 27
1248 28
2494 10
3037 29
3712 30
3933 1
4807 31
7113 32
9186 27
9431 27
9868 33
6 34
1801 35
4742 36
5504 34
6153 37
7918 38
8209 39
8637 34
8691 18
9197 40
9242 41
7 2
667 42
3030 43
6077 3
7150 1
8179 27
8298 44
8676 2
8927 43
9099 2
9552 45
8 46
229 47
259 46
1928 46
3000 10
4364 48
5512 26
9053 49
9060 6
9514 30
9573 50
9 51
342 51
4694 51
5991 19
7177 52
8381 35
9361 53
9421 54
9630 55
9814 50
9978 56
10 57
48 58
348 24
4430 57
6051 59
6898 57
8035 60
8117 61
9284 57
9414 44
9917 60
11 10
935 10
2771 62
4288 63
5830 9
5840 41
6729 39
7756 61
8127 64
9009 65
9487 24
12 36
3040 3
4244 66
6395 67
7011 12
7383 23
8429 36
9496 36
9550 68
9714 69
9765 37
13 7
136 7
280 7
2138 66
2418 10
4718 23
6080 70
7181 71
7750 72
9482 10
9736 23
14 47
440 47
1144 47
2163 28
2383 32
2901 73
3545 74
3798 41
6318 75
6873 47
7550 76
15 39
677 44
4136 39
5834 77
7453 48
8029 26
8044 29
8492 32
9396 78
9459 46
9624 39
16 3
2003 39
3072 46
3219 79
4326 80
6298 10
8448 3
8587 81
9704 77
9794 3
17 16
2047 39
2303 51
3907 32
7036 16
7721 46
7755 1
8232 39
8752 64
9866 16
18 5
1086 50
3834 70
6554 43
7047 66
8173 5
8237 82
8586 83
8717 5
9218 84
9494 19
19 85
1305 36
2547 71
4299 23
4640 43
4750 1
4914 80
5315 85
7631 85
8451 62
8879 10
20 86
219 87
1700 86
2853 86
5369 86
7211 34
7350 86
7910 39
9183 86
9353 37
9491 14
21 22
1682 23
2537 38
4365 17
4980 29
5172 78
5534 22
5782 22
7227 88
7866 56
9287 34
22 10
2331 10
2574 47
4163 23
6655 10
7388 27
7834 44
8513 89
8948 2
9201 36
9854 90
23 43
1770 43
2431 10
5744 43
5785 1
6300 0
8508 43
8897 67
9613 29
9865 43
9918 91
24 5
1331 1
2645 57
2896 70
6103 92
6895 87
7653 83
8231 1
9922 93
25 44
446 44
3318 48
3952 15
4409 44
4466 21
7366 1
7928 94
8068 64
8505 95
9158 96
26 97
1043 1
1388 28
1454 56
4154 98
4225 33
5080 99
6963 35
7236 97
8633 39
9211 97
27 53
2136 66
5141 55
6404 28
8056 70
8876 100
9344 61
9629 48
9652 58
9817 53
9982 53
28 1
1450 1
4376 39
5506 10
7395 2
7410 61
7795 1
8213 42
9488 90
9869 61
29 51
471 34
750 9
3935 51
4845 32
5438 40
6413 98
8740 13
8753 66
9146 77
9395 51
30 66
3624 46
3842 66
5628 21
6273 66
6386 19
7000 11
7465 18
7743 23
9173 12
31 84
2364 44
3289 24
6421 29
6955 84
7379 86
7990 101
8702 80
9145 66
9346 7
9536 86
32 34
1613 41
2203 34
2471 48
4791 34
5989 66
6250 30
7845 34
7894 102
9154 34
9878 43
33 103
104 103
674 78
1666 61
1751 103
6123 50
6634 34
6645 64
7536 103
7877 36
8403 36
34 104
4206 7
6752 104
8112 104
8156 48
8174 44
8497 17
8669 104
8764 14
9138 3
9973 57
35 89
1438 104
1899 38
5586 10
6607 28
8129 89
8761 89
8786 44
9102 10
9116 12
9761 64
36 49
2366 17
4849 41
6368 49
7310 92
8048 49
8183 30
8284 22
8611 95
9562 60
9657 42
37 44
700 1
3126 44
4663 8
4733 1
5218 19
7726 49
7774 44
8662 29
9989 44
38 1
506 1
600 84
1041 1
2306 100
3483 38
5005 77
7272 64
7825 46
8675 28
39 10
687 10
3673 51
5554 10
5777 10
6294 23
7537 10
8296 10
9557 10
9703 27
40 3
1182 3
1391 105
1462 2
3701 65
4825 45
6776 45
8772 3
9603 48
9850 3
9895 21
41 106
1244 74
1406 106
3557 17
3818 37
4270 89
5378 84
7828 61
8000 106
9385 2
42 10
1793 107
4937 10
6473 97
6581 30
6959 31
7158 87
8719 108
8889 64
9221 57
9405 1
43 31
1456 8
3853 10
4099 31
4876 45
5020 35
5024 103
5993 109
6272 110
9188 31
44 35
956 86
1164 35
4921 17
6921 20
7521 26
9016 66
9458 96
9908 106
45 11
2683 10
4713 7
4769 12
6618 111
7072 11
8664 75
8713 37
9035 112
9347 11
9955 24
46 10
416 10
4370 10
5147 89
5209 10
5412 27
6737 1
7590 101
8137 21
8712 1
9710 113
47 114
1869 27
2235 73
5859 20
7622 114
7678 94
8242 39
8498 49
9194 23
9343 61
9821 114
629 33
4238 58
8578 63
8923 115
9199 40
9621 58
49 36
2181 99
2268 36
3093 10
3426 32
3660 15
4527 36
5398 32
8318 74
9296 4
9352 87
50 10
1850 10
3922 36
6931 116
7020 10
8467 10
8501 31
8631 66
9217 39
9830 39
9925 15
51 44
264 99
2270 20
2611 90
3925 83
6455 12
7105 117
8022 2
8422 32
8565 44
8890 44
52 42
159 2
316 66
1612 88
2149 39
5561 40
5745 64
7741 42
8192 8
8645 1
9924 42
53 39
678 66
4347 39
5059 14
5271 39
6079 34
6951 110
6988 110
7022 10
7382 108
9601 39
54 12
4868 12
5403 44
6855 6
6920 12
8698 12
8735 78
9170 89
9243 54
9622 10
55 29
2260 29
2271 29
3194 8
3241 108
4194 10
5179 111
7783 35
7980 29
8482 87
9324 39
56 77
335 44
774 39
3608 8
4086 89
4861 95
7073 6
8677 77
9833 70
9892 36
57 92
144 92
2228 93
3199 107
3473 92
6291 44
7844 10
8348 77
9376 92
9435 1
9724 28
58 19
2864 109
5707 32
6933 94
7280 19
7460 64
7810 41
7984 17
8538 19
9612 8
9861 91
59 29
3061 118
5703 71
6856 29
7761 51
7874 29
7936 29
8214 39
9434 22
9532 4
60 7
213 7
1160 83
1240 65
6346 7
6352 7
7191 119
7192 18
7806 41
8541 120
9356 57
61 10
2143 10
2475 8
3579 29
3912 10
6049 10
6257 111
7579 86
9265 10
9503 99
9709 87
62 9
1128 39
1772 73
3196 57
4385 9
8267 43
8449 119
8746 14
9428 1
9860 1
63 14
2782 1
3381 94
4289 101
4992 14
5421 8
6047 66
8338 83
8825 92
9088 14
9250 11
64 28
2222 47
5640 64
6302 47
7435 64
7898 101
8792 28
8848 28
8893 4
9335 105
65 113
799 111
1601 8
3385 12
4404 11
4710 8
6626 39
7368 38
9753 113
9910 113
66 83
1047 20
1385 83
6303 10
6765 10
7323 89
9030 39
9095 83
9759 8
67 10
287 48
3098 119
5789 29
6032 25
7998 121
8903 121
8994 10
9249 109
9278 10
9884 73
68 80
457 121
1890 75
2784 57
5074 106
5291 80
6694 26
7270 90
8095 80
9207 25
69 96
1358 96
3011 39
3728 122
6069 10
6216 73
8533 1
9667 9
9793 93
9976 123
70 39
989 67
2914 39
3078 24
3548 81
7442 50
7519 78
8894 39
9002 28
9687 80
9988 10
71 6
797 6
2132 92
3309 66
4994 89
6475 6
7303 21
8490 78
9041 46
9695 8
9863 44
72 90
697 90
7577 56
7587 43
8159 124
8643 106
8891 116
9394 90
9449 9
9490 17
73 97
1804 66
1998 45
2329 111
2894 27
5507 97
6660 27
7452 90
8473 42
9766 97
74 70
3154 8
3704 5
6187 39
7904 89
8868 20
9333 74
9588 70
9808 51
75 108
3211 21
7558 108
8073 123
8788 76
9398 24
9563 108
9633 91
9723 64
9897 39
76 42
286 65
5672 3
7062 42
7065 42
7296 22
7470 36
8168 43
8363 75
9321 24
9846 8
77 4
1982 43
5289 63
7697 11
8592 66
8725 9
9066 4
9952 4
78 66
1312 62
2517 66
2963 125
3641 14
4623 56
4991 23
5815 44
6513 39
6778 112
8285 76
79 70
3259 39
3335 87
4190 70
4891 70
5208 21
7628 70
8109 8
9090 71
9641 32
9823 78
80 10
167 10
3944 42
6102 10
6172 85
7074 113
7426 10
8126 119
9111 9
9549 59
9898 18
81 64
995 64
3582 57
3790 64
5129 64
7663 65
7799 64
8120 52
8341 21
9792 45
9981 76
82 66
1936 61
2790 10
2825 66
3772 61
4737 39
6417 99
6780 66
8149 57
9681 22
83 51
861 51
3264 51
4552 1
5644 36
5899 47
7621 90
8666 93
9512 44
9564 1
84 82
612 82
4850 2
5533 17
5673 82
6505 124
7751 61
8418 82
8708 42
9717 10
9965 20
85 70
178 70
512 70
1433 114
2420 76
6274 36
9121 88
9492 9
9659 47
86 23
721 23
813 2
5839 86
6443 57
7397 7
7520 94
9079 29
9424 55
87 93
2956 82
3179 98
4330 118
7316 93
8520 46
9010 89
9251 93
9684 23
9984 93
88 21
830 93
1750 21
3606 21
4161 119
4741 93
7373 39
7731 92
7863 29
8843 19
9038 3
89 2
1805 2
5385 51
6215 44
7138 35
7778 126
8629 21
8760 2
8805 70
9129 41
9327 46
90 94
447 99
946 39
3251 7
5248 94
5288 1
8211 94
8357 73
8427 89
9948 15
91 21
662 21
1490 113
3033 17
5584 10
5723 35
6384 92
7071 73
8998 83
9845 93
92 84
893 15
1651 3
3898 70
3906 84
4472 127
7286 95
7736 1
9386 84
9583 66
93 47
1783 35
2426 38
3916 66
5478 10
7054 47
7352 10
8084 1
8428 47
9086 1
9548 47
94 56
401 39
1713 84
3910 100
4361 74
6679 78
8612 0
8626 56
9734 74
9773 56
95 78
727 58
1158 78
3713 45
5980 64
6197 53
6754 10
7405 36
7563 93
8248 57
96 47
945 47
2305 61
3129 24
5257 99
6182 114
8062 109
8983 48
9909 107
9993 115
97 1
1571 85
3739 1
5171 60
6100 75
6206 39
6470 28
7321 93
9467 32
9731 77
98 30
614 30
2293 30
4649 1
4671 30
5063 14
7640 82
7960 42
8111 28
9836 1
99 60
5968 20
6502 60
6593 103
8263 53
8438 39
8529 75
8797 79
9670 76
9994 71
100 57
317 12
1172 2
4294 123
5356 57
6134 15
6374 49
6528 54
8888 47
9440 15
101 128
894 18
1530 10
2581 38
3737 62
6532 128
6904 71
7801 126
9733 83
9903 128
102 64
393 64
2008 33
3136 76
4643 1
4745 65
5480 56
5950 24
7232 9
7248 64
103 36
1261 65
3870 66
4679 36
5008 64
5287 1
7469 36
7477 127
9280 35
9653 1
9801 36
1221 27
1468 16
5611 1
6019 76
7378 42
8358 103
8795 18
9661 129
9816 103
105 58
767 74
3160 58
6165 14
6719 36
6982 19
7052 121
7067 58
9518 1
106 93
2363 23
3337 1
3510 93
6459 78
6788 1
7184 93
8286 28
8846 34
9668 43
107 44
1675 85
4495 44
4530 107
4557 44
8061 35
8228 106
9017 44
9105 18
108 123
1532 20
5279 81
6517 22
7415 123
8118 99
8941 98
9049 94
9380 127
9742 23
109 50
3416 130
4287 50
5135 41
7848 50
8773 48
8918 86
9894 85
110 64
1215 64
1265 64
3969 64
4689 70
5848 46
7374 8
7515 47
9767 64
111 11
850 9
2793 8
3100 12
5366 24
7422 36
9118 42
9977 35
112 9
1321 9
1595 9
3184 41
4975 70
6351 51
6854 76
8369 3
8566 9
9411 32
9809 10
113 89
4407 1
6525 89
6907 39
7058 73
8607 89
8840 89
9101 123
9227 111
9728 29
9938 1
114 105
1233 105
3838 45
5664 105
6734 99
7104 44
8783 5
9304 39
9577 89
9608 119
115 1
886 1
3540 1
4536 126
5427 9
6591 2
6680 27
9283 80
9582 57
9606 67
9827 62
116 64
1535 34
3249 64
3291 20
3410 64
5018 39
5152 10
6066 78
7785 14
9119 2
9315 88
117 62
2280 44
3560 1
4617 99
5857 80
7646 62
8040 92
8535 105
9026 62
9461 39
118 64
1621 36
2443 66
4115 64
4700 118
6460 10
6644 65
6993 88
7480 131
9262 121
119 8
3748 3
3751 76
3884 41
6903 18
8334 8
8402 54
9034 9
9778 8
9788 11
9961 8
120 9
3070 66
6521 34
6693 95
7404 9
7867 92
8412 131
8615 110
9847 78
9963 89
121 66
505 66
1301 1
2928 109
4751 51
6890 3
7823 130
8140 21
9289 86
122 26
1066 66
3715 118
5196 10
7353 69
7964 88
8935 41
9124 26
9392 98
9804 31
123 34
2341 9
3063 34
3586 34
4971 80
5145 107
5316 65
5513 89
7195 34
9730 75
124 5
483 77
3382 127
4066 5
4405 111
4475 10
4560 39
7605 5
8001 131
8423 86
8689 6
125 66
478 66
2717 66
2906 73
6085 66
6979 39
9309 10
9856 90
126 14
476 92
1016 34
1709 57
6281 73
6774 14
7302 104
9871 14
9888 41
127 35
434 20
2060 1
2325 35
5029 105
7438 132
8217 2
9807 74
128 64
1857 64
1934 10
4080 34
5004 64
6997 95
7029 54
7431 54
7524 75
8187 130
129 1
658 8
1148 23
5880 1
7216 35
7295 95
8020 130
9228 49
9397 105
9725 35
130 44
1073 44
3826 10
5612 3
8008 119
9587 10
9694 106
131 10
1360 10
2350 10
3974 114
4755 10
4900 10
5262 9
7968 127
8654 78
9164 10
9772 56
132 130
2461 93
2502 95
4609 83
5761 130
6309 77
6566 1
8059 10
8630 89
9581 130
9592 5
133 127
1294 92
3400 10
3763 49
3823 10
7922 127
8026 28
8316 95
8385 132
9286 127
9932 71
134 66
300 87
1336 69
2099 21
4722 100
4855 66
5019 14
5679 66
6174 39
8673 57
9541 60
135 1
499 1
1724 32
4035 9
4205 1
7106 1
7734 111
8883 87
9337 3
9637 35
9784 113
168 20
627 7
796 28
7758 8
9261 119
9481 105
9755 91
9873 51
137 89
1175 89
2774 36
4899 20
4910 105
5312 76
6118 6
7626 86
8604 103
9747 67
9919 119
138 10
2922 10
3504 10
3588 39
4403 9
5075 36
7454 10
8588 50
8726 111
139 12
3680 93
4069 66
4978 85
5256 27
6974 18
7045 12
7893 12
9927 110
140 44
1544 70
2557 99
2804 64
5476 0
7194 99
9448 44
9848 98
9904 44
141 109
2698 30
3115 109
4187 76
5708 108
6408 1
6878 109
7084 20
8863 74
9454 20
142 95
2160 95
4794 29
4908 29
8010 1
9241 47
9298 89
9354 3
143 4
1485 2
3026 119
4892 74
5670 99
5850 116
7603 9
8910 78
2051 92
2560 47
3792 6
4982 92
5918 92
8704 100
9008 88
9812 39
145 88
1123 10
1592 76
2969 44
6500 67
6905 37
8453 88
9074 88
9849 85
9968 49
146 70
1917 6
3024 70
3571 70
5162 79
5389 26
7333 70
8977 64
147 66
610 71
2146 86
6031 6
6199 39
7658 66
9529 2
9615 66
9825 19
148 94
2085 94
2881 1
3214 130
5323 64
8395 6
8732 94
9377 130
9859 78
9999 82
149 32
268 1
2535 64
7234 32
8413 74
8567 4
8855 101
9122 13
9879 66
150 89
2012 89
3005 51
3485 62
4775 41
4901 126
5471 74
6333 1
7386 94
7777 89
151 6
810 43
2661 10
2750 19
4257 39
5113 20
7802 105
9345 23
9876 61
9971 6
152 7
196 39
3465 7
3771 35
5260 80
6415 70
7364 10
8051 7
9521 111
9533 8
153 10
245 65
987 10
4107 127
4932 66
6210 57
6255 10
7014 13
8511 10
8568 41
154 128
1441 53
4635 6
5566 66
8502 128
8711 1
8734 73
9339 77
9831 4
155 20
1909 73
6016 95
6937 103
7157 90
8198 89
9381 130
9531 20
9644 20
156 10
1789 10
3297 3
3484 74
4856 75
9042 60
9364 24
9489 10
157 3
587 66
1954 10
4968 22
5760 3
6935 50
8299 106
9065 57
9544 3
9674 45
9797 15
158 1
1769 1
4999 87
7256 1
8590 46
9422 52
9441 48
9679 1
2801 105
2892 59
4717 89
5115 60
6007 2
7829 133
8823 85
9556 45
9935 64
160 21
1739 8
4353 10
7375 121
7398 31
7583 77
8745 1
9543 34
161 10
2411 20
2726 32
5402 34
6434 116
6801 11
6881 77
7996 44
8605 24
9028 10
9712 101
162 94
1235 60
1859 99
3245 94
5087 94
5570 10
5735 36
5784 109
8430 94
8933 3
163 48
1098 6
1455 23
4986 99
5641 47
8131 61
9301 27
9682 19
164 57
860 5
3948 74
5281 106
5891 1
7459 28
7602 8
8785 57
9351 133
165 90
2267 70
3178 90
3592 1
4418 85
6546 95
7347 90
9662 90
9770 73
166 10
2263 37
2538 99
2728 78
2958 19
5263 9
5949 10
6466 12
7203 103
7345 10
2093 10
4387 77
6479 21
7355 100
8475 2
9021 101
9953 134
933 20
7744 92
8872 4
8911 20
9157 39
9209 2
9535 8
169 82
2404 1
3875 85
4249 82
7174 93
7766 14
9404 43
9715 110
9902 43
170 109
4431 24
6945 10
7182 11
7187 111
8975 109
9115 109
9268 67
9374 25
171 12
2257 12
3149 12
3371 1
4336 54
5254 39
6116 66
6397 90
6529 49
9409 74
9805 98
172 107
2428 30
5693 107
6621 11
6711 56
7081 10
7878 10
9383 107
173 21
2647 21
2848 21
3992 107
4598 53
6485 88
6730 0
8313 34
9867 21
174 126
1999 77
3139 85
3749 76
6149 126
6745 126
6822 92
7657 64
7704 66
8634 44
9073 1
175 54
1766 67
5531 127
6610 77
7167 54
7399 86
7945 42
7983 87
9479 54
9547 46
9647 80
176 10
413 10
872 10
5084 2
7732 21
7813 13
9224 77
9419 8
177 106
958 57
1694 10
2076 44
4587 106
5121 106
5159 89
6654 106
7311 19
8096 7
7876 120
7887 83
7939 48
8742 105
9297 44
9920 39
9947 17
9962 46
179 1
222 20
283 126
2573 1
3321 90
4728 57
7600 57
8758 1
9526 90
180 50
2023 2
3305 109
4381 99
5192 6
8011 10
8264 50
9921 24
181 57
3563 57
3844 57
4879 57
5865 40
6956 30
8222 106
8924 131
8939 78
182 70
1673 70
4584 76
5626 36
6236 86
7217 98
8148 57
8794 1
183 29
1851 74
2186 70
5460 29
6087 73
6995 107
7290 47
184 107
3538 107
3670 66
6877 1
7007 39
7456 78
8667 15
8976 131
185 10
2343 73
2942 10
3220 1
4752 114
4870 85
7601 1
8663 43
9350 89
9740 62
186 95
189 10
210 99
2933 73
3683 95
6924 39
7012 39
8058 95
9179 87
9293 95
187 65
1484 20
2478 111
3067 48
3963 65
7129 73
7361 17
8829 18
9425 65
9445 75
188 109
1227 43
2354 10
3108 107
4685 10
6192 45
6663 19
7986 109
8184 109
676 10
1277 72
1516 82
1802 113
4357 10
6141 130
8802 12
9934 90
190 3
4111 3
4255 85
4328 3
5575 86
7963 12
8216 66
9769 45
191 78
5768 78
5780 33
6207 73
6892 14
7146 99
192 73
1370 39
1996 73
3639 73
5975 73
7617 74
7804 22
7970 94
8503 108
193 1
1740 87
3280 1
9274 64
9382 94
9774 102
194 76
421 76
3138 99
4097 66
7791 21
8981 39
9255 53
9570 50
195 6
2755 71
4665 8
6171 6
6492 80
7027 90
7820 91
8083 6
4515 120
4721 71
5863 107
7432 39
7588 39
8599 57
9538 21
197 127
325 111
681 127
1809 127
5756 130
8518 127
9136 81
9402 95
9870 85
198 98
1502 23
4261 42
5104 84
7002 98
7458 26
7533 23
8386 19
9905 39
199 21
2570 20
3159 19
3348 93
8814 86
200 10
624 85
2590 10
5740 118
6817 10
7443 10
7555 109
9303 66
201 66
2861 30
3352 92
5869 10
5892 69
7716 66
8958 1
9497 45
202 23
917 23
1004 102
4570 23
7122 42
8247 93
8471 122
8884 59
9813 111
203 20
5962 1
5982 68
6545 29
6649 18
7407 76
8440 20
8996 67
204 34
2200 89
4303 93
7188 44
7742 14
8620 34
8646 99
8770 64
9654 99
9928 39
9942 34
205 51
1431 51
1518 47
5958 51
6874 13
7607 39
8697 24
9130 51
9478 41
206 73
517 73
621 78
4337 66
5215 73
6638 101
7988 73
8215 105
207 15
211 28
3226 10
4625 8
5107 85
5306 67
5472 106
6909 6
8189 11
8776 15
208 37
812 37
3207 37
3463 101
4198 37
6036 14
6863 56
7857 44
9399 6
9506 85
209 1
1561 75
2577 63
4444 1
7292 66
7466 112
7651 34
8696 64
9776 92
1423 83
3987 99
4888 93
5933 35
6067 50
9502 29
9510 99
9750 71
418 57
3175 28
5336 28
8277 106
8534 61
8690 60
9338 90
212 39
3162 46
3425 39
6942 85
7370 4
7619 64
7808 15
8046 116
8820 43
9379 112
235 59
4905 1
5407 0
5537 7
6549 52
6665 118
7247 54
214 10
3270 77
4048 47
4386 10
4594 10
4866 12
5906 76
8751 10
8832 22
215 10
1633 85
1816 23
2937 27
5067 78
7503 47
7908 60
216 10
5516 10
5923 12
6906 15
7951 81
8828 123
9307 10
9683 37
217 25
3148 58
4185 10
7553 49
8653 25
8819 24
9056 26
9561 25
9841 8
218 15
1731 15
3716 75
4432 57
4974 74
6787 90
8950 39
1037 134
3262 87
5122 44
5615 87
6796 25
7325 127
220 36
1296 7
2824 78
3832 36
5377 23
5468 57
7599 76
8652 16
221 82
1943 48
6585 46
6622 47
7275 82
7589 87
7707 94
8382 82
9069 2
1465 67
7163 17
7953 133
7965 66
9403 3
9672 120
223 66
1383 66
1952 83
4707 35
4887 10
7514 66
7639 74
7827 4
9408 40
224 10
2724 10
4339 29
4633 16
4730 88
6509 21
7245 10
7538 66
225 10
2242 66
3500 8
4709 10
5365 1
5900 10
8329 39
9504 39
9565 84
9689 20
226 87
2810 87
2865 100
4324 67
5564 39
7552 90
7870 13
8816 121
9881 66
9944 67
227 1
2249 103
2473 1
2546 1
6570 13
6692 1
7511 80
8957 100
228 95
2746 95
5410 5
6481 24
6647 6
7473 10
7483 91
9586 78
578 1
1722 86
3256 10
4170 28
7209 87
8728 47
9862 47
230 66
653 66
2508 66
3989 83
5118 39
6771 1
7934 111
8762 41
9133 14
231 39
371 39
742 116
1593 52
4464 87
6190 38
6541 39
7760 39
7779 22
232 54
1708 78
5267 111
6135 87
7230 64
9632 61
9872 54
9880 54
9956 77
233 130
491 107
2098 27
5354 85
6683 56
8121 19
8507 86
8810 9
9331 130
9779 120
234 33
3013 66
4884 73
5858 20
6971 85
7814 76
8328 82
8519 64
8847 33
8882 33
9835 74
940 10
2276 55
7089 59
7869 36
7892 130
8060 7
8488 42
8766 59
9477 101
236 8
1372 8
1932 50
4108 8
6542 9
7315 56
9412 41
9484 94
237 97
3482 75
5202 44
8302 2
8540 18
9109 97
9147 10
9864 82
238 75
1218 56
2274 130
3612 79
4441 10
5239 2
7728 47
8851 92
9077 41
9656 75
9975 75
239 43
362 58
3265 113
3699 3
5099 21
6178 17
8887 89
240 16
438 11
6425 77
6886 99
7702 24
8352 134
8938 47
9839 45
9852 16
241 87
2737 73
3048 99
3871 87
5725 64
6364 67
6501 89
6989 12
7330 114
8659 105
242 20
414 44
3009 20
5367 90
7424 81
8672 111
8991 8
243 54
3806 76
4835 15
6335 64
6557 123
8094 54
8809 70
9285 54
9685 38
244 64
1185 81
3447 27
4284 64
5125 64
6872 10
7832 10
8985 107
9045 44
368 112
3965 71
4421 65
5050 36
5599 21
6806 78
8169 77
9292 48
9508 81
246 75
5046 82
5211 58
6097 75
6531 21
7539 42
8045 103
9566 75
9578 4
9886 75
247 2
831 49
2512 77
2842 47
2941 33
4854 2
5838 85
8569 10
8811 2
9415 86
248 39
5565 8
5719 67
7115 16
7573 0
9184 92
9790 39
249 32
1780 57
2954 20
3215 32
4340 99
5426 118
250 99
2813 10
3359 99
4435 127
8648 10
8909 1
9466 99
9762 99
9986 79
251 51
1033 66
1882 51
5591 82
6875 99
7038 134
8632 34
9708 62
252 3
1059 83
1237 99
4268 66
7196 3
9032 103
253 74
367 11
2566 10
3131 39
5066 74
6372 51
6469 74
254 34
2462 34
3566 55
8036 35
8787 116
8916 28
9417 82
255 84
2129 11
5706 24
7168 39
7253 84
7365 39
7542 106
9591 117
256 90
803 90
835 18
1297 90
2459 85
4650 132
6108 114
9322 116
9701 90
257 28
1238 39
3060 1
7354 28
8006 57
8965 35
9998 77
258 109
380 109
1504 109
7566 22
7580 12
7987 41
896 77
7610 87
7957 49
8478 43
9048 88
9166 4
9627 122
260 42
1706 45
6489 42
6651 19
7450 7
7864 65
8862 99
9505 8
9957 1
261 17
5530 17
7268 130
7858 17
9135 17
9313 62
9375 17
9828 9
262 10
530 10
820 100
863 12
3674 66
3821 12
4148 10
5126 44
7875 86
8031 74
263 36
307 1
907 10
1810 64
5477 36
6497 45
7075 48
7444 10
1448 99
1929 99
3086 95
3574 46
5465 111
7696 1
8344 78
265 19
816 87
2468 86
3882 121
5576 57
6041 2
6338 8
8431 19
9029 19
9741 36
266 60
1498 21
1575 60
2152 74
3110 60
5012 89
8304 99
8768 130
267 27
1836 17
2857 71
4497 27
4505 2
4561 9
6034 27
6718 27
1812 30
2872 114
5268 68
6671 2
7993 3
9082 92
269 105
1236 37
4315 1
4410 57
6669 94
7786 18
8622 2
9456 60
9933 105
270 13
1179 48
3104 95
4746 56
4815 13
6929 40
8462 31
9044 28
9189 19
271 30
4800 84
5342 30
5769 29
6119 76
6805 66
8574 76
9232 103
9604 87
272 91
1116 111
1213 58
4260 10
4836 43
6002 132
9275 111
9290 91
9427 1
273 120
1913 38
2775 78
3269 17
4761 51
8177 120
8915 23
9822 82
274 94
1178 94
2870 18
3049 23
3434 92
5682 57
6033 8
8736 57
9485 95
275 94
4352 16
6104 1
6922 93
8365 94
8824 94
9220 10
276 16
4577 105
4770 16
5639 10
7978 17
9019 16
277 1
1362 6
2077 1
3146 12
4607 93
6188 73
7284 3
7645 78
9059 9
278 10
4512 10
5910 64
6681 39
7977 10
8936 64
9202 70
9527 66
279 101
2079 73
3707 31
6438 92
7937 57
9359 2
9597 45
9806 101
427 74
1475 130
1591 64
2929 30
7312 7
9600 71
9834 21
281 2
683 2
7079 8
7592 50
8580 45
8955 2
9131 30
9437 130
282 89
1390 10
6846 9
7044 66
7685 66
8241 94
9501 74
9542 89
2063 39
5258 99
6138 46
7258 49
8914 107
9156 126
9727 126
9803 126
284 84
5106 84
5781 77
6939 14
8466 66
8509 84
285 24
549 1
1526 4
2463 119
6779 24
6970 78
8684 1
9123 41
9210 52
1303 44
1644 88
3173 113
8982 39
9438 65
4118 48
4302 11
5321 127
8125 66
8969 93
9530 47
288 109
1833 90
4666 10
6888 109
7693 81
8603 10
9238 36
289 27
2524 114
3733 47
4013 78
4207 121
5284 10
9143 27
290 25
1778 23
8956 25
9465 99
9673 2
291 53
1749 2
3076 85
3708 45
6930 53
9367 28
9699 57
292 119
462 58
5120 8
5897 119
6074 10
7850 39
8064 44
8830 76
293 1
1292 1
1353 1
2736 56
5199 39
8900 76
9011 1
9063 84
9190 1
294 39
3880 39
7847 0
8143 57
9444 117
9911 10
295 12
817 12
3927 12
4274 12
4567 114
6947 77
8090 6
8253 78
9429 86
296 39
4269 2
4272 39
4996 39
8281 81
8706 4
297 10
370 81
5234 7
5981 10
8119 10
9341 10
9625 66
9899 31
298 39
2934 39
4055 62
4546 70
6597 17
6815 9
7557 95
9635 83
299 44
2898 10
6296 10
6420 23
6620 130
7092 10
7116 17
7235 44
7428 60
9214 44
4762 60
5925 25
6359 87
7656 107
9520 87
9610 81
301 45
2439 66
4522 42
4740 45
5345 43
7202 61
9997 111
302 34
1348 34
1503 57
3299 127
4319 34
7967 1
303 10
3341 10
4334 10
6326 10
6486 49
7086 1
7091 6
7698 12
8724 85
9244 130
304 1
5146 35
8907 107
9058 122
9342 98
305 56
411 129
2819 12
3459 46
6390 31
6840 64
8548 66
9172 56
9889 56
9951 31
306 44
979 44
1402 44
1830 44
9308 66
3868 43
7660 66
8504 66
8647 111
9744 89
9907 114
308 18
1758 7
2243 78
5088 31
6668 70
9057 88
9270 18
309 74
3001 99
4391 74
6561 10
6616 86
7927 34
310 39
938 39
2385 41
3635 94
6615 80
6705 75
7676 110
7843 78
7919 1
8066 41
311 7
452 7
1734 95
5589 7
9247 2
9413 3
9929 4
312 12
763 130
2398 12
3622 23
4414 28
5663 50
7982 46
9168 17
313 41
3967 14
4763 1
5447 41
6071 1
6278 49
6870 77
6882 14
9472 95
9584 20
314 1
355 70
554 1
1482 42
2527 81
3667 1
4731 10
5596 51
6091 2
9811 111
315 71
890 54
1460 71
8015 18
8101 71
8460 80
1946 66
5948 67
8546 87
2725 12
3577 111
5542 3
6442 47
9781 43
318 113
1126 44
1921 84
5846 29
6559 89
6707 1
7455 113
8013 1
8886 54
319 10
718 10
755 56
1381 10
3121 32
6367 74
9120 32
9985 43
320 10
1157 10
1365 10
1541 28
4373 10
5681 10
6360 10
7546 88
8142 102
8219 19
321 57
1536 57
2096 85
2713 20
4543 94
5247 74
7571 57
8864 39
322 35
4616 77
6629 35
6851 2
7529 35
7690 11
9616 66
9958 9
323 41
4579 26
5791 64
8650 32
8962 129
9763 41
324 10
1759 99
1844 10
3250 31
4092 11
7043 69
8134 1
8388 28
9602 46
1645 111
2654 56
5593 111
7178 36
7833 121
8172 66
326 98
347 127
699 77
2532 77
5667 114
5687 105
6723 8
6798 98
7505 3
7674 23
327 47
1892 2
2477 47
2608 47
4166 112
6583 76
9517 20
9760 39
9940 106
328 83
4388 66
4684 14
5747 104
7973 83
8839 89
9832 73
9990 83
329 39
387 61
642 39
2738 39
3006 29
3890 106
5404 111
6515 39
7746 39
8085 77
8481 36
330 10
788 10
2469 36
2741 10
7033 98
7855 103
331 106
1797 73
2567 106
4656 102
5439 131
8229 100
8320 75
8683 106
8947 28
9216 106
332 12
1411 10
2762 12
3615 12
4428 12
4676 25
5619 26
5758 11
333 1
2237 96
3338 85
4882 90
6943 10
7223 108
8291 77
334 78
1707 67
1841 78
3835 94
5216 89
9271 66
5492 71
5748 86
5836 54
8200 53
8379 33
336 81
3665 15
3980 92
4521 10
4890 51
7229 81
7273 81
8182 41
337 111
1134 111
1191 39
1935 111
4960 44
6482 57
8945 57
9901 24
338 10
701 2
1965 128
3519 8
4071 113
4311 1
5045 8
8967 2
9706 20
339 32
4918 76
7547 121
7884 40
7901 76
9076 32
9451 102
9960 32
340 73
469 10
4551 61
4670 84
4809 73
5051 57
7060 73
7765 73
8443 66
8561 126
9239 119
341 66
2449 59
2486 28
2682 66
4217 31
5926 98
6662 66
7907 10
8775 27
8954 26
9323 84
2423 51
2680 7
4917 66
8515 27
9014 30
343 8
3317 23
3452 84
9125 23
9312 8
9560 107
9851 8
344 67
4415 42
4766 67
6150 26
6388 1
8694 130
345 14
3959 104
4556 10
6699 36
7282 48
7999 5
8203 64
346 1
870 1
1201 81
3164 1
3437 1
6142 35
6208 99
7641 66
9067 0
9203 127
4102 39
7151 102
7781 85
9003 7
9061 10
406 10
3239 99
3625 14
3775 24
5771 36
7340 10
8141 9
349 90
908 63
5225 76
5990 80
6804 50
8990 109
9640 86
9820 90
350 49
1525 6
3323 49
4814 49
5495 24
5629 4
8071 4
8327 10
9260 53
351 64
1588 43
5102 64
5133 10
9607 57
352 95
2733 39
2949 95
6369 26
6842 46
6914 95
8393 18
9281 93
353 89
6258 89
6556 99
7186 20
7441 89
7891 46
9645 86
354 81
1283 81
1326 103
4204 81
4897 66
6994 130
7705 81
8800 81
9874 19
6833 70
7069 127
7860 70
9967 6
356 31
1658 42
2029 57
2936 11
4585 84
5098 119
7343 12
9100 95
9693 31
357 53
3761 27
7513 100
7914 83
8554 28
8598 101
358 60
534 66
6064 17
6068 14
6887 60
7032 130
7498 39
7981 47
359 8
1574 98
4093 65
4907 8
6316 42
8606 21
8789 1
9306 90
9569 36
360 12
2391 12
4186 10
5868 57
7548 12
8741 22
8858 44
9144 26
9499 4
361 57
955 57
1710 48
5623 10
6146 10
2875 10
5298 42
5463 61
7162 58
7243 58
363 50
7161 86
7479 10
7925 50
9648 50
364 29
3690 29
4091 84
5022 102
5988 87
7289 67
365 121
1981 84
5241 89
5562 19
5927 23
9551 7
9558 121
9713 66
9838 121
366 1
787 1
4904 133
5528 121
6862 119
9106 73
9272 66
1243 84
1495 70
3494 26
6721 11
7822 1
8978 11
1506 66
2568 81
3561 21
5307 54
8974 10
369 29
1058 77
3118 29
6394 14
7369 100
8452 29
9619 26
854 91
6341 81
7198 81
7564 81
9676 43
2339 73
5864 109
6926 39
7440 32
372 60
1168 60
5774 95
8397 10
373 44
615 66
4354 39
4599 18
7727 10
8970 10
9678 4
374 64
2110 64
5666 39
6313 78
7729 99
9094 80
375 44
3089 1
3866 130
4179 41
4259 106
8640 83
8841 3
9589 1
376 9
2150 36
4506 13
4714 9
7474 10
8057 17
8661 67
377 64
4535 42
4696 26
5457 48
5714 58
9539 76
378 57
2545 11
4243 44
5827 72
7917 57
8340 19
8836 57
9326 57
379 10
3594 64
4344 10
6269 48
7154 92
8166 130
8221 9
9225 44
398 10
4443 31
4568 85
5064 109
6750 39
7890 67
9022 31
381 15
1319 107
1493 34
5607 30
6238 76
6682 123
8755 67
9140 15
9256 36
382 35
3501 99
4654 77
4812 113
5340 10
5738 23
5931 35
7816 111
9096 36
9826 73
383 10
953 10
2727 126
5636 8
8076 7
8547 10
384 10
1032 77
2657 10
3150 80
3476 39
4286 51
5577 58
5818 85
9746 33
385 21
1133 73
1753 74
2832 85
5587 78
6399 90
7574 39
8961 84
9362 120
386 5
443 5
659 5
746 5
2697 9
7304 23
2761 61
5924 21
6265 127
7841 79
8190 114
8818 95
388 1
4049 10
6339 44
7630 36
8837 76
8898 1
9516 14
389 23
1107 23
2541 127
4026 66
6096 32
6347 1
6918 83
9222 33
390 49
423 21
1192 127
2999 49
6674 56
6838 1
9195 29
9931 49
9950 76
391 80
4547 80
5406 14
6965 51
8362 10
392 39
5647 39
5709 17
6946 93
8207 2
8444 18
9318 49
9795 10
1379 51
5053 44
6279 18
6785 64
7794 29
8260 14
8268 127
8582 39
8972 23
394 39
2393 39
5938 12
7797 86
8801 115
9325 98
395 44
2361 10
2764 70
3247 19
5228 77
6247 95
9110 101
9366 64
396 94
2233 95
3568 15
6512 10
6958 81
7944 94
8469 120
8748 94
9426 94
397 8
2930 8
4090 1
6317 82
7082 8
7486 30
8272 118
8461 21
3611 71
3646 37
3729 10
6967 54
7110 39
7578 21
7612 10
8813 108
399 66
4054 21
4611 91
4648 66
5272 85
6835 123
7185 75
9248 10
400 1
590 49
977 1
3451 95
6361 1
7437 121
8226 96
8999 57
2653 38
5713 65
7673 73
9378 125
402 73
2153 10
4513 73
4862 10
5174 10
6552 39
7088 73
8186 73
9254 87
403 111
2808 39
4564 39
5616 10
6451 111
6690 121
8960 84
9819 111
404 78
5718 4
7903 10
8727 51
9393 50
9688 78
9980 95
405 97
6065 1
7008 78
7749 80
9509 77
988 10
5705 78
7403 10
407 66
4003 66
6987 21
7659 116
408 2
3705 81
4308 2
4356 2
5874 76
8075 22
9387 41
9900 7
409 24
551 10
1264 66
1747 1
5482 39
7582 119
8769 24
410 29
2053 88
5823 23
7164 73
7215 70
7326 29
8842 127
9300 15
9436 111
9787 29
2135 134
2262 58
6213 39
7357 129
8859 18
412 61
492 61
4028 1
4983 1
5223 98
5538 86
5720 17
6463 61
7627 50
1127 10
3274 29
6837 42
8324 23
9857 84
1566 44
4500 4
6256 9
9599 90
415 67
4924 1
6224 75
7249 10
7713 50
8951 81
4182 94
7417 57
7812 121
8104 35
417 58
508 6
1582 39
2732 86
3941 10
5955 58
6575 126
8401 66
9882 10
3994 88
9033 72
9245 39
419 42
950 81
2757 42
7077 89
9634 84
420 1
1110 1
3440 61
3671 9
6176 73
7153 47
9007 34
9177 1
9719 24
730 76
2606 56
4037 23
7691 14
8243 113
9623 99
9729 17
422 84
2575 121
4926 23
6200 84
8098 49
8984 85
914 70
4103 21
5392 40
7214 23
8132 66
424 106
1314 106
4046 94
4531 14
6742 6
7889 57
9062 10
9628 106
425 41
2723 39
3221 26
8360 119
8392 31
426 10
2030 10
2777 66
3865 66
4178 1
4298 10
6827 21
9127 64
9991 10
707 74
1606 74
2434 92
5971 94
6345 10
9160 108
428 57
1671 57
3388 60
4062 10
6161 32
6843 109
8371 44
8619 81
429 118
1775 87
2034 33
2932 118
4822 118
5764 3
8074 20
8953 85
430 28
2206 78
8710 50
9288 1
9572 127
431 10
501 95
1580 48
2313 2
3877 93
5939 44
9208 52
9598 10
432 123
1029 31
6098 78
6917 99
7100 123
7872 86
8705 57
9332 43
433 66
2827 66
3999 105
7754 119
7787 23
8138 23
8815 66
1100 10
3307 50
6342 30
7575 7
435 11
1698 12
3071 2
5630 56
6611 11
9246 78
9369 11
9643 90
436 20
2839 121
4343 66
5182 39
7250 4
7888 9
8417 10
8432 64
437 44
2427 18
2805 57
3453 117
4367 78
5965 105
6403 35
7793 127
8593 2
3144 51
4872 7
8002 43
8581 26
8723 73
9626 11
9939 130
439 127
1089 127
1343 127
3002 57
4863 23
5954 67
6411 1
7720 19
8804 64
892 124
909 47
5890 10
8539 2
9132 47
9722 42
441 86
3065 70
3412 74
6295 48
7661 107
9620 82
442 113
2157 61
2631 27
3246 31
3409 38
6868 24
6990 6
8353 21
9946 113
3185 43
4030 64
8435 89
8441 129
8575 75
9593 6
9858 30
444 77
776 118
943 33
3668 77
6416 2
7025 46
8929 108
9495 100
445 114
2729 38
3762 29
4470 8
4827 34
6132 64
9470 114
9636 51
2082 66
2450 44
4492 24
7900 103
9576 34
1957 58
2691 99
4383 95
4641 66
4930 86
5862 10
9891 10
448 109
4490 109
5621 111
5622 109
7681 75
8530 118
449 10
2951 10
4534 125
6764 85
7035 11
7543 44
9137 88
9716 93
450 28
7940 45
8077 123
8668 28
9638 2
9726 67
451 36
5659 29
6428 39
8494 36
3169 86
3940 43
4006 60
6354 100
6871 54
453 36
931 24
2950 84
3047 30
4297 76
5391 64
6139 19
7252 64
8347 24
454 1
747 46
5401 1
6928 1
7613 18
8212 76
8798 117
9883 51
455 19
2346 106
3636 28
5009 109
5770 19
6678 114
9015 76
9360 41
456 28
2283 21
2484 23
4399 103
7419 66
7923 46
8108 28
8312 46
1474 93
2291 10
7753 33
458 103
5648 75
7339 6
459 99
3212 12
4067 99
4958 66
5816 7
460 39
1420 5
2352 78
3672 77
4295 39
4819 50
9193 39
461 39
1559 66
1679 39
6726 120
7050 1
7360 46
9098 77
9148 10
9545 39
3686 15
3735 8
5116 58
6185 58
463 56
1992 22
4117 83
4149 46
5649 76
7467 8
8339 56
9432 56
464 75
5110 71
5787 92
8456 87
8465 75
8920 53
9416 10
465 8
2033 39
2514 8
3911 50
5796 34
7019 85
8699 8
466 95
2982 88
3996 19
4477 44
6830 111
6975 95
7972 95
9783 95
467 76
2261 76
3279 76
5515 117
5820 26
9012 41
9519 57
468 111
3039 45
3140 111
4056 9
5034 85
7097 61
7723 39
5692 10
6285 121
8997 7
470 85
2893 52
3508 66
6548 57
7098 66
8256 85
8293 39
8394 35
9575 89
1466 7
3580 2
8082 118
8273 93
9372 95
472 93
2236 67
2735 93
3470 93
6379 47
7299 83
7371 1
7856 1
473 10
5205 83
6551 10
7584 48
7846 24
8544 66
9107 50
474 1
3035 1
4396 90
8602 39
8656 81
475 24
754 20
2464 100
2525 70
5807 130
5941 24
8030 75
679 47
3306 92
6112 119
477 35
4987 115
6203 64
7117 35
906 66
1567 32
5128 10
5143 32
5433 57
479 73
966 10
4949 73
5422 10
6312 64
9483 73
9540 6
9631 46
480 44
561 44
1642 65
1663 20
2175 10
6571 44
6641 117
481 42
1825 4
2446 10
3634 10
4659 21
9282 42
9328 132
482 1
6009 57
8089 125
8722 1
9273 74
9447 1
9528 29
9972 56
4012 130
5111 10
6445 43
9949 77
484 44
4951 1
6687 93
7572 10
7618 47
8165 66
8454 43
485 21
969 7
4201 92
5920 59
6157 93
6383 21
6897 119
486 47
7017 47
7376 96
8323 92
8370 47
9718 86
487 6
548 20
932 15
1638 39
3746 22
6844 49
7942 119
9789 21
488 93
542 67
3414 115
6018 49
6136 23
7468 54
9083 93
9180 47
489 10
4088 11
5548 9
5856 10
6277 10
7377 36
7381 99
9240 21
490 12
1800 12
4957 41
6101 66
7899 1
8244 77
8311 15
2161 74
2562 107
4520 75
6231 126
9068 103
9936 1
1975 8
5443 28
7015 51
493 1
1901 1
3644 1
5700 130
8025 66
9890 47
494 10
905 10
2369 42
8679 89
9696 67
495 19
2926 89
3347 2
7738 74
8899 19
496 43
3075 4
3103 23
5654 48
6511 43
6627 88
6813 20
8799 28
8875 89
9923 119
497 17
729 114
4063 71
6283 56
7666 20
7881 1
8199 17
8290 100
498 118
5302 25
5536 118
7049 101
7390 12
1109 1
1615 111
3778 1
6899 86
9875 9
500 1
2802 118
3213 1
4152 41
4458 123
4613 28
5327 47
7281 68
4382 66
8335 70
9355 1
502 98
528 12
4104 111
5031 98
5417 88
8254 98
9027 12
503 57
3101 9
8384 54
9020 89
504 48
1792 77
1944 48
2066 48
3444 1
5449 48
5660 64
6495 127
9642 62
1288 32
3260 74
3549 88
6639 66
7831 95
9204 42
565 42
5071 33
8474 60
9595 10
507 1
1042 1
2321 79
2800 67
3097 1
3878 34
4226 128
5751 8
8322 22
2172 9
3369 23
4423 8
5212 107
8152 77
9161 6
509 54
3395 54
4116 93
8966 54
9336 2
9650 77
510 1
1399 1
2985 28
3950 18
7190 16
8878 83
511 10
1553 12
5788 38
6323 10
7225 66
794 70
3424 123
5662 73
8315 88
513 73
519 73
973 73
3534 44
4976 82
5140 66
9780 51
514 1
1771 51
2154 79
5232 1
5265 37
6446 92
7772 8
9200 92
515 8
3480 121
4950 50
5757 58
6493 12
7534 24
9267 8
516 12
2399 116
3105 12
4137 66
6582 12
8919 109
3726 10
3795 73
6454 73
6983 116
518 113
1696 8
2927 8
3785 113
1853 95
2797 44
4484 73
6766 85
7297 7
520 41
1752 89
2601 61
4314 41
8835 16
521 132
538 10
7608 132
7679 12
7853 85
7930 64
522 10
3860 111
6113 1
7652 1
7688 1
523 10
1229 10
2972 99
3986 42
5301 10
7356 10
7409 10
9455 58
524 29
601 77
645 110
2904 96
6209 79
9363 47
9782 29
9966 29
525 129
762 65
2598 29
2952 20
4083 129
8297 66
8641 129
9721 75
526 48
2234 109
2692 36
3985 38
4183 62
4493 30
4923 6
7204 3
527 49
1159 17
5928 2
6450 49
7078 6
7393 19
2174 99
5085 12
5442 109
8220 10
8616 12
9253 86
529 70
2679 70
3088 10
4593 69
4858 70
7837 46
9707 85
9983 11
1661 66
1843 105
2217 10
4542 68
5160 78
531 78
1180 47
3043 78
7257 21
7346 89
532 27
597 99
1507 42
2831 80
8197 31
8405 88
533 80
5699 32
8303 121
8317 75
9690 111
974 26
2031 66
3499 66
6376 51
6490 42
9818 86
9995 107
535 1
4805 1
5308 60
6439 50
8052 75
8623 42
536 1
3692 1
6964 95
7412 2
7500 60
7559 91
7625 83
7711 1
8557 60
537 41
2798 85
4646 50
6540 56
6908 1
8147 130
2701 10
4320 0
4632 10
6791 66
7921 52
8158 92
8922 90
539 120
2127 120
2910 10
4368 66
6981 99
7532 0
9219 43
9559 94
9945 14
540 77
961 84
3725 21
3945 102
5778 77
9092 12
9334 21
541 1
2358 1
3201 122
3788 8
5446 10
7671 24
8516 22
9153 56
3429 17
5350 70
8236 127
543 95
1727 41
4935 10
6527 47
6553 95
8782 10
9660 26
544 28
688 28
5017 57
5922 10
7338 11
8817 90
545 93
2564 1
6267 17
546 6
1212 6
3168 124
5695 123
5957 6
6533 20
547 10
2432 10
3529 51
5103 10
5605 10
6985 16
7314 10
8597 100
9175 56
9824 78
2245 20
3404 20
5749 119
6058 20
6133 28
6145 127
2955 15
3863 28
7144 1
550 33
784 33
2599 33
6927 3
7969 48
8325 100
9702 10
5274 10
6252 10
6978 49
7136 10
7992 1
8331 87
8374 27
8572 58
552 48
4786 10
5960 86
7868 35
553 1
1538 83
1693 86
2708 23
5060 1
9039 66
3618 18
4321 1
5976 93
7508 73
8067 42
555 27
2639 27
3143 27
7768 99
8614 111
8715 11
556 10
2748 98
557 109
756 83
4510 47
4852 109
6043 103
558 66
2065 1
4517 66
4813 66
6530 11
9579 15
559 130
5363 40
8383 130
8718 130
560 41
2476 89
3396 41
3438 18
5415 49
5860 41
8258 114
9798 29
772 94
1872 62
2294 31
3007 44
5149 46
6194 44
562 28
4392 96
6510 28
7462 8
7722 23
8283 54
8294 106
8658 28
9024 10
563 1
1508 2
3851 130
5837 74
6589 80
8194 50
9149 127
564 66
1363 109
1519 66
2327 10
5435 66
7560 11
3774 21
6564 87
8693 100
566 28
640 33
1533 8
5318 18
6429 43
6606 109
8921 104
567 93
5189 7
5305 93
9388 1
568 30
1681 64
5592 73
6046 57
9348 66
9594 30
569 30
3394 30
9663 17
570 10
5854 23
5893 100
6453 10
8695 88
571 36
3073 36
4189 65
4312 121
5175 58
8398 23
9139 2
572 10
691 57
3406 36
4504 40
6782 77
7420 114
573 40
1512 101
3876 97
7642 43
8827 61
574 64
1072 36
3613 64
5112 33
5231 66
6013 82
575 1
3368 42
6526 34
7748 22
7859 53
9418 19
576 8
2173 106
6151 71
6802 8
7263 34
8563 8
8803 30
577 3
3362 20
3949 39
4829 1
5686 64
6129 55
6624 64
9259 7
3471 66
4122 89
6173 1
579 9
3079 39
6232 9
8161 0
8185 77
580 13
904 10
3756 19
7228 29
7446 123
8314 130
581 66
3252 66
3953 66
4131 64
4644 39
8731 40
582 95
4228 58
583 94
1171 94
4749 46
6377 19
7880 27
9618 104
9711 1
584 57
3569 64
4864 127
5887 79
6218 22
7669 57
8091 92
8780 52
9314 64
585 76
1861 1
7175 76
8865 133
586 69
3478 77
4401 10
6448 23
7329 69
8655 10
4448 66
4704 56
5374 39
6025 3
6084 42
8017 6
8525 66
8821 89
9943 14
588 32
5502 0
6090 32
7565 43
8208 39
589 111
1142 111
2281 3
5311 6
6743 111
8410 89
1071 1
3515 47
4447 74
7463 49
8895 60
9493 56
9912 106
591 60
618 60
1289 66
3928 60
4929 15
4993 14
7030 89
7139 60
592 66
2964 67
6710 66
7220 111
9269 14
593 21
1886 51
2776 8
4719 1
5330 85
5786 21
7385 131
8470 54
594 47
814 111
2265 1
4698 90
4940 98
6889 95
595 78
1818 78
3954 35
4788 45
5082 79
6334 1
7649 106
9457 61
9937 78
596 66
1008 15
1252 66
1472 78
3151 66
4275 0
8904 51
2050 23
2789 10
5010 99
5286 26
7950 109
9257 15
598 1
901 1
2646 80
3800 95
4903 1
6282 89
8421 78
9844 121
599 1
1408 1
7013 110
8532 1
9206 49
2018 84
3331 84
5057 36
6790 89
9167 77
602 7
1646 130
2553 12
6508 111
9264 7
603 82
4020 35
5812 126
6349 48
8495 6
8621 9
9605 33
9855 82
604 94
3741 3
5304 89
5416 44
5470 39
5556 45
8458 54
9639 94
9969 122
605 106
5035 65
7865 83
8049 106
606 105
4537 47
6221 105
7135 10
607 107
1488 107
2730 17
3229 107
3435 84
4596 38
5282 41
6991 77
608 45
1384 45
1927 45
4195 90
5454 45
8037 89
609 78
664 78
4771 66
7037 78
7712 13
9471 78
1776 71
7789 34
8685 10
8906 120
611 65
1036 65
4018 79
5157 76
5905 39
8227 99
1432 82
2923 111
3203 74
6819 57
8305 84
8601 71
9442 89
613 10
6661 75
8472 47
2744 30
6444 84
7665 102
8115 35
5809 126
7119 8
8288 66
9964 46
616 36
692 36
5582 70
7221 10
7475 1
8940 39
617 26
4051 99
9091 66
4869 85
5361 53
6325 41
7835 10
619 15
2909 94
3111 8
4147 15
6829 15
7018 1
7680 80
8908 1
620 5
733 64
852 1
6602 93
1704 78
2269 78
3467 33
6749 38
9001 79
9987 78
622 64
4734 49
7201 76
7805 59
8087 34
8721 44
9764 101
623 41
2081 111
2368 44
5800 41
9263 32
2219 94
7624 26
8287 85
625 75
1219 2
2416 130
3970 111
7769 75
626 62
1428 12
3493 62
6405 19
7107 10
7629 89
9443 87
3112 14
7482 24
8512 29
628 43
6233 43
9534 43
2054 66
2597 12
4052 10
7527 33
9669 10
630 83
3581 20
7830 83
631 84
1337 23
3858 54
6491 50
9996 84
632 10
3805 102
5270 10
6010 2
6365 48
6786 93
7770 10
8527 89
633 78
1449 26
1884 98
2886 47
3654 57
8354 98
9215 57
634 57
897 79
6163 45
7924 39
8196 84
635 39
3285 39
4309 111
6035 84
7231 101
8099 1
9004 109
636 9
6706 58
9266 118
9507 85
637 70
4121 70
6196 29
6628 70
7160 11
638 74
1193 22
2002 118
3094 10
5083 126
7293 74
8700 1
639 20
6371 20
6410 27
7208 20
8342 129
4920 74
8479 10
9705 1
9777 10
641 85
5334 109
8489 19
8730 85
6447 39
7096 39
8230 78
8531 10
643 1
4235 85
4282 12
5058 1
5645 32
5727 121
8164 57
9842 10
644 126
1492 37
3054 126
8808 110
1105 124
2908 45
5400 6
7320 44
7819 110
8265 28
646 61
839 120
1397 76
1910 73
5280 98
647 125
1145 21
5842 12
9320 125
648 14
4039 8
4843 33
6092 87
8881 66
649 64
1904 10
2254 29
8246 39
8526 21
650 74
3486 1
7102 74
651 87
5200 1
6048 87
6308 87
652 10
888 36
1046 57
4192 10
5484 48
6440 12
6839 66
9700 110
3237 4
6432 82
8054 1
8139 74
8145 66
8306 10
8359 36
654 21
1421 21
3920 28
4406 122
7989 27
655 87
2117 28
4349 60
6107 44
7535 20
9400 70
9959 87
656 14
2167 51
4913 59
5489 54
657 93
1163 109
2868 18
5238 78
1478 89
3356 27
7780 92
8771 77
4799 18
5044 44
6763 122
7111 1
7976 66
9205 87
9357 77
660 36
6617 36
9187 83
9554 100
661 1
1310 8
1463 1
3387 1
6666 35
6741 1
1626 106
3628 36
4576 70
7974 75
663 78
1106 78
1961 78
3130 33
6226 98
8005 41
5214 78
5372 1
6761 64
665 89
2252 89
5015 89
666 123
884 1
4748 123
8942 42
7464 2
9791 118
668 86
704 17
3445 92
5313 3
6437 86
669 92
1440 92
2938 103
3604 44
5158 93
5712 10
670 10
2144 95
3642 10
6003 10
8167 10
671 56
3135 45
3170 44
672 68
4559 36
6675 68
9513 68
673 88
4397 66
4651 2
6110 88
1618 23
4606 49
8014 78
9611 56
675 51
2057 66
2703 98
5872 51
8901 36
1409 10
9078 121
1162 82
4483 24
4967 73
6311 44
9460 44
8375 82
2045 126
7331 25
7895 47
8295 79
680 102
5487 102
6358 29
7421 39
3543 127
7800 39
8617 76
9031 35
682 15
2086 26
3511 102
8282 127
8880 33
4307 15
5273 51
7418 64
8426 70
684 106
5204 96
8854 66
685 18
2000 6
6613 64
6762 93
8042 125
686 105
1643 126
2816 92
5441 105
6836 66
9671 105
2820 9
3364 47
5076 49
6082 73
6768 14
8309 134
3765 29
5261 1
8261 42
9655 111
689 54
1255 54
6012 57
6027 54
9185 66
690 94
7166 47
7501 42
7717 10
8414 11
8522 6
9047 94
992 57
3661 10
3781 15
7237 46
8201 8
8476 98
8853 64
4463 36
5014 36
9391 36
693 74
2549 120
2847 74
5970 67
8250 29
9236 74
694 61
3161 61
3243 43
4156 51
6614 20
695 64
2405 64
3350 43
4159 64
5013 22
696 69
1652 89
5108 9
6449 32
7301 22
5198 44
7562 102
8292 89
698 103
4529 10
5119 10
5936 110
5984 103
7040 35
8204 10
9446 9
6727 77
8480 42
876 1
2479 114
3189 1
8274 84
1368 34
1906 10
4479 84
6569 2
9745 11
702 81
765 44
3355 81
4757 2
6789 95
7489 111
703 10
3516 10
5685 10
783 18
4664 37
4806 9
5953 83
7334 106
7842 17
8100 90
705 120
3254 20
7255 7
9113 120
706 66
2300 20
5488 10
6977 105
9786 37
1483 74
3572 37
3938 40
708 109
3436 109
5396 76
7206 43
709 127
2563 112
4832 134
710 77
1198 29
1624 85
711 88
5657 88
8433 23
712 93
2013 93
2779 66
6162 35
7087 84
9329 28
713 35
1534 64
1995 37
2633 35
2967 35
5638 95
8333 111
714 1
1284 1
1328 71
4528 8
5168 10
7309 44
715 14
1327 74
3918 99
3939 39
6109 22
7322 131
8278 46
8687 110
716 92
1602 30
2151 49
2438 1
4639 54
717 58
4558 68
6934 106
7929 58
8750 66
9469 2
4478 28
6261 10
6658 2
719 39
1744 39
6506 120
7803 77
8988 6
720 81
5539 29
6816 81
8459 1
3784 106
6457 64
7042 1
8594 75
722 10
6715 84
8442 92
8992 121
723 37
2544 2
6050 36
6547 2
9970 37
724 99
1573 46
2394 99
7689 47
8356 77
9081 58
9151 99
9677 114
725 71
2809 6
6297 102
6949 28
7662 110
726 110
2759 6
3238 110
4285 87
6204 43
1139 14
5632 2
6984 134
7664 1
8110 103
728 95
3619 64
4087 6
3803 17
4241 64
1051 50
1081 76
2578 76
4000 130
731 109
7197 71
7692 78
732 35
7737 78
9906 6
1234 10
4359 79
8468 56
9407 99
734 57
939 57
3879 82
735 83
749 134
6725 83
7561 8
7902 110
8345 126
736 94
2620 120
5600 39
9555 94
737 82
1732 53
2010 20
3342 54
6229 35
6910 11
738 76
5493 76
739 10
7597 10
7873 92
740 10
3107 77
5007 10
5694 82
6860 18
741 99
4323 50
5056 31
5245 94
5550 99
7677 74
9229 23
4439 57
6045 1
6344 46
7026 57
7488 42
9330 116
743 2
7120 2
8239 39
8484 71
744 77
2125 1
5420 77
5763 77
6696 17
7567 10
8380 131
9046 27
745 10
2137 4
2632 10
3754 2
3843 66
6757 44
7913 45
9480 38
1224 36
1756 85
5473 5
1045 95
5191 108
9294 53
748 56
4964 39
6179 65
6389 64
7179 70
8657 134
8822 18
1963 19
4034 7
5733 9
6584 33
751 78
2745 14
3917 2
752 54
1169 35
1430 39
8041 7
9574 6
753 10
1346 29
6219 47
6483 21
7265 129
1013 57
3978 8
4590 43
7394 14
8625 80
3267 42
6724 15
920 39
5432 7
6275 39
6688 61
9992 65
757 65
1866 90
2133 11
2962 65
3217 105
5691 36
6923 1
8270 14
9181 76
758 107
2304 107
4693 39
4727 107
4889 125
5813 107
759 30
2178 61
3885 64
9546 78
760 1
2548 1
5259 64
6534 111
761 1
2044 80
4621 38
6636 80
7148 41
8337 113
5393 89
5739 3
6366 2
7616 130
7647 10
9070 1
764 31
4313 38
9450 31
1230 10
766 49
1315 109
5973 67
6562 85
1017 40
3012 82
3900 48
8097 64
768 28
2498 44
3755 57
3820 28
3957 28
4773 34
6799 7
8545 111
9585 11
769 1
2334 1
2419 111
2880 1
3327 1
8447 91
8638 76
770 111
1720 9
4427 101
4595 92
5351 111
9511 57
771 66
2860 34
3629 23
4906 66
7499 66
7586 1
8499 21
773 59
5878 78
6857 109
7010 59
8844 36
9169 66
1407 29
6169 55
9093 39
775 33
7095 0
8812 33
8913 99
971 85
1084 71
5522 20
6037 66
777 116
1271 106
6343 39
7862 116
8351 77
8892 19
778 28
1373 28
2814 16
3029 10
4278 23
5452 70
779 120
1860 76
2232 60
3541 1
4345 77
5810 51
780 1
3457 57
3722 1
5428 127
781 37
3174 129
3886 78
6646 99
782 23
4348 82
5332 64
7623 4
8556 65
8949 101
9553 23
2111 10
5339 76
2308 33
8081 68
9128 83
785 47
2277 78
3521 42
3694 10
4603 58
7839 82
8549 57
786 9
4449 10
2915 98
4847 61
5148 126
5276 1
7425 29
8943 6
9371 11
993 66
3753 10
4078 84
9013 10
789 56
4283 121
9837 41
9915 56
790 86
3288 2
6578 77
7773 80
8968 86
9522 86
791 64
2869 67
3872 67
4488 70
4826 85
8995 98
9664 27
792 66
793 1
3015 1
3830 10
6052 17
6896 8
7308 75
7807 1
1280 11
5170 56
6770 51
795 34
2580 19
3392 40
6042 84
7472 10
5915 28
9498 28
3090 113
3864 1
4841 6
7109 10
7140 10
9646 122
798 10
3055 32
3336 10
3358 36
3934 99
8754 67
8973 111
9226 66
800 1
1826 43
4981 1
5580 23
7614 34
8387 27
8521 28
9537 39
801 17
2556 84
6095 54
6128 1
6181 1
6756 17
8463 18
802 75
2445 87
5499 75
9234 66
9737 75
3325 54
6952 1
7099 42
9162 126
9916 8
804 71
4965 23
7905 44
8180 54
8524 71
805 94
1387 75
4146 10
5467 94
6518 61
806 99
6775 99
807 6
3235 6
4754 51
6467 6
808 20
1867 22
4215 62
5164 20
7811 75
7815 14
9196 42
809 10
1883 127
3432 1
3904 10
5296 36
6767 30
7251 111
811 10
930 10
1650 39
2375 27
3311 10
5054 121
5322 37
5360 37
7686 81
3691 120
6538 2
7413 2
8596 12
8931 10
1000 111
3955 39
4657 124
5368 78
6598 107
815 118
1611 74
6271 110
6803 39
8838 118
4095 127
5167 24
6586 110
8072 23
8155 87
936 41
4202 12
5819 60
7141 3
7958 40
818 9
1023 49
2871 6
819 89
836 31
3077 130
6014 72
7739 89
1496 73
2465 73
4351 132
6911 100
821 1
1366 12
3258 10
5680 1
6703 26
7784 1
822 26
2184 117
4453 26
4573 26
7439 26
823 74
4008 31
4511 74
5617 76
6089 76
8912 74
824 66
4471 62
5746 56
6716 98
6811 66
825 120
1048 120
2551 102
3643 120
4363 95
5908 87
6488 117
8608 57
826 10
1276 10
3231 10
3993 18
8355 71
9571 92
827 10
2171 17
2540 10
3016 99
3423 10
4571 44
5571 43
828 31
1768 8
3840 2
4525 1
829 26
5511 79
6307 105
2202 56
5508 93
9023 25
5177 67
6144 30
8871 28
9691 49
832 66
2238 78
4954 0
6884 66
7522 111
833 26
3657 10
4265 131
8210 10
834 3
1691 1
2884 76
2978 106
6821 54
7792 57
8781 111
5631 31
6891 7
9853 39
837 72
2509 11
5186 33
7112 66
8376 19
838 41
2397 46
4642 30
5797 2
1195 120
840 99
1267 130
3018 20
6072 101
6852 109
7262 105
7400 10
841 89
9666 24
842 78
952 4
4601 54
5669 60
843 36
1001 36
1941 17
2812 31
3421 40
4419 130
4662 1
5543 78
9198 27
844 51
1623 77
2198 1
7429 44
9182 51
9231 130
845 89
6535 61
9230 76
846 87
4933 87
7695 64
7909 117
847 126
2588 45
3888 45
4637 126
848 29
1822 120
2379 11
5434 10
849 82
3498 38
6234 46
2371 121
4943 127
7471 20
851 33
2442 78
4724 10
7124 33
7593 127
8326 88
2004 66
3064 1
9311 109
9567 11
853 91
4973 52
9103 91
2114 10
855 57
3555 87
4583 7
7070 65
856 56
3407 80
857 12
4618 68
6301 120
6698 35
858 94
1009 94
1489 88
6140 2
6722 35
7155 94
859 24
7492 24
4538 128
5793 95
6650 95
7134 57
1903 103
6436 131
6603 105
862 58
3393 58
3468 58
5230 21
5459 39
8455 58
7287 52
8856 57
864 1
4168 1
5390 12
5798 39
9590 67
865 76
3623 2
4372 6
5831 35
9462 60
866 57
3324 92
6465 57
7635 10
8834 102
9720 44
867 17
2116 17
5870 126
7648 17
7991 17
868 66
3367 10
4774 56
8024 30
869 96
1641 89
2943 1
4612 42
4660 49
6858 85
8416 46
1241 1
1781 39
2091 98
3487 1
6422 86
871 12
1634 12
2623 105
7121 57
8280 12
9235 73
2036 99
873 75
877 17
1628 111
5137 78
5779 1
7024 25
7411 44
874 119
8486 2
9223 47
9802 89
875 94
1351 87
1840 94
2472 1
4424 94
5651 1
9174 42
1788 24
5485 23
8496 15
8720 1
9291 1
3316 82
6746 17
9390 8
9800 17
878 44
2208 32
3053 44
3273 77
5431 61
5675 56
9089 66
9596 44
879 62
1341 64
4634 34
6021 62
7023 123
7541 116
8439 54
8639 62
880 32
5055 95
5207 32
881 95
981 38
1736 68
1837 95
3332 110
8930 64
882 6
8103 6
883 28
3837 10
4549 28
4948 1
5156 49
6480 107
7242 123
1256 1
3408 1
6652 67
6962 4
8833 23
885 10
3706 10
3767 64
8477 6
2780 1
5293 67
5553 25
887 124
1953 10
3236 61
7525 54
8514 124
9159 124
9926 29
1497 36
2289 119
7205 14
889 86
2850 86
4844 3
4922 51
1424 1
8366 82
8744 89
891 90
3924 35
6601 119
8806 6
9439 113
8987 124
9213 124
2156 10
3951 70
4165 15
2766 1
895 84
1846 45
2792 120
4096 38
4726 4
6391 73
2709 126
6286 49
7200 89
8266 79
898 93
1665 19
2118 66
4496 93
4821 16
5729 6
7782 79
899 105
1997 105
3182 105
3564 90
4469 9
6880 61
8807 122
900 20
1608 78
8686 20
5855 41
5881 29
6299 82
6574 44
902 29
1585 1
1719 23
3172 95
3652 29
9756 84
903 47
2921 47
5804 23
8523 1
2028 45
4341 10
8774 10
7210 10
9310 39
9433 40
3461 1
4246 66
5961 129
8796 114
8932 9
1922 23
2584 11
4548 95
8088 10
6026 29
6781 94
8218 50
9732 63
9340 73
910 10
1282 10
1764 10
2298 8
4210 114
6543 21
7672 68
911 41
1629 10
4896 50
8464 46
9018 41
912 3
3399 3
4706 33
4778 19
913 57
4019 66
4785 82
4798 65
8542 57
9365 57
9464 74
6290 3
915 98
6086 107
6861 30
916 113
2760 14
3697 92
5188 113
6656 17
8674 85
6522 1
7545 44
918 85
1761 1
6246 133
7402 17
919 21
2515 21
5193 94
1838 6
2663 85
6739 45
7935 115
8321 39
921 1
2876 1
4562 12
4681 1
6643 53
7701 126
922 1
5498 44
8202 86
923 118
1831 5
2866 64
3822 70
4138 1
7057 25
8361 35
924 57
2090 57
3766 92
7133 116
7719 8
8591 98
925 20
1972 29
3448 20
3723 11
6166 73
926 16
6568 84
6758 16
7821 46
8952 31
927 99
4842 44
4857 78
8483 46
928 61
5701 114
7436 38
8105 14
929 1
5150 49
2248 6
3095 70
5095 89
6733 77
2231 103
3841 22
9748 24
9974 24
5978 78
6083 38
7997 64
8576 81
1738 37
5240 9
934 78
2107 66
4378 39
5138 61
8434 14
3038 100
5668 73
6195 119
4043 88
6458 100
8831 88
937 27
2312 27
7994 45
9609 21
9954 102
1309 7
2097 39
4969 109
4113 81
5661 57
5987 35
6520 127
1887 10
6834 111
8493 113
941 84
1010 84
1024 84
4129 17
7523 8
942 1
1499 90
3218 71
6590 89
4837 5
8738 1
944 70
2378 5
5741 126
8234 3
1197 108
3894 10
5025 67
5514 78
5588 46
1242 39
1672 12
2754 39
4395 24
4412 64
6916 39
947 100
1915 21
948 86
1214 7
8635 18
949 31
1926 84
5569 10
6355 127
9000 51
9893 79
1994 60
5414 57
5995 92
951 7
5903 58
6828 7
2199 35
4677 10
6893 4
8012 6
8372 39
3113 67
3777 10
4433 56
5625 117
954 93
1730 66
5896 73
8551 1
8553 93
3724 6
7764 69
3282 1
5210 106
8993 116
9463 82
957 71
4292 82
1640 39
1806 10
3981 24
959 10
2664 32
4266 9
5424 101
5697 10
6287 95
960 81
4400 10
5455 80
6793 62
9373 84
2239 33
6060 48
7344 85
7516 1
9686 84
962 18
6998 18
7034 64
963 58
8251 4
9084 134
964 74
1820 94
3163 40
4025 1
6186 9
6783 74
8301 74
965 99
3099 49
5236 99
7710 99
8399 43
9913 10
967 18
6078 61
6180 18
968 85
2879 23
4173 85
9430 85
3171 10
6623 50
9771 43
970 1
1194 64
5658 66
8877 27
9085 12
1274 85
6324 85
8346 27
972 81
1848 94
2165 70
7093 23
8849 81
8019 18
8610 12
1834 26
2981 95
3142 116
5717 57
975 70
2087 45
7730 52
976 7
1510 35
3553 7
5109 47
7506 130
1835 1
2976 45
6637 71
9524 94
978 10
1186 10
3526 1
4793 10
2179 93
980 76
1748 19
2740 77
1057 10
1444 26
5030 38
6156 1
6259 44
7267 121
982 66
2807 40
3931 66
5413 10
983 50
7709 15
9258 43
984 16
2823 16
3962 16
5206 10
5458 77
8644 20
9568 39
985 76
1554 76
1632 66
7493 66
986 36
6191 94
3685 98
3687 10
3137 40
5724 76
6315 114
6831 10
7654 95
9843 89
2788 90
4474 86
5089 44
990 35
1847 70
2345 4
5264 35
5627 133
5921 8
8181 96
991 33
8107 102
8404 73
8873 92
3152 10
6056 110
7494 66
1540 46
4167 87
6968 85
8225 36
8450 66
994 1
1511 56
1976 84
3227 66
4781 90
8390 80
996 65
4653 18
8224 60
8276 123
997 78
3804 39
6000 77
6732 78
998 60
6001 23
7767 60
999 36
3202 111
5203 36
4301 111
4984 107
9785 38
3031 6
3698 36
4902 36
5048 36
5549 84
1002 6
1467 84
6704 49
7512 1
1003 2
9299 101
3427 1
1005 74
1464 74
2980 23
3769 39
1006 66
4160 12
4629 23
5324 66
7966 7
1007 1
1842 9
3721 45
8707 90
6407 120
7694 10
1324 1
2715 66
3855 95
8016 123
6954 38
1011 87
4586 21
5000 29
1012 35
7735 91
8600 35
1419 57
5494 10
1014 64
4411 125
5776 2
8980 64
1015 93
1505 1
2278 93
7715 21
8367 99
3361 64
5052 59
5381 75
6592 108
1018 22
2510 86
3205 116
5266 131
5386 72
1019 99
2435 1
2716 83
4563 29
7606 99
1020 39
1339 93
1986 39
4369 69
8589 94
1021 9
2376 89
4112 9
6348 101
7068 61
8176 1
1022 81
2356 10
2595 99
2899 73
3051 81
3787 64
2421 40
4840 49
5440 63
5912 119
1598 84
1702 75
7445 86
1025 66
1443 99
2627 42
2672 30
8153 64
8425 35
1026 66
5711 57
7348 113
8245 66
8784 88
1027 23
5633 23
7279 87
1028 45
2101 45
2290 10
6700 1
7554 24
9112 75
1140 10
8332 33
3550 1
4184 107
4853 10
5387 28
5395 1
1031 100
5021 120
5061 49
5409 57
5914 35
5974 80
7028 100
7883 37
8300 43
9036 100
6093 44
8517 44
3384 74
4628 115
8743 85
1034 64
2067 117
1035 20
1457 24
1849 66
5049 27
5913 82
8665 3
9305 20
2642 13
9739 100
9749 120
2693 90
7796 89
9896 134
1038 54
1767 107
1799 54
3397 96
7926 9
1039 11
1226 11
1249 34
6986 90
8628 24
8767 57
1040 73
6456 98
9775 73
9697 38
2326 8
4544 22
7979 121
8003 80
1044 58
2455 10
4624 91
5283 93
7941 6
9165 33
5397 116
7041 95
8018 95
1375 2
3946 57
4631 0
5795 103
5986 89
7451 22
1138 28
8188 10
9037 56
1049 7
3626 8
4803 19
7264 111
1050 61
4519 10
6254 85
8424 127
5715 60
1052 25
1070 55
5909 90
8642 32
1053 88
6120 46
6944 88
7222 21
9473 38
1054 57
3982 21
7414 120
1055 83
6253 85
1056 25
3650 95
5394 25
8861 9
5451 12
5775 79
6363 17
6516 10
6667 10
3874 48
9410 39
2297 83
6519 21
1060 4
4073 85
7349 21
8579 127
1061 39
4124 39
5405 107
7948 57
8092 84
8790 48
1062 99
8747 99
9474 99
1063 85
6081 1
9075 1
9087 85
1064 10
8550 36
1065 20
3003 105
4997 12
5353 90
2924 43
6605 108
1067 70
1471 1
4928 51
8777 26
9476 70
9758 70
1068 41
1876 41
2482 41
7298 66
8130 39
1069 87
4526 10
8396 88
8759 64
1718 119
6073 66
7277 36
7849 22
9486 133
1991 61
3022 83
5997 93
7861 64
8537 44
1074 14
3477 14
4109 80
4574 118
7724 78
8343 68
9751 14
1075 66
1729 10
2112 66
3815 66
5754 83
1076 51
1101 43
5101 84
6284 51
1077 39
5491 39
5966 76
1078 64
4256 10
9141 64
9152 21
9525 88
1079 102
5799 128
7406 102
7667 105
8144 27
1080 10
2417 10
3695 10
6094 10
4830 111
7130 76
1082 131
3334 96
7668 43
7826 45
7851 43
10000 131
1083 46
5919 45
8055 107
8437 78
2836 121
6381 111
1085 11
1664 11
8860 96
3531 55
4101 117
1087 44
5983 55
8937 16
1088 4
4331 39
7336 35
4425 1
8223 30
1090 66
1862 17
5131 66
6731 21
8510 73
1091 10
4045 82
5879 10
1092 47
3413 20
5373 79
5736 47
1093 41
1132 41
8269 11
1094 8
2990 110
3627 8
4589 35
8778 117
1095 41
2302 2
1096 47
4944 47
7416 96
1097 64
2451 33
7408 111
7947 1
8279 23
6751 86
1099 43
3329 8
3745 43
5547 89
7342 6
7497 6
1684 10
2330 67
3655 64
5195 23
7745 11
1102 12
6322 109
6677 104
1103 1
4732 66
6427 76
7241 128
1104 10
8307 10
2400 78
2456 89
8925 1
3417 83
4597 78
1980 19
2292 23
7544 78
1108 3
8445 107
8963 20
3208 1
5166 20
4925 105
7318 89
7528 80
8964 84
1111 31
6270 21
7824 10
1112 10
2223 18
3091 83
6268 10
6653 120
1113 111
6038 111
8618 6
9979 111
1114 111
5832 81
6400 111
1115 22
2542 38
6879 1
4023 77
5998 109
1117 117
3374 10
3794 23
9252 10
9420 8
1118 113
7239 107
1119 11
1173 99
1978 39
2491 56
3025 11
1120 4
4942 4
5578 39
5773 89
1121 94
1445 42
4674 94
8389 106
8714 94
1122 29
2919 74
6689 28
2333 10
8577 59
1124 57
5765 87
6054 57
1125 2
1300 2
6866 44
2113 57
4053 10
1863 10
6550 71
8135 115
2854 39
4358 26
4540 98
4955 109
5540 98
1129 10
2272 88
3833 11
4516 130
6057 10
1130 10
1349 10
1636 31
1131 4
3621 10
4306 9
5737 6
8651 104
2367 51
4828 36
7879 61
1479 122
6925 39
1135 74
1446 74
4355 39
4735 94
5535 74
6106 39
1136 73
8558 75
1137 27
2665 27
3630 27
4873 99
5792 23
5947 80
3200 10
9877 17
2401 1
2624 121
6713 10
9358 14
1605 90
1141 9
1955 17
7145 44
9796 78
3349 111
6175 44
8585 47
1143 39
1824 39
4962 88
4350 121
2821 123
1146 5
6452 99
1147 121
4518 121
5979 77
6040 121
7055 47
3210 76
3759 10
5545 0
1149 76
1340 92
3475 83
1150 1
4264 66
5243 10
5907 107
6709 67
8235 28
1151 99
5006 30
6289 99
8133 84
1152 14
6280 9
7363 23
1153 44
4509 56
9384 29
1154 9
2659 77
2890 84
3034 117
4193 34
5753 29
6005 73
6720 9
7491 102
1155 8
3183 44
6183 89
9050 8
1156 99
3558 89
4211 2
7306 93
8050 36
2176 56
6859 1
7818 109
5464 64
6825 17
8259 9
9212 10
3684 68
5423 12
7169 111
1161 94
3014 76
3909 94
9150 2
3191 114
4007 81
9117 82
4893 39
5972 85
6800 119
1165 74
2979 113
6747 41
7103 28
1166 78
1660 2
2259 3
5889 100
6999 8
1167 109
2511 109
2947 109
5574 109
1318 60
3536 60
4188 42
5572 60
7127 98
4114 52
9887 92
1170 87
1335 24
1417 64
2520 36
7581 85
1345 38
3398 47
2902 70
6387 67
1378 41
5176 83
6867 35
1174 122
6478 73
7487 89
1968 116
1176 111
1400 111
4776 89
7633 126
1177 88
4702 88
9080 3
4481 25
2765 88
5678 70
7266 48
7307 10
8733 48
1181 96
6423 5
6595 2
2335 102
5901 10
7747 114
9114 3
1183 93
2968 64
3919 77
5730 111
5895 10
6657 43
1184 19
5127 19
7170 73
7509 78
8552 81
9276 1
1209 97
2986 44
4848 114
7569 23
1187 35
4230 35
8791 23
1188 39
3464 39
4772 32
7285 101
1189 46
6340 109
6507 46
7260 46
1190 74
1796 73
7090 28
7447 22
7643 39
6227 34
7132 87
2617 85
3977 57
4262 64
5269 38
2447 74
3738 51
5721 89
1196 54
8124 10
4293 108
8765 6
2374 64
4817 122
7485 30
9523 1
1199 111
3544 73
4555 111
7549 111
1200 2
2743 43
3085 3
3363 82
5743 23
3166 9
7637 43
1202 48
4394 87
1203 23
4998 61
6684 62
1204 39
1480 30
2539 90
2948 76
3375 19
1205 38
2678 90
8905 107
1206 39
2441 39
1207 48
3720 118
1208 111
4222 111
5946 127
8032 67
2973 1
4175 1
4919 10
1210 89
1211 47
6024 23
2558 42
4010 2
7478 44
2075 85
2288 58
3312 33
4130 4
5036 77
7699 7
2768 64
3186 64
5077 94
1216 109
1790 109
2851 99
5244 34
6969 102
7006 41
1217 10
1773 39
4377 85
4127 61
4140 2
6845 47
8934 2
9370 57
1220 39
2216 127
3743 1
5154 39
5635 39
4237 17
6380 64
1222 64
2388 64
1223 40
2068 14
5618 42
6919 36
6976 71
8154 17
1225 46
2634 8
8944 77
1228 17
2602 109
8688 58
1589 10
1988 10
4402 10
4454 42
4626 34
7510 102
4316 10
9302 49
1231 85
1232 72
2995 72
3503 1
3813 10
7358 10
8150 85
8571 85
6753 12
8023 106
4860 78
5039 37
6701 10
1699 10
2529 4
8506 99
1269 39
2536 10
5357 25
6357 83
1239 88
4851 88
2359 18
2652 74
4081 2
7212 65
6619 106
4859 2
6011 77
7427 49
4839 10
6382 98
8406 114
1245 74
2422 9
3479 87
1246 16
4426 10
9743 44
9810 100
1247 115
3046 34
1250 23
4779 87
5726 45
1251 85
2284 123
5069 7
5552 90
6784 76
7118 100
9735 51
1253 10
2074 10
4002 23
6409 93
1254 1
3087 52
6245 44
9617 118
5338 54
2177 1
4123 1
6464 51
8409 57
1257 106
1452 1
2526 78
3298 66
4801 67
1258 17
4661 57
5001 64
7319 110
1259 9
3801 49
8573 9
9317 95
1260 131
1393 111
5124 57
5883 121
7080 65
1262 10
4254 42
4782 75
4787 0
9142 85
1263 10
5370 39
5935 57
6953 33
9134 51
2264 10
2492 93
3092 66
8756 85
1266 110
5037 110
7064 90
7718 110
2528 126
2835 7
3990 130
5558 66
1268 86
3984 86
7183 19
5221 1
6632 131
1270 10
6152 19
7372 71
7496 48
1272 66
5731 66
7638 61
1273 36
6812 36
8178 50
1565 64
9692 85
1275 119
2241 119
3942 41
3968 37
5479 49
3975 43
4212 34
8845 109
8028 123
1278 76
1473 26
2452 75
4291 66
6673 111
1279 8
2344 81
2873 8
7009 0
1281 64
4041 8
3575 91
5144 15
5277 53
8917 98
1285 1
4780 1
5835 64
1286 66
2414 52
3224 128
1287 38
3889 10
7885 23
7938 80
7585 96
7684 93
1290 98
1881 43
7276 20
1291 57
4174 120
6841 99
1293 84
5359 90
8870 84
5466 92
6327 39
6900 83
7790 92
1295 109
2521 89
2559 130
9319 117
1931 108
5583 7
3535 0
8255 77
1298 29
1614 114
2684 29
7644 6
8038 25
1299 39
1425 78
1302 39
4645 66
4667 44
4768 44
1304 107
5213 107
6865 107
3559 130
5180 23
1306 95
1870 66
2925 1
4759 99
1307 67
3593 102
1308 12
7461 106
3117 86
5079 1
9768 10
5399 95
5849 8
8122 8
1311 71
2139 71
4251 95
6039 100
6319 20
2806 66
1313 7
1786 1
5567 3
1620 109
6061 1
1316 103
9368 8
1317 119
2519 85
2707 33
2309 1
3887 51
5294 31
7481 10
5183 111
5843 81
1320 101
2787 111
4871 19
6932 39
7152 44
7952 10
8670 22
4417 77
4445 22
9680 89
1322 10
2372 20
4038 12
5437 39
7775 10
8151 130
1323 73
1821 51
4725 23
2115 1
2945 42
7650 14
9389 70
1325 10
3206 10
7448 64
3854 34
6823 103
7300 1
8491 6
8649 31
9052 116
1916 26
4499 74
4985 65
6912 90
4196 18
1329 10
3923 64
5546 48
5752 10
1330 119
7759 44
3937 1
5676 57
5728 103
1332 23
3554 23
7076 114
7961 88
1333 99
3157 99
7817 111
1334 39
4017 39
6676 39
7682 91
5445 66
5963 78
6353 111
9752 10
4143 66
1338 18
4250 58
4591 29
6331 56
9453 77
7387 78
4608 89
6853 64
7752 131
1342 17
3966 17
8584 64
2301 62
1344 80
1570 126
4279 29
5153 94
5184 9
9799 80
3469 94
9176 74
1347 107
7313 119
2863 64
3292 76
5375 1
7959 12
1350 1
4139 71
7224 97
7240 29
7288 87
1352 130
5994 119
6373 130
3988 35
1354 114
1670 78
5882 4
5992 92
1355 20
1990 67
3601 32
6225 88
9051 64
1356 29
4015 29
5888 66
8793 67
1357 10
3648 78
3997 112
6099 10
6957 101
7430 38
1359 64
4582 111
7591 78
1864 1
9675 99
1361 87
2247 66
6385 87
4744 61
2987 109
7840 116
8162 45
1364 39
2753 57
5027 39
3403 95
8763 118
9914 120
2183 12
1367 74
4132 3
5532 74
3565 34
4970 121
5041 83
1369 94
3688 94
5371 12
7392 119
8070 9
1371 78
4084 93
5674 17
7594 10
9005 21
4846 8
6992 93
3873 3
5803 28
1374 93
3760 106
4317 93
6691 31
6820 10
1509 66
4604 81
5250 2
1376 39
7246 89
1377 75
7039 130
7971 46
3717 1
6818 29
9055 78
9757 126
1380 51
1581 51
6059 129
1382 121
3596 64
9064 57
3947 67
6936 46
9040 48
3929 105
4979 60
4588 54
1386 91
7171 115
7504 87
7632 91
3488 28
9840 8
1389 103
6461 66
8928 78
2342 1
4934 10
8021 126
9071 39
9163 23
1392 45
1524 64
5224 86
5242 45
8400 130
7083 39
8986 130
1394 86
3074 12
1395 99
2402 99
1396 71
7449 8
2799 8
2957 76
3856 106
6748 1
1398 39
1969 98
2164 45
2474 38
4690 42
7556 0
6604 111
7484 91
1401 119
2069 23
2092 1
4300 15
4384 123
5885 2
1403 10
4171 10
5604 1
1404 89
5598 89
7226 1
1405 1
5509 68
8850 76
9475 23
3044 106
6826 10
3659 41
9155 29
3649 119
7943 10
5163 10
6973 24
1410 12
2355 12
2966 19
5379 12
6708 23
7955 133
1905 10
3261 61
8485 120
8857 118
1412 10
2702 1
4310 89
5078 10
1413 77
6266 90
1414 74
1894 29
5652 66
8583 74
1415 36
1517 36
5646 111
6304 36
1416 109
4877 0
8123 109
8171 85
8636 89
8946 60
3383 64
9104 64
1418 67
1563 23
4133 75
8528 20
5105 57
1422 27
4375 103
5349 130
5568 27
4169 102
5073 83
3293 1
6328 123
6686 100
2322 95
1426 1
1877 40
1427 16
3573 85
4838 1
1429 66
5866 109
6205 66
7757 52
8146 54
1436 129
3081 89
2600 82
9279 2
5486 59
1434 71
2770 9
9651 67
1435 87
2182 35
7003 38
4938 66
6807 64
8624 95
1437 2
4459 66
1907 2
6330 104
8570 127
1439 68
3517 49
6430 82
8368 68
9754 32
1940 13
7517 92
9237 35
1442 19
5579 10
7911 19
3518 78
3827 44
4213 39
5091 26
3913 106
6122 100
2561 66
4452 64
1447 64
8349 92
2977 99
4216 34
5608 93
6114 56
8193 1
2671 35
3023 1
1451 78
5595 115
2913 64
4058 39
1453 66
5194 96
6588 10
7740 109
8319 126
3847 56
5450 44
5766 64
3786 31
1678 86
4068 81
1458 96
6894 96
7271 96
8249 96
1459 35
3902 49
4880 27
6567 10
6848 28
6402 11
1461 34
2513 34
4296 13
7061 85
2655 16
4455 107
2641 89
3122 51
6558 98
5684 84
1865 25
9406 17
1469 96
3647 7
1470 24
8420 24
6824 39
2011 2
7490 78
1918 1
2266 10
9171 2
1476 109
1477 24
5026 37
6137 59
4874 85
5594 36
8852 99
2796 6
3857 1
1481 93
3378 1
3693 93
4180 46
1777 94
2332 74
2643 74
3609 10
3839 15
5331 1
6738 53
7317 121
2073 2
5802 93
6462 88
7159 23
1486 76
4687 76
1487 90
1562 35
2204 131
7568 11
2041 28
2148 43
3824 80
1491 57
1521 57
2279 11
3255 133
4005 34
4581 89
5505 127
5959 131
3443 66
4804 34
1494 109
1603 109
8308 92
8364 26
2970 70
3892 66
7269 15
2993 126
3304 7
6960 73
2618 51
6630 70
8289 3
2622 105
6240 2
7291 21
7048 130
8377 31
1500 39
1501 99
5563 66
1889 97
4678 11
6915 60
4231 26
4234 51
6356 8
3829 1
7675 66
6941 70
8869 129
2119 2
2197 109
2534 66
3836 29
7101 74
1832 66
3676 89
6337 66
7915 66
2024 100
2594 35
3028 85
3616 71
8408 47
6159 56
6370 24
7423 56
2299 39
6579 92
1513 40
5062 6
1514 127
2596 83
1515 10
3333 106
5585 47
7126 36
9295 15
5602 82
5929 24
4636 64
5065 14
6433 29
5952 47
1520 31
4413 69
1891 8
2720 39
5551 131
1522 89
3195 89
5483 12
1523 64
5821 20
6594 35
4931 64
8415 61
3956 68
5518 6
2120 10
2669 66
3532 4
9097 4
1527 3
5320 103
6901 10
1528 85
3757 45
4076 83
8716 85
1529 111
4094 111
2826 84
4541 47
1531 84
2213 84
2576 123
7798 88
5173 114
5002 66
6474 64
2244 89
6378 66
6412 61
7128 102
1537 10
4489 99
7219 87
2409 83
4797 4
8609 60
1539 2
9580 57
4029 46
6419 57
2830 83
7985 77
1542 10
1543 9
2506 9
5873 66
2407 70
5388 84
1545 39
9468 10
1546 39
1676 39
2786 42
4915 118
1547 11
4151 27
4218 11
1548 123
4050 56
6913 89
7063 44
1549 39
1784 95
3454 64
9072 39
1550 80
1839 80
2035 70
5380 22
1551 94
1705 7
2493 78
2676 50
5333 8
1552 30
2522 41
2531 81
3663 50
5665 39
7031 12
9178 44
5043 76
5876 113
8080 104
1555 66
3379 66
3528 51
6496 42
8959 66
1556 56
2444 45
4936 40
1557 36
1558 7
1938 9
3084 31
5461 7
1560 35
2751 35
3286 107
3852 4
7912 64
1814 126
2648 23
3283 36
3578 10
6143 66
1564 124
3119 66
4461 126
9452 85
3783 94
8252 43
3709 6
2607 32
3513 11
6672 134
1568 36
3455 7
6115 35
6472 103
1569 10
3605 10
5704 10
8160 93
5943 10
1572 23
4539 10
8063 40
7531 1
2349 10
4894 90
9738 111
6211 18
8779 87
1576 127
2822 15
4177 127
5519 62
1577 127
4764 1
5808 127
7703 121
1578 10
8205 78
1579 126
2555 111
4668 10
6193 114
5178 10
1583 61
1584 39
4036 100
4465 10
6244 84
1956 1
1586 87
2007 87
3153 87
4022 87
8086 51
1587 111
2377 103
2998 23
4221 18
1590 89
3234 35
4688 101
8157 10
4335 101
7906 52
1594 44
4792 76
1596 42
3052 12
1597 8
1765 104
3998 8
1599 77
5677 77
6599 77
7946 130
1600 14
6121 66
8128 1
8436 14
3319 45
5656 30
2878 19
4342 23
5690 116
6714 65
1604 0
1743 31
4502 48
7332 20
1607 75
2370 78
5917 64
6697 73
8170 11
1609 117
1610 12
3141 12
4420 66
6735 2
3678 78
5902 99
8536 74
6809 110
2014 1
4416 123
8262 114
5364 41
7233 113
1616 123
1617 97
7335 58
2714 23
7896 56
1619 56
7687 1
9277 57
6938 53
3109 70
1622 70
5951 80
2488 77
7244 87
8195 51
1625 34
5829 1
9658 66
1627 51
5016 50
8113 83
1630 1
2360 47
1631 45
2323 35
4652 85
4833 45
5134 0
2815 66
3102 110
3899 66
3776 51
6648 28
8330 11
3134 12
1635 1
2940 77
1680 106
2413 9
1637 14
5945 67
6212 50
8407 15
3653 66
4065 121
1639 42
8757 67
2501 78
8543 39
8979 44
1703 105
4070 10
6020 23
2694 126
4031 24
1880 10
3958 24
4476 78
3883 111
8116 39
6902 130
1647 75
1737 1
1648 109
2207 109
1649 44
2988 22
3271 95
2105 6
1653 85
3056 24
4507 85
1654 24
2959 26
6609 1
7283 73
4390 9
5430 56
1656 82
2989 36
1657 127
2971 78
3431 59
3456 79
1659 74
3096 44
5383 74
6885 111
7001 10
4332 70
7611 48
3442 10
4615 42
1662 75
2328 12
3710 8
5886 75
3474 1
8079 32
5844 56
1667 11
2336 21
2767 35
3808 66
6202 83
1668 65
2585 57
1669 34
1760 127
2855 130
9126 19
3021 8
4442 57
5601 4
3402 94
5453 42
2636 70
4329 36
1674 130
7956 47
8739 11
4199 39
5698 18
1677 39
4995 1
6111 34
5136 3
7683 82
3233 32
1701 19
2382 83
6573 25
6155 23
6321 44
1683 24
3802 70
2495 15
6633 89
1685 16
4281 111
5977 8
6577 2
1686 10
3666 75
4436 108
6685 111
7670 41
1687 114
2103 71
3354 114
8660 127
8737 105
1688 58
2396 58
1689 18
1690 45
5828 37
6028 10
1692 12
1979 52
2587 39
5382 96
9614 10
1695 44
4614 127
6170 14
1697 39
3192 10
3357 50
6276 43
7596 66
8559 28
6251 78
7714 3
5937 45
8671 45
1993 49
4494 26
6375 67
6744 12
3302 78
2088 95
9401 48
1711 17
4729 115
1712 57
3773 57
4408 129
7733 52
1735 127
4451 50
1714 78
5944 125
1715 12
1721 111
2992 12
3682 97
4600 39
7053 2
1716 58
1763 10
1717 12
6030 103
8106 105
1974 89
3881 125
2046 9
8191 9
1723 90
3405 111
6631 15
1725 62
2996 10
1726 81
8989 41
1728 10
3819 39
2675 64
5151 95
3116 65
3645 15
4100 67
5251 53
1733 66
8681 20
2015 92
1879 0
2130 66
8043 22
4638 17
7254 37
2205 16
1741 57
5845 39
1742 86
1949 21
7396 89
2424 22
5985 37
1745 73
8902 73
1746 19
2089 19
2282 134
2307 31
3640 2
5278 39
6608 2
4783 19
3083 1
1754 1
1755 85
4566 1
6160 119
7324 87
5309 18
1757 9
4128 64
3125 10
1762 66
2912 32
6201 2
4691 10
7213 27
5011 70
7609 64
7962 104
3960 72
4318 107
2406 29
7261 26
3758 98
5590 96
2490 15
7771 60
1774 64
3042 64
5851 87
6293 44
7328 51
6044 12
6130 46
8175 66
1779 11
2953 46
3433 1
3600 80
2275 57
6217 59
8701 10
1782 104
3718 61
4460 56
1785 80
4532 89
1787 70
2180 70
6228 100
2752 49
3936 21
4622 10
1791 130
5606 11
3027 107
1794 17
2025 1
3589 17
5934 51
1795 1
2108 84
1798 10
3176 10
4242 39
4437 1
9649 10
1960 1
2251 10
5237 34
2552 101
4885 66
1803 4
6248 66
4486 77
2227 1
1807 45
4446 77
1808 84
6004 78
4941 133
5517 92
1811 47
3373 39
1845 6
1813 18
2658 61
6063 18
4747 8
5557 110
9192 89
1815 130
5358 93
1817 118
2651 102
2791 10
3828 42
2429 94
8007 130
4686 88
8039 126
1823 3
3353 106
7359 12
8004 56
4380 27
4699 88
8896 39
4491 4
5826 10
1827 126
8613 10
1828 99
1829 10
3066 33
7551 30
7576 130
9233 113
8487 45
5047 39
5297 89
4338 9
1920 60
3607 31
3727 1
2412 10
3158 62
4988 34
5187 109
9500 39
9316 39
6966 83
5436 105
6740 105
4429 102
5343 10
8555 9
5503 86
3846 84
5181 31
1897 74
2705 94
3679 12
5875 14
1852 41
2591 64
2828 33
1854 44
4227 44
4831 1
7278 10
1855 1
5884 10
6418 81
7836 1
1856 57
4267 56
3128 1
1858 121
4110 118
6168 83
5637 99
5117 9
5469 76
3631 67
8411 15
4777 17
7932 96
6702 78
4060 86
1933 64
4898 90
8065 11
1868 1
2070 1
4263 94
4462 84
5759 10
1871 57
2058 66
2094 70
3638 78
1873 123
7199 122
1874 47
4153 104
6565 47
1875 62
2843 62
3032 14
1911 41
4820 64
5969 18
2131 51
5255 83
1878 66
2700 47
3228 49
6260 66
6426 1
8275 29
4508 39
5086 126
6563 117
4467 127
3045 44
5755 98
7852 41
1885 27
1973 1
4040 92
3120 92
1888 11
3415 104
5222 101
6017 8
2604 10
6772 89
1893 41
5032 48
6117 50
1895 9
1896 121
4208 5
3450 134
5123 130
1898 12
5722 67
8163 20
2230 38
2747 70
1900 70
3132 70
7389 125
1902 70
3276 21
4524 103
5732 10
6336 80
7526 10
7776 106
2194 2
7147 92
1908 27
8027 3
3181 73
4956 66
1912 80
1942 60
4485 122
2961 87
4245 131
1914 84
2849 8
5310 105
5481 52
6600 119
5097 30
4886 115
4142 101
1919 1
2695 19
3782 80
4346 84
6398 36
6777 92
1923 39
4989 11
5096 39
1924 46
9025 29
1925 10
2939 76
5801 4
7507 108
2612 93
4214 101
1930 18
2220 18
4438 109
7380 57
2340 47
7854 15
4767 39
7933 0
4669 61
1937 81
2134 81
2189 66
3943 66
5335 74
1939 54
2006 54
2124 13
5290 66
7238 97
2833 60
4789 60
6587 48
2384 8
6640 77
1945 10
1947 66
4027 10
5833 66
1948 29
3542 29
2582 84
7620 3
1950 87
3401 21
4909 85
6810 67
1951 10
2592 20
7401 66
6498 10
4881 10
8446 35
3188 10
3932 42
4569 17
6062 41
6435 111
1958 10
3495 117
1959 58
5999 1
1962 10
4360 27
5201 10
5418 10
1964 26
7502 4
4605 21
1966 66
1967 68
3849 15
3507 98
4457 92
5038 98
5794 10
7995 19
1970 52
8457 33
1971 66
3814 49
6670 73
8391 111
5408 36
1977 28
4683 28
7975 19
3859 120
7056 118
1983 1
1984 1
3658 131
4620 39
6773 92
6883 37
1985 130
2253 81
3036 82
3370 27
5325 82
1987 18
3310 10
1989 45
6424 32
9006 8
2009 44
4675 67
4271 16
2457 57
4240 22
2749 49
5253 49
7172 43
8703 60
8562 37
3656 57
4672 32
5329 87
6124 20
2001 10
4701 95
5559 114
5767 118
3287 99
3050 78
2005 38
2667 4
5348 131
6596 48
3862 93
3976 134
4716 33
3082 15
2706 121
4966 92
3811 89
5219 108
6795 108
8053 99
5824 89
2016 43
2017 10
3248 83
6736 84
2019 16
2020 47
2021 26
6487 66
2022 35
5419 92
6980 1
2026 10
2027 102
8271 100
4952 10
2040 10
5930 95
2032 11
2287 79
2543 11
2613 111
5346 66
4808 50
2037 1
5710 120
2038 51
6560 105
2039 22
4333 9
2337 34
2696 15
4895 1
2042 10
5967 44
8240 10
2043 121
5003 80
5847 105
2048 39
7259 93
2049 35
5524 26
2373 47
2499 10
2052 23
7655 88
3799 126
8373 66
2055 99
6076 70
2056 126
5696 62
2187 66
4079 12
4181 52
8233 99
2059 94
6392 7
2061 64
3010 1
2062 94
4487 94
6147 93
2064 132
3346 39
4818 10
7046 77
3127 133
3204 126
7143 117
2071 11
2072 8
7137 131
3147 10
3360 85
4865 2
2078 120
3780 94
5132 73
2080 95
3314 51
5956 66
3497 111
2083 76
2084 47
5068 86
7051 11
3222 10
4134 94
3322 15
7125 111
7189 26
7706 26
2466 10
2628 57
4810 85
6769 15
2845 75
7131 29
3244 1
7218 12
8009 75
6695 56
2095 85
2778 126
3320 47
5529 10
3585 39
8678 75
2215 20
5355 17
2100 53
2758 6
4912 132
7165 23
2994 66
3551 45
2102 6
2920 6
2104 19
4150 19
2834 1
2106 82
6580 82
6755 66
3583 57
2109 74
3167 57
5142 74
3114 66
2121 31
2122 4
2885 20
4619 11
2123 75
4947 92
3389 1
8680 83
2126 66
2128 6
3770 75
5285 100
7615 35
2685 23
3633 51
8682 92
5040 56
2614 38
3180 121
6536 36
2140 104
5996 20
2141 10
2142 101
6792 43
5185 95
2145 14
2147 10
7434 57
2903 2
4305 39
6239 81
5033 56
2660 10
6849 10
4514 101
6310 86
2155 19
6794 57
6264 78
2158 35
3891 1
2159 9
3263 38
7180 10
2530 123
2162 97
4697 126
4074 14
4258 45
5825 45
3294 75
6950 10
2166 106
4708 85
8971 51
2168 99
6029 101
2169 48
2170 90
6612 64
3744 33
6329 78
5303 1
3675 39
5940 10
3041 43
6125 21
7570 109
5560 10
6476 131
7142 90
2965 117
4220 56
2185 39
4627 66
2188 10
3411 35
4393 39
4089 20
2190 80
3926 48
2191 84
5911 84
2192 62
3351 64
5841 107
2193 83
2603 82
6088 94
2195 126
7530 22
2196 47
5620 66
2201 132
6396 30
5916 57
2440 34
9941 78
2209 64
2210 10
2605 44
2211 41
2212 39
4673 45
5197 39
5555 37
2721 2
6996 123
4032 29
5614 84
8078 19
8926 36
3809 1
2218 10
3547 94
6362 78
2221 71
5581 41
2224 41
3689 41
2225 7
2226 12
3816 133
4784 92
2229 101
3441 42
7149 86
3576 38
5229 111
2504 103
4276 103
5762 91
3277 60
4304 56
4802 70
4119 10
8336 96
7004 51
2240 1
5161 77
3971 81
4575 93
2688 10
3731 45
6223 10
2246 57
2997 103
4473 1
3439 64
2250 25
5072 76
6070 39
8866 111
4824 81
6832 29
2255 127
2256 95
2258 41
7604 6
2704 98
2638 21
5328 7
5352 67
3979 59
2458 23
2874 48
5783 57
2273 106
5750 114
6797 10
9665 50
5814 19
2351 66
2895 1
4047 109
5411 21
4545 123
2285 89
6262 89
2286 21
7193 22
3681 11
2295 43
4072 42
6148 123
2296 50
4712 10
3587 83
4578 90
4823 10
4523 8
6544 8
2320 12
5252 85
2480 100
3603 64
8595 1
3637 64
3266 66
4456 39
3165 33
4057 39
4144 43
2310 1
2311 1
4176 51
6572 32
2314 60
2315 119
2316 109
9349 17
2317 114
3284 114
7294 126
2318 108
2319 6
6314 6
2650 12
4758 10
6006 44
7457 40
8033 1
2324 23
4200 23
7954 23
7920 102
7367 48
3059 77
3764 83
2454 134
6198 24
6961 64
2437 3
3492 10
3810 38
4711 82
2974 17
3008 1
2365 101
4325 127
2338 23
2483 74
4120 87
4977 9
6243 48
7540 94
3223 67
3278 4
4959 68
2841 17
2347 28
3377 28
2348 39
4223 48
9191 76
4756 66
5624 21
2353 77
4795 73
4796 41
7634 0
2846 108
4498 62
6869 93
2357 106
3522 123
8874 44
7059 74
7005 118
2362 66
3714 66
2496 38
5462 26
3700 92
2911 121
3669 89
5811 96
4327 129
2380 54
2381 99
3225 32
7066 8
7362 85
2783 64
2386 24
2387 0
3209 108
5341 49
5898 0
6401 10
2389 31
8238 56
2390 73
2392 19
2395 14
6220 14
7838 81
7886 40
7809 78
2403 22
3340 34
5475 78
3145 1
5544 65
6105 30
7518 64
5772 121
2408 51
4760 39
3466 67
2410 101
6494 8
3599 12
5235 106
2415 7
2593 120
2637 14
5541 100
5246 7
3546 35
3848 22
2425 1
4739 39
2503 95
5609 116
2430 48
2635 87
3295 48
3742 23
5299 42
2433 89
8102 5
3496 45
2436 83
2589 107
4162 106
6659 75
2610 88
2900 120
3620 11
2448 48
7433 61
3524 123
5169 4
4158 126
4972 75
2453 4
3303 60
5603 10
2681 110
2795 40
7016 10
2640 60
4033 66
2460 133
3791 20
7351 89
2467 86
5964 98
4016 103
2470 0
6241 0
5790 4
4082 16
3556 1
4945 89
2840 63
5817 89
6008 61
7931 18
2481 84
2485 107
4875 107
8136 10
4126 21
2489 92
2856 10
3930 48
5292 1
5642 83
6230 38
2497 32
4001 78
2500 99
4692 99
6524 10
3995 24
2507 97
4021 8
2505 6
8310 6
4533 130
4248 6
3430 103
2516 114
2781 39
2518 1
6850 45
2523 111
4554 57
5093 10
4322 69
4811 123
5028 23
6350 89
2533 112
4203 86
5474 66
6514 66
3915 1
6760 126
3632 11
2960 85
4085 14
2583 87
2550 66
5805 2
4738 89
7762 57
2554 1
2984 111
4042 15
3068 37
3460 11
3591 92
3895 1
9885 121
2565 42
3365 76
4990 88
2931 17
2569 1
5689 40
5220 32
2571 81
2572 15
2916 127
3458 107
6189 63
3380 58
7598 121
2579 2
3789 35
7384 19
2586 85
3617 60
2891 38
7595 120
9043 8
3344 83
4105 64
2773 95
3825 88
3004 1
4580 125
2918 130
2670 10
5597 110
2609 87
3509 78
2615 22
3481 22
7788 22
2616 8
2877 44
3817 2
2722 8
7882 94
2619 77
4867 41
2621 12
2625 84
3106 67
2626 16
5300 39
2629 44
2734 10
3897 99
4014 44
6728 29
2630 22
3530 73
3419 10
4157 29
5081 4
6127 8
4680 8
5425 106
6477 2
7337 50
3651 1
2644 2
5523 10
2862 44
2719 73
2649 10
6263 91
2656 107
6075 80
3512 66
4371 77
2917 29
8826 92
2662 47
3662 87
6864 85
7341 94
2666 40
2668 105
5217 50
2673 12
6712 41
2674 10
2677 64
3539 64
7949 119
4450 80
6504 66
2686 133
2889 44
2687 1
6154 10
2689 56
3069 66
2690 1
4280 75
3124 1
5092 112
2699 9
2887 49
3506 9
2983 6
2837 1
6468 57
5319 118
6499 48
3570 98
7763 11
2710 93
2711 10
2712 23
2718 26
3133 26
3062 60
5249 35
4946 2
2731 10
6306 129
3677 80
5520 17
6576 64
2739 10
4878 10
3505 10
2742 27
3964 43
6523 60
3057 12
3552 86
3198 1
7123 44
5702 19
4503 103
2756 44
6015 42
3290 78
4916 61
3449 12
4553 81
2763 16
3080 70
7173 1
2769 106
8093 62
2772 10
3177 11
3845 15
2785 52
5190 93
3740 23
8564 42
4106 36
3702 99
4834 120
2794 33
3807 108
2803 1
5100 66
4655 127
2811 16
3595 10
2817 25
2818 11
6222 61
4883 54
6948 58
3747 10
5344 39
4024 39
7305 64
2829 86
4164 8
6235 0
5671 1
5871 74
3308 28
4145 57
2838 62
3020 98
5456 62
3328 46
4135 17
2844 52
5042 36
5521 64
5742 74
5347 44
2852 66
7156 101
2858 114
2859 27
5165 73
3696 44
4362 64
4715 47
2882 64
4501 64
4592 50
2867 64
4440 23
5610 39
6126 18
5233 8
7094 46
2883 124
6249 49
6292 100
2888 97
3272 14
4224 113
2897 93
3376 93
4141 42
4630 113
2905 2
2907 51
3732 79
3602 49
8350 77
6808 29
2935 56
7636 56
7897 27
2944 66
3991 66
5384 122
8378 67
2946 44
6158 44
3502 57
4482 15
3197 39
4572 84
8069 36
6642 5
6972 82
7176 65
7114 83
4009 59
4233 1
2975 57
3796 35
4219 45
6167 42
4004 10
5861 115
5130 4
6406 54
8047 78
3527 61
2991 57
3514 50
3972 57
4229 3
4723 53
5716 88
4695 65
3752 99
4253 57
7391 74
6717 66
4252 39
6537 52
5314 47
5510 47
3017 10
3869 80
3386 76
3019 37
3533 95
5500 90
6237 11
5275 129
3893 77
7021 127
5497 80
3861 80
7085 3
3462 12
3058 51
5326 88
5650 73
3268 106
5613 78
5501 49
4277 53
8692 45
6431 4
3537 26
3490 113
3908 23
5867 110
4061 4
6242 21
4098 64
3123 20
6625 62
5852 60
5227 129
3867 5
4720 39
4816 89
5114 76
6539 39
3155 110
3156 86
3520 10
4398 120
4682 131
3491 1
3257 28
4232 35
6876 49
5023 31
3187 50
5734 127
3190 39
5877 10
3193 42
6441 54
3390 57
6332 36
6305 30
4927 2
3216 110
6320 26
6940 65
4290 49
4703 4
3230 24
3232 46
7871 32
3240 48
3242 27
6555 79
3391 7
3921 19
4077 31
3253 18
6503 42
5527 133
4550 10
3275 47
3281 124
8419 79
6131 82
3296 47
3300 114
3301 67
4953 115
6759 57
3313 68
3315 87
6214 66
4647 54
3326 109
3339 50
6023 107
7708 8
3343 77
3345 10
3366 90
3372 78
4044 10
4366 19
8114 64
3422 76
5904 101
3525 79
3973 2
7207 94
6177 80
5226 116
3418 59
3420 42
3428 4
5932 7
4610 1
6484 78
4011 74
3446 42
4379 87
3914 10
4480 89
4961 63
3472 99
8206 83
5362 19
3489 89
6814 64
5295 131
3850 54
4236 7
5653 74
5822 39
5853 39
3523 77
4602 23
3793 39
3562 57
3567 19
4753 36
6053 10
3590 86
3584 84
5155 1
3597 2
3598 36
5376 36
5444 39
3614 64
3610 85
3905 1
5683 105
5525 96
4911 3
5806 10
3730 95
6414 119
6664 10
3664 89
6184 93
4658 113
6847 79
3703 39
7916 64
3711 39
8500 86
5139 10
3719 88
3734 41
3736 74
5490 93
3750 60
5337 121
3779 116
3797 58
4273 41
6022 87
3812 103
5526 114
4743 88
3831 106
7495 35
4389 45
8749 66
3901 51
3903 107
5090 89
4247 103
5655 39
3961 118
4125 57
7327 92
4172 10
4059 45
4064 57
4765 99
5643 56
5894 21
5070 26
4155 51
6055 39
7274 36
4191 34
8709 36
4197 10
6288 54
4239 32
5496 1
4736 89
6164 14
4939 77
4705 10
4422 61
4434 20
4963 91
4468 105
6471 21
5429 10
4790 1
5448 84
5634 76
