0 0
1 1
2 2
3 3
4 0
5 4
6 5
7 6
8 0
9 7
10 0
11 8
12 7
13 9
14 4
15 2
16 10
17 0
18 11
19 5
20 12
21 7
22 13
23 1
24 0
25 3
26 14
27 6
28 0
29 15
30 16
31 12
32 17
33 6
34 9
35 0
36 12
37 5
38 4
39 18
40 19
41 17
42 20
43 21
44 5
45 7
46 14
47 2
48 16
49 0
50 6
51 6
52 1
53 16
54 10
55 7
56 0
57 22
58 2
59 6
60 8
61 7
62 0
63 7
64 8
65 12
66 9
67 2
68 20
69 12
70 23
71 8
72 7
73 20
74 24
75 0
76 2
77 5
78 7
79 12
80 6
81 16
82 7
83 2
84 2
85 0
86 0
87 2
88 7
89 14
90 5
91 2
92 5
93 21
94 2
95 0
96 8
97 3
98 25
99 8
100 7
101 23
102 5
103 2
104 23
105 26
106 7
107 6
108 7
109 20
110 2
111 23
112 27
113 20
114 0
115 15
116 14
117 15
118 7
119 2
120 10
121 21
122 2
123 0
124 0
125 0
126 7
127 11
128 0
129 7
130 2
131 6
132 6
133 27
134 7
135 0
136 0
137 11
138 24
139 0
140 24
141 0
142 23
143 5
144 7
145 0
146 11
147 0
148 14
149 12
150 25
151 7
152 21
153 0
154 0
155 24
156 2
157 0
158 10
159 14
160 16
161 10
162 28
163 5
164 1
165 2
166 4
167 17
168 27
169 20
170 0
171 0
172 9
173 18
174 16
175 20
176 15
177 6
178 4
179 7
180 5
181 26
182 6
183 7
184 16
185 14
186 0
187 10
188 0
189 9
190 9
191 19
192 28
193 10
194 16
195 2
196 9
197 0
198 17
199 0
200 0
201 15
202 5
203 5
204 4
205 17
206 25
207 0
208 23
209 20
210 5
211 0
212 7
213 7
214 5
215 20
216 24
217 5
218 6
219 0
220 10
221 6
222 7
223 0
224 26
225 21
226 16
227 0
228 6
229 24
230 20
231 6
232 8
233 6
234 17
235 7
236 26
237 11
238 21
239 20
240 28
241 22
242 25
243 0
244 7
245 0
246 7
247 20
248 26
249 0
250 21
251 0
252 20
253 7
254 6
255 7
256 7
257 17
258 10
259 0
260 5
261 7
262 20
263 6
264 7
265 11
266 21
267 7
268 28
269 21
270 6
271 16
272 0
273 2
274 2
275 6
276 7
277 2
278 5
279 6
280 23
281 8
282 26
283 0
284 4
285 5
286 20
287 9
288 6
289 8
290 24
291 5
292 20
293 2
294 6
295 0
296 12
297 26
298 22
299 0
300 4
301 0
302 11
303 21
304 11
305 7
306 0
307 7
308 17
309 22
310 0
311 10
312 0
313 14
314 0
315 16
316 17
317 17
318 15
319 7
320 15
321 29
322 10
323 21
324 17
325 2
326 2
327 7
328 7
329 5
330 16
331 2
332 15
333 11
334 20
335 6
336 17
337 7
338 20
339 7
340 4
341 10
342 7
343 21
344 27
345 2
346 11
347 5
348 17
349 20
350 12
351 20
352 24
353 12
354 27
355 8
356 17
357 12
358 6
359 17
360 20
361 0
362 7
363 20
364 0
365 9
366 28
367 10
368 11
369 14
370 21
371 5
372 27
373 11
374 30
375 6
376 22
377 0
378 7
379 6
380 6
381 10
382 2
383 10
384 0
385 5
386 9
387 11
388 15
389 0
390 17
391 3
392 5
393 2
394 0
395 30
396 6
397 7
398 2
399 0
400 1
401 16
402 7
403 2
404 18
405 10
406 11
407 0
408 0
409 6
410 8
411 11
412 17
413 10
414 24
415 7
416 17
417 9
418 23
419 2
420 2
421 0
422 10
423 1
424 26
425 21
426 12
427 0
428 0
429 0
430 21
431 6
432 8
433 0
434 7
435 0
436 7
437 17
438 0
439 0
440 10
441 20
442 5
443 20
444 6
445 15
446 5
447 17
448 0
449 12
450 0
451 24
452 6
453 7
454 0
455 6
456 30
457 10
458 6
459 7
460 7
461 0
462 16
463 11
464 0
465 0
466 16
467 12
468 26
469 0
470 0
471 11
472 5
473 2
474 7
475 16
476 6
477 17
478 0
479 7
480 1
481 5
482 2
483 6
484 1
485 11
486 29
487 6
488 9
489 6
490 10
491 5
492 16
493 0
494 7
495 5
496 0
497 7
498 11
499 16
500 0
501 0
502 7
503 5
504 12
505 11
506 5
507 5
508 10
509 4
510 7
511 0
512 0
513 7
514 0
515 7
516 7
517 2
518 7
519 0
520 7
521 0
522 7
523 6
524 14
525 9
526 0
527 0
528 17
529 7
530 2
531 9
532 20
533 10
534 5
535 8
536 10
537 13
538 24
539 3
540 11
541 7
542 21
543 17
544 0
545 5
546 5
547 6
548 0
549 3
550 22
551 5
552 20
553 24
554 20
555 7
556 2
557 17
558 2
559 17
560 9
561 27
562 0
563 5
564 28
565 2
566 0
567 7
568 10
569 22
570 16
571 6
572 0
573 17
574 9
575 6
576 0
577 0
578 0
579 9
580 16
581 0
582 12
583 30
584 0
585 20
586 5
587 8
588 0
589 21
590 16
591 17
592 2
593 17
594 7
595 7
596 0
597 28
598 6
599 0
600 9
601 0
602 20
603 7
604 25
605 11
606 20
607 19
608 27
609 25
610 0
611 5
612 24
613 11
614 12
615 10
616 17
617 29
618 20
619 2
620 20
621 16
622 20
623 0
624 24
625 20
626 28
627 7
628 21
629 0
630 7
631 2
632 2
633 7
634 6
635 6
636 17
637 17
638 5
639 20
640 2
641 6
642 2
643 21
644 8
645 0
646 16
647 0
648 5
649 7
650 11
651 6
652 10
653 5
654 0
655 5
656 6
657 4
658 24
659 0
660 0
661 7
662 7
663 7
664 12
665 7
666 0
667 17
668 6
669 17
670 0
671 11
672 5
673 20
674 22
675 7
676 17
677 10
678 18
679 0
680 0
681 3
682 4
683 20
684 16
685 17
686 0
687 22
688 0
689 0
690 6
691 7
692 6
693 0
694 24
695 2
696 2
697 4
698 5
699 10
700 2
701 0
702 0
703 0
704 9
705 24
706 7
707 10
708 13
709 16
710 21
711 6
712 2
713 7
714 11
715 5
716 24
717 2
718 9
719 24
720 27
721 9
722 9
723 7
724 7
725 0
726 7
727 0
728 6
729 11
730 7
731 0
732 0
733 5
734 5
735 5
736 16
737 11
738 5
739 16
740 14
741 20
742 22
743 5
744 5
745 6
746 0
747 0
748 6
749 11
750 10
751 14
752 16
753 11
754 7
755 11
756 6
757 11
758 12
759 20
760 5
761 5
762 0
763 20
764 23
765 24
766 9
767 21
768 2
769 0
770 21
771 22
772 21
773 11
774 7
775 11
776 9
777 23
778 0
779 0
780 6
781 0
782 0
783 21
784 3
785 0
786 4
787 7
788 0
789 20
790 15
791 9
792 10
793 0
794 20
795 0
796 0
797 0
798 22
799 2
800 7
801 7
802 16
803 24
804 1
805 0
806 7
807 17
808 3
809 21
810 5
811 7
812 5
813 31
814 5
815 20
816 22
817 21
818 7
819 12
820 5
821 17
822 0
823 4
824 0
825 2
826 9
827 20
828 11
829 2
830 11
831 8
832 24
833 2
834 16
835 6
836 5
837 4
838 1
839 2
840 0
841 7
842 24
843 24
844 10
845 0
846 0
847 7
848 26
849 27
850 10
851 16
852 10
853 26
854 6
855 0
856 2
857 24
858 7
859 2
860 5
861 2
862 12
863 9
864 7
865 9
866 12
867 7
868 16
869 12
870 5
871 21
872 30
873 6
874 3
875 22
876 11
877 20
878 0
879 9
880 0
881 2
882 0
883 12
884 27
885 2
886 0
887 23
888 0
889 0
890 9
891 24
892 22
893 10
894 11
895 20
896 6
897 0
898 7
899 22
900 11
901 6
902 11
903 5
904 2
905 20
906 5
907 2
908 2
909 4
910 0
911 7
912 3
913 21
914 0
915 24
916 5
917 17
918 24
919 2
920 7
921 7
922 6
923 7
924 2
925 6
926 6
927 5
928 7
929 22
930 16
931 0
932 5
933 0
934 2
935 20
936 20
937 0
938 13
939 24
940 3
941 9
942 0
943 2
944 21
945 0
946 7
947 17
948 0
949 21
950 21
951 17
952 0
953 21
954 24
955 22
956 7
957 6
958 6
959 11
960 20
961 7
962 2
963 21
964 2
965 2
966 9
967 21
968 0
969 11
970 20
971 7
972 7
973 6
974 6
975 7
976 7
977 7
978 6
979 7
980 2
981 0
982 7
983 11
984 0
985 2
986 0
987 8
988 5
989 21
990 12
991 2
992 0
993 8
994 5
995 11
996 0
997 0
998 4
999 16
1000 24
1001 10
1002 0
1003 2
1004 24
1005 5
1006 12
1007 20
1008 16
1009 10
1010 7
1011 20
1012 0
1013 0
1014 6
1015 0
1016 10
1017 7
1018 9
1019 8
1020 23
1021 0
1022 20
1023 0
1024 5
1025 7
1026 2
1027 21
1028 7
1029 6
1030 20
1031 2
1032 23
1033 7
1034 6
1035 6
1036 12
1037 7
1038 23
1039 0
1040 5
1041 0
1042 10
1043 25
1044 7
1045 6
1046 16
1047 20
1048 9
1049 14
1050 12
1051 19
1052 12
1053 10
1054 0
1055 3
1056 6
1057 5
1058 9
1059 18
1060 0
1061 7
1062 10
1063 2
1064 17
1065 5
1066 7
1067 12
1068 3
1069 7
1070 20
1071 30
1072 16
1073 12
1074 25
1075 6
1076 24
1077 0
1078 7
1079 7
1080 0
1081 6
1082 23
1083 6
1084 7
1085 7
1086 0
1087 9
1088 7
1089 0
1090 4
1091 5
1092 2
1093 8
1094 3
1095 0
1096 5
1097 17
1098 0
1099 7
1100 20
1101 0
1102 6
1103 5
1104 6
1105 7
1106 6
1107 0
1108 0
1109 6
1110 6
1111 9
1112 10
1113 0
1114 17
1115 26
1116 8
1117 24
1118 17
1119 9
1120 5
1121 7
1122 0
1123 2
1124 16
1125 6
1126 24
1127 0
1128 1
1129 2
1130 7
1131 0
1132 30
1133 0
1134 7
1135 24
1136 6
1137 0
1138 24
1139 0
1140 7
1141 17
1142 4
1143 0
1144 11
1145 28
1146 7
1147 14
1148 7
1149 21
1150 7
1151 7
1152 6
1153 0
1154 11
1155 2
1156 2
1157 28
1158 20
1159 20
1160 2
1161 17
1162 2
1163 0
1164 17
1165 7
1166 6
1167 1
1168 9
1169 11
1170 0
1171 7
1172 22
1173 21
1174 5
1175 7
1176 7
1177 21
1178 0
1179 6
1180 22
1181 2
1182 7
1183 0
1184 15
1185 7
1186 0
1187 9
1188 22
1189 2
1190 11
1191 0
1192 11
1193 9
1194 0
1195 20
1196 6
1197 24
1198 24
1199 0
1200 20
1201 7
1202 11
1203 0
1204 5
1205 2
1206 7
1207 0
1208 0
1209 2
1210 12
1211 11
1212 7
1213 9
1214 21
1215 15
1216 2
1217 25
1218 0
1219 7
1220 7
1221 12
1222 10
1223 0
1224 6
1225 10
1226 11
1227 7
1228 27
1229 0
1230 9
1231 0
1232 13
1233 24
1234 7
1235 6
1236 7
1237 0
1238 16
1239 0
1240 30
1241 25
1242 22
1243 5
1244 5
1245 11
1246 7
1247 6
1248 5
1249 2
1250 11
1251 10
1252 32
1253 17
1254 6
1255 7
1256 0
1257 30
1258 2
1259 0
1260 9
1261 11
1262 5
1263 12
1264 2
1265 18
1266 11
1267 10
1268 4
1269 7
1270 0
1271 0
1272 17
1273 2
1274 7
1275 0
1276 10
1277 20
1278 12
1279 15
1280 7
1281 0
1282 11
1283 21
1284 7
1285 7
1286 10
1287 2
1288 0
1289 0
1290 0
1291 7
1292 20
1293 17
1294 24
1295 7
1296 7
1297 0
1298 20
1299 29
1300 9
1301 2
1302 6
1303 20
1304 6
1305 10
1306 21
1307 11
1308 9
1309 0
1310 21
1311 7
1312 14
1313 0
1314 9
1315 30
1316 23
1317 20
1318 1
1319 5
1320 8
1321 2
1322 5
1323 9
1324 6
1325 4
1326 11
1327 6
1328 19
1329 10
1330 16
1331 6
1332 23
1333 24
1334 0
1335 9
1336 5
1337 6
1338 0
1339 23
1340 10
1341 24
1342 7
1343 12
1344 6
1345 6
1346 25
1347 0
1348 27
1349 11
1350 5
1351 10
1352 5
1353 20
1354 2
1355 12
1356 21
1357 7
1358 8
1359 20
1360 6
1361 23
1362 16
1363 7
1364 2
1365 0
1366 6
1367 11
1368 0
1369 5
1370 2
1371 0
1372 7
1373 0
1374 20
1375 24
1376 6
1377 7
1378 8
1379 24
1380 12
1381 30
1382 17
1383 11
1384 10
1385 16
1386 21
1387 23
1388 5
1389 3
1390 5
1391 6
1392 2
1393 6
1394 6
1395 21
1396 0
1397 16
1398 1
1399 7
1400 7
1401 2
1402 0
1403 5
1404 0
1405 6
1406 5
1407 0
1408 27
1409 7
1410 7
1411 6
1412 9
1413 7
1414 5
1415 7
1416 17
1417 6
1418 2
1419 25
1420 29
1421 0
1422 7
1423 0
1424 0
1425 0
1426 7
1427 14
1428 5
1429 6
1430 6
1431 0
1432 6
1433 0
1434 7
1435 7
1436 16
1437 0
1438 17
1439 5
1440 20
1441 20
1442 20
1443 11
1444 1
1445 23
1446 10
1447 20
1448 28
1449 5
1450 17
1451 0
1452 0
1453 10
1454 7
1455 7
1456 17
1457 2
1458 20
1459 5
1460 0
1461 17
1462 11
1463 0
1464 12
1465 0
1466 20
1467 11
1468 12
1469 25
1470 6
1471 6
1472 15
1473 7
1474 0
1475 11
1476 6
1477 9
1478 11
1479 7
1480 11
1481 0
1482 9
1483 6
1484 7
1485 7
1486 3
1487 5
1488 2
1489 6
1490 8
1491 16
1492 20
1493 2
1494 9
1495 6
1496 28
1497 17
1498 12
1499 16
1500 20
1501 9
1502 0
1503 0
1504 0
1505 7
1506 2
1507 16
1508 20
1509 6
1510 10
1511 17
1512 7
1513 17
1514 7
1515 17
1516 10
1517 5
1518 2
1519 2
1520 2
1521 0
1522 7
1523 6
1524 12
1525 9
1526 30
1527 12
1528 0
1529 25
1530 20
1531 7
1532 7
1533 0
1534 9
1535 7
1536 12
1537 7
1538 12
1539 24
1540 9
1541 21
1542 6
1543 0
1544 6
1545 12
1546 21
1547 2
1548 12
1549 17
1550 16
1551 13
1552 0
1553 9
1554 12
1555 12
1556 2
1557 17
1558 6
1559 9
1560 0
1561 12
1562 9
1563 17
1564 0
1565 17
1566 5
1567 10
1568 0
1569 24
1570 0
1571 0
1572 2
1573 7
1574 12
1575 0
1576 7
1577 6
1578 7
1579 7
1580 17
1581 20
1582 12
1583 7
1584 23
1585 12
1586 0
1587 0
1588 11
1589 21
1590 21
1591 20
1592 25
1593 5
1594 0
1595 1
1596 7
1597 6
1598 16
1599 0
1600 20
1601 8
1602 7
1603 2
1604 8
1605 14
1606 6
1607 1
1608 17
1609 9
1610 30
1611 24
1612 9
1613 12
1614 5
1615 0
1616 10
1617 7
1618 2
1619 0
1620 26
1621 2
1622 23
1623 23
1624 32
1625 16
1626 15
1627 21
1628 2
1629 7
1630 21
1631 18
1632 24
1633 7
1634 11
1635 2
1636 14
1637 8
1638 20
1639 23
1640 2
1641 24
1642 21
1643 20
1644 0
1645 7
1646 2
1647 11
1648 24
1649 5
1650 5
1651 17
1652 27
1653 0
1654 6
1655 24
1656 6
1657 5
1658 7
1659 10
1660 0
1661 20
1662 2
1663 10
1664 23
1665 8
1666 20
1667 11
1668 20
1669 7
1670 6
1671 22
1672 7
1673 7
1674 28
1675 11
1676 2
1677 9
1678 0
1679 3
1680 28
1681 0
1682 5
1683 7
1684 7
1685 7
1686 9
1687 7
1688 0
1689 6
1690 0
1691 10
1692 24
1693 3
1694 11
1695 0
1696 6
1697 9
1698 9
1699 0
1700 5
1701 7
1702 12
1703 10
1704 10
1705 7
1706 9
1707 7
1708 7
1709 10
1710 16
1711 0
1712 1
1713 2
1714 8
1715 21
1716 24
1717 0
1718 10
1719 0
1720 12
1721 1
1722 2
1723 12
1724 10
1725 20
1726 7
1727 7
1728 2
1729 0
1730 16
1731 0
1732 0
1733 0
1734 10
1735 4
1736 30
1737 5
1738 2
1739 22
1740 9
1741 5
1742 14
1743 28
1744 2
1745 17
1746 22
1747 17
1748 16
1749 6
1750 0
1751 29
1752 22
1753 2
1754 0
1755 2
1756 7
1757 24
1758 5
1759 6
1760 21
1761 9
1762 10
1763 7
1764 5
1765 17
1766 7
1767 17
1768 7
1769 10
1770 10
1771 5
1772 6
1773 0
1774 7
1775 9
1776 2
1777 7
1778 20
1779 7
1780 16
1781 21
1782 30
1783 17
1784 2
1785 5
1786 6
1787 20
1788 3
1789 27
1790 0
1791 6
1792 7
1793 5
1794 2
1795 0
1796 7
1797 0
1798 7
1799 6
1800 20
1801 5
1802 9
1803 24
1804 2
1805 7
1806 6
1807 0
1808 6
1809 16
1810 10
1811 6
1812 0
1813 7
1814 17
1815 9
1816 6
1817 0
1818 0
1819 0
1820 27
1821 5
1822 2
1823 7
1824 7
1825 17
1826 9
1827 9
1828 8
1829 7
1830 8
1831 9
1832 22
1833 0
1834 29
1835 0
1836 7
1837 10
1838 7
1839 10
1840 20
1841 0
1842 7
1843 2
1844 0
1845 7
1846 9
1847 8
1848 7
1849 0
1850 12
1851 8
1852 16
1853 28
1854 20
1855 24
1856 17
1857 14
1858 20
1859 7
1860 0
1861 16
1862 0
1863 0
1864 9
1865 9
1866 15
1867 6
1868 0
1869 24
1870 24
1871 20
1872 17
1873 21
1874 16
1875 24
1876 7
1877 7
1878 28
1879 9
1880 20
1881 0
1882 15
1883 4
1884 2
1885 2
1886 5
1887 0
1888 6
1889 5
1890 0
1891 2
1892 0
1893 7
1894 5
1895 0
1896 16
1897 2
1898 22
1899 17
1900 5
1901 2
1902 2
1903 6
1904 6
1905 20
1906 7
1907 0
1908 10
1909 6
1910 7
1911 20
1912 6
1913 2
1914 23
1915 6
1916 7
1917 7
1918 5
1919 7
1920 12
1921 10
1922 2
1923 7
1924 9
1925 6
1926 11
1927 2
1928 9
1929 16
1930 0
1931 7
1932 0
1933 7
1934 16
1935 24
1936 0
1937 0
1938 11
1939 0
1940 10
1941 17
1942 2
1943 7
1944 0
1945 0
1946 7
1947 12
1948 0
1949 10
1950 5
1951 7
1952 7
1953 7
1954 6
1955 0
1956 2
1957 7
1958 0
1959 16
1960 17
1961 0
1962 20
1963 6
1964 2
1965 20
1966 26
1967 7
1968 17
1969 2
1970 5
1971 21
1972 16
1973 0
1974 0
1975 0
1976 6
1977 2
1978 6
1979 21
1980 13
1981 22
1982 0
1983 2
1984 24
1985 7
1986 10
1987 0
1988 16
1989 27
1990 7
1991 6
1992 21
1993 7
1994 30
1995 7
1996 5
1997 6
1998 16
1999 5
2000 7
2001 20
2002 0
2003 2
2004 24
2005 0
2006 20
2007 0
2008 7
2009 21
2010 2
2011 17
2012 7
2013 12
2014 11
2015 2
2016 0
2017 8
2018 14
2019 7
2020 5
2021 9
2022 26
2023 0
2024 2
2025 9
2026 12
2027 20
2028 24
2029 5
2030 10
2031 6
2032 0
2033 10
2034 5
2035 17
2036 6
2037 5
2038 2
2039 20
2040 5
2041 26
2042 7
2043 15
2044 0
2045 28
2046 0
2047 7
2048 7
2049 20
2050 7
2051 5
2052 5
2053 0
2054 2
2055 11
2056 11
2057 0
2058 0
2059 0
2060 2
2061 0
2062 2
2063 16
2064 24
2065 21
2066 10
2067 9
2068 15
2069 2
2070 26
2071 10
2072 6
2073 16
2074 7
2075 2
2076 5
2077 11
2078 2
2079 6
2080 2
2081 0
2082 7
2083 29
2084 5
2085 20
2086 5
2087 7
2088 4
2089 7
2090 0
2091 22
2092 12
2093 0
2094 5
2095 0
2096 12
2097 16
2098 14
2099 10
2100 24
2101 7
2102 5
2103 22
2104 6
2105 20
2106 7
2107 0
2108 22
2109 2
2110 12
2111 10
2112 7
2113 7
2114 17
2115 7
2116 8
2117 6
2118 0
2119 8
2120 5
2121 7
2122 5
2123 11
2124 6
2125 2
2126 12
2127 7
2128 11
2129 6
2130 10
2131 0
2132 6
2133 0
2134 13
2135 17
2136 22
2137 0
2138 0
2139 7
2140 3
2141 15
2142 20
2143 11
2144 9
2145 0
2146 2
2147 7
2148 27
2149 7
2150 14
2151 18
2152 0
2153 20
2154 11
2155 11
2156 21
2157 23
2158 0
2159 0
2160 0
2161 20
2162 6
2163 7
2164 7
2165 2
2166 11
2167 7
2168 15
2169 0
2170 5
2171 17
2172 28
2173 0
2174 5
2175 5
2176 7
2177 7
2178 20
2179 4
2180 30
2181 23
2182 6
2183 16
2184 5
2185 21
2186 2
2187 7
2188 12
2189 7
2190 29
2191 12
2192 6
2193 7
2194 28
2195 7
2196 2
2197 2
2198 5
2199 7
2200 6
2201 21
2202 24
2203 6
2204 11
2205 0
2206 16
2207 7
2208 7
2209 28
2210 0
2211 6
2212 11
2213 17
2214 0
2215 6
2216 17
2217 16
2218 12
2219 0
2220 10
2221 7
2222 30
2223 0
2224 7
2225 9
2226 22
2227 0
2228 16
2229 21
2230 5
2231 7
2232 17
2233 0
2234 2
2235 12
2236 5
2237 22
2238 10
2239 12
2240 16
2241 20
2242 16
2243 7
2244 28
2245 7
2246 6
2247 20
2248 11
2249 6
2250 6
2251 16
2252 10
2253 16
2254 28
2255 2
2256 11
2257 8
2258 11
2259 0
2260 2
2261 5
2262 7
2263 17
2264 0
2265 7
2266 17
2267 13
2268 5
2269 21
2270 7
2271 0
2272 1
2273 21
2274 6
2275 27
2276 0
2277 0
2278 17
2279 0
2280 24
2281 23
2282 0
2283 0
2284 0
2285 2
2286 21
2287 7
2288 6
2289 5
2290 6
2291 0
2292 24
2293 22
2294 22
2295 3
2296 3
2297 26
2298 21
2299 1
2300 18
2301 16
2302 27
2303 6
2304 2
2305 21
2306 7
2307 7
2308 20
2309 2
2310 20
2311 11
2312 17
2313 2
2314 30
2315 8
2316 20
2317 16
2318 30
2319 0
2320 7
2321 2
2322 20
2323 7
2324 0
2325 9
2326 9
2327 25
2328 0
2329 7
2330 0
2331 23
2332 21
2333 1
2334 31
2335 7
2336 20
2337 17
2338 0
2339 0
2340 4
2341 0
2342 10
2343 7
2344 9
2345 11
2346 0
2347 9
2348 12
2349 6
2350 20
2351 1
2352 20
2353 7
2354 28
2355 7
2356 6
2357 5
2358 20
2359 12
2360 16
2361 20
2362 13
2363 9
2364 2
2365 7
2366 14
2367 0
2368 5
2369 7
2370 6
2371 7
2372 19
2373 0
2374 6
2375 6
2376 6
2377 6
2378 1
2379 24
2380 15
2381 2
2382 11
2383 6
2384 15
2385 6
2386 12
2387 7
2388 0
2389 0
2390 7
2391 5
2392 16
2393 4
2394 6
2395 10
2396 7
2397 20
2398 12
2399 0
2400 7
2401 20
2402 20
2403 0
2404 6
2405 12
2406 1
2407 2
2408 9
2409 7
2410 2
2411 6
2412 4
2413 7
2414 7
2415 0
2416 17
2417 0
2418 11
2419 3
2420 7
2421 7
2422 7
2423 25
2424 23
2425 15
2426 1
2427 2
2428 7
2429 21
2430 0
2431 2
2432 28
2433 17
2434 9
2435 6
2436 12
2437 7
2438 0
2439 7
2440 7
2441 0
2442 0
2443 6
2444 2
2445 7
2446 17
2447 0
2448 20
2449 0
2450 7
2451 7
2452 0
2453 0
2454 8
2455 2
2456 1
2457 7
2458 21
2459 0
2460 0
2461 6
2462 0
2463 0
2464 23
2465 5
2466 12
2467 0
2468 26
2469 17
2470 1
2471 7
2472 0
2473 23
2474 8
2475 12
2476 2
2477 22
2478 6
2479 29
2480 10
2481 0
2482 7
2483 7
2484 15
2485 7
2486 0
2487 0
2488 5
2489 0
2490 0
2491 17
2492 2
2493 2
2494 9
2495 17
2496 20
2497 5
2498 20
2499 16
2500 12
2501 20
2502 6
2503 8
2504 2
2505 21
2506 22
2507 7
2508 0
2509 11
2510 9
2511 24
2512 11
2513 7
2514 0
2515 2
2516 7
2517 18
2518 17
2519 20
2520 20
2521 7
2522 2
2523 10
2524 7
2525 2
2526 10
2527 16
2528 0
2529 6
2530 28
2531 7
2532 17
2533 24
2534 5
2535 14
2536 29
2537 7
2538 12
2539 0
2540 17
2541 8
2542 6
2543 7
2544 8
2545 5
2546 16
2547 22
2548 7
2549 9
2550 0
2551 2
2552 20
2553 2
2554 0
2555 20
2556 24
2557 24
2558 0
2559 0
2560 6
2561 0
2562 5
2563 12
2564 23
2565 7
2566 13
2567 0
2568 6
2569 25
2570 6
2571 18
2572 7
2573 0
2574 6
2575 20
2576 1
2577 5
2578 4
2579 11
2580 6
2581 7
2582 20
2583 24
2584 6
2585 21
2586 16
2587 0
2588 2
2589 10
2590 17
2591 7
2592 0
2593 0
2594 6
2595 5
2596 3
2597 21
2598 0
2599 16
2600 1
2601 21
2602 9
2603 12
2604 0
2605 2
2606 20
2607 21
2608 0
2609 0
2610 7
2611 5
2612 0
2613 2
2614 2
2615 6
2616 20
2617 29
2618 10
2619 17
2620 7
2621 5
2622 25
2623 2
2624 17
2625 0
2626 0
2627 15
2628 6
2629 16
2630 17
2631 6
2632 17
2633 27
2634 5
2635 2
2636 10
2637 7
2638 28
2639 19
2640 7
2641 0
2642 12
2643 0
2644 24
2645 10
2646 6
2647 17
2648 0
2649 0
2650 25
2651 5
2652 0
2653 7
2654 7
2655 7
2656 7
2657 7
2658 0
2659 0
2660 0
2661 20
2662 0
2663 21
2664 5
2665 10
2666 2
2667 17
2668 0
2669 20
2670 20
2671 0
2672 17
2673 6
2674 2
2675 7
2676 20
2677 16
2678 5
2679 7
2680 0
2681 15
2682 6
2683 6
2684 7
2685 0
2686 0
2687 6
2688 0
2689 0
2690 0
2691 17
2692 7
2693 0
2694 7
2695 0
2696 7
2697 9
2698 0
2699 6
2700 21
2701 0
2702 0
2703 7
2704 6
2705 0
2706 11
2707 6
2708 5
2709 5
2710 11
2711 16
2712 24
2713 28
2714 17
2715 22
2716 10
2717 7
2718 29
2719 6
2720 20
2721 17
2722 0
2723 7
2724 7
2725 10
2726 5
2727 0
2728 0
2729 17
2730 7
2731 12
2732 0
2733 2
2734 7
2735 20
2736 6
2737 16
2738 7
2739 0
2740 22
2741 5
2742 0
2743 11
2744 24
2745 0
2746 20
2747 20
2748 10
2749 7
2750 23
2751 0
2752 9
2753 2
2754 7
2755 17
2756 24
2757 0
2758 9
2759 22
2760 6
2761 15
2762 6
2763 0
2764 6
2765 0
2766 20
2767 0
2768 1
2769 17
2770 0
2771 2
2772 9
2773 5
2774 0
2775 27
2776 9
2777 17
2778 7
2779 6
2780 5
2781 0
2782 16
2783 6
2784 7
2785 0
2786 0
2787 22
2788 5
2789 2
2790 17
2791 11
2792 20
2793 11
2794 7
2795 7
2796 7
2797 0
2798 5
2799 12
2800 5
2801 24
2802 24
2803 7
2804 7
2805 0
2806 0
2807 24
2808 4
2809 2
2810 11
2811 9
2812 20
2813 7
2814 9
2815 0
2816 15
2817 20
2818 6
2819 20
2820 2
2821 24
2822 2
2823 20
2824 5
2825 4
2826 0
2827 20
2828 6
2829 2
2830 7
2831 0
2832 25
2833 20
2834 0
2835 2
2836 5
2837 6
2838 16
2839 6
2840 7
2841 6
2842 7
2843 17
2844 21
2845 20
2846 6
2847 7
2848 7
2849 6
2850 20
2851 0
2852 2
2853 0
2854 6
2855 17
2856 6
2857 0
2858 0
2859 7
2860 2
2861 0
2862 12
2863 20
2864 5
2865 0
2866 10
2867 10
2868 7
2869 8
2870 21
2871 0
2872 7
2873 7
2874 6
2875 24
2876 2
2877 7
2878 26
2879 22
2880 7
2881 0
2882 27
2883 0
2884 11
2885 6
2886 12
2887 7
2888 0
2889 20
2890 23
2891 21
2892 17
2893 5
2894 0
2895 20
2896 17
2897 16
2898 24
2899 5
2900 6
2901 7
2902 3
2903 0
2904 4
2905 6
2906 14
2907 2
2908 9
2909 0
2910 4
2911 5
2912 22
2913 7
2914 7
2915 0
2916 7
2917 20
2918 0
2919 6
2920 0
2921 7
2922 20
2923 5
2924 26
2925 0
2926 17
2927 0
2928 11
2929 0
2930 20
2931 0
2932 2
2933 7
2934 7
2935 17
2936 6
2937 7
2938 16
2939 21
2940 5
2941 6
2942 7
2943 0
2944 7
2945 4
2946 5
2947 7
2948 24
2949 0
2950 20
2951 0
2952 28
2953 2
2954 7
2955 9
2956 0
2957 0
2958 2
2959 5
2960 23
2961 0
2962 20
2963 0
2964 25
2965 0
2966 11
2967 5
2968 6
2969 17
2970 7
2971 7
2972 5
2973 6
2974 24
2975 25
2976 21
2977 0
2978 20
2979 21
2980 11
2981 7
2982 6
2983 0
2984 2
2985 0
2986 7
2987 15
2988 11
2989 7
2990 0
2991 7
2992 11
2993 11
2994 12
2995 9
2996 0
2997 0
2998 0
2999 0
3000 20
3001 20
3002 20
3003 11
3004 7
3005 0
3006 0
3007 9
3008 10
3009 20
3010 5
3011 12
3012 22
3013 0
3014 24
3015 7
3016 6
3017 6
3018 0
3019 6
3020 2
3021 11
3022 12
3023 2
3024 5
3025 32
3026 17
3027 15
3028 0
3029 5
3030 24
3031 0
3032 29
3033 7
3034 22
3035 7
3036 13
3037 23
3038 6
3039 9
3040 11
3041 14
3042 16
3043 6
3044 23
3045 30
3046 5
3047 0
3048 7
3049 7
3050 7
3051 12
3052 10
3053 11
3054 5
3055 0
3056 21
3057 17
3058 17
3059 0
3060 0
3061 7
3062 9
3063 7
3064 7
3065 10
3066 0
3067 2
3068 12
3069 2
3070 16
3071 2
3072 5
3073 5
3074 16
3075 2
3076 7
3077 0
3078 11
3079 12
3080 2
3081 20
3082 20
3083 0
3084 6
3085 25
3086 7
3087 7
3088 2
3089 24
3090 7
3091 5
3092 2
3093 25
3094 4
3095 6
3096 6
3097 0
3098 0
3099 0
3100 7
3101 20
3102 4
3103 28
3104 0
3105 25
3106 16
3107 0
3108 18
3109 20
3110 6
3111 0
3112 26
3113 6
3114 1
3115 8
3116 27
3117 7
3118 17
3119 7
3120 20
3121 30
3122 6
3123 7
3124 30
3125 23
3126 23
3127 2
3128 7
3129 0
3130 12
3131 3
3132 16
3133 12
3134 16
3135 10
3136 2
3137 11
3138 18
3139 20
3140 13
3141 24
3142 16
3143 7
3144 25
3145 2
3146 7
3147 30
3148 2
3149 6
3150 0
3151 0
3152 24
3153 16
3154 0
3155 0
3156 6
3157 6
3158 10
3159 12
3160 7
3161 10
3162 2
3163 25
3164 11
3165 7
3166 6
3167 5
3168 7
3169 11
3170 5
3171 0
3172 7
3173 6
3174 12
3175 0
3176 6
3177 2
3178 6
3179 4
3180 7
3181 6
3182 0
3183 20
3184 20
3185 0
3186 20
3187 0
3188 7
3189 0
3190 20
3191 6
3192 20
3193 5
3194 12
3195 0
3196 7
3197 0
3198 0
3199 6
3200 5
3201 7
3202 7
3203 5
3204 7
3205 6
3206 7
3207 22
3208 7
3209 17
3210 7
3211 26
3212 12
3213 7
3214 9
3215 0
3216 21
3217 5
3218 5
3219 7
3220 10
3221 2
3222 7
3223 20
3224 0
3225 7
3226 15
3227 17
3228 27
3229 2
3230 7
3231 0
3232 0
3233 24
3234 20
3235 22
3236 5
3237 7
3238 16
3239 7
3240 0
3241 0
3242 12
3243 6
3244 27
3245 2
3246 0
3247 5
3248 11
3249 10
3250 9
3251 10
3252 0
3253 24
3254 10
3255 0
3256 7
3257 1
3258 21
3259 17
3260 17
3261 2
3262 10
3263 0
3264 2
3265 7
3266 7
3267 0
3268 7
3269 11
3270 17
3271 20
3272 0
3273 11
3274 7
3275 6
3276 7
3277 0
3278 20
3279 7
3280 2
3281 0
3282 7
3283 21
3284 20
3285 0
3286 21
3287 5
3288 6
3289 7
3290 0
3291 3
3292 7
3293 0
3294 16
3295 21
3296 10
3297 17
3298 0
3299 6
3300 7
3301 10
3302 24
3303 0
3304 5
3305 7
3306 7
3307 24
3308 7
3309 4
3310 21
3311 17
3312 27
3313 10
3314 21
3315 28
3316 28
3317 21
3318 12
3319 7
3320 27
3321 0
3322 6
3323 11
3324 23
3325 31
3326 27
3327 0
3328 6
3329 11
3330 20
3331 11
3332 18
3333 16
3334 13
3335 9
3336 26
3337 16
3338 23
3339 23
3340 16
3341 12
3342 20
3343 2
3344 25
3345 7
3346 0
3347 2
3348 5
3349 13
3350 0
3351 0
3352 16
3353 28
3354 20
3355 0
3356 28
3357 29
3358 7
3359 0
3360 7
3361 5
3362 7
3363 12
3364 7
3365 0
3366 8
3367 20
3368 24
3369 7
3370 24
3371 26
3372 2
3373 2
3374 17
3375 6
3376 0
3377 27
3378 10
3379 21
3380 5
3381 0
3382 10
3383 20
3384 14
3385 21
3386 9
3387 24
3388 8
3389 28
3390 22
3391 8
3392 21
3393 15
3394 0
3395 0
3396 0
3397 7
3398 32
3399 20
3400 0
3401 20
3402 21
3403 27
3404 16
3405 7
3406 0
3407 7
3408 19
3409 7
3410 13
3411 21
3412 17
3413 20
3414 11
3415 20
3416 10
3417 9
3418 5
3419 22
3420 0
3421 0
3422 23
3423 8
3424 0
3425 6
3426 7
3427 4
3428 6
3429 5
3430 2
3431 10
3432 2
3433 5
3434 4
3435 7
3436 0
3437 2
3438 4
3439 0
3440 22
3441 30
3442 7
3443 26
3444 6
3445 16
3446 17
3447 0
3448 11
3449 16
3450 0
3451 15
3452 7
3453 7
3454 32
3455 0
3456 12
3457 9
3458 0
3459 27
3460 8
3461 12
3462 12
3463 2
3464 5
3465 8
3466 30
3467 24
3468 24
3469 6
3470 7
3471 7
3472 20
3473 5
3474 11
3475 7
3476 2
3477 0
3478 7
3479 7
3480 21
3481 27
3482 11
3483 22
3484 2
3485 8
3486 12
3487 0
3488 7
3489 28
3490 0
3491 7
3492 20
3493 7
3494 29
3495 20
3496 2
3497 5
3498 27
3499 6
3500 2
3501 16
3502 6
3503 4
3504 30
3505 20
3506 2
3507 0
3508 8
3509 7
3510 0
3511 0
3512 8
3513 0
3514 2
3515 7
3516 21
3517 12
3518 7
3519 16
3520 7
3521 20
3522 6
3523 5
3524 7
3525 8
3526 17
3527 12
3528 0
3529 5
3530 2
3531 11
3532 5
3533 15
3534 6
3535 2
3536 12
3537 0
3538 21
3539 16
3540 25
3541 2
3542 2
3543 15
3544 26
3545 21
3546 19
3547 7
3548 0
3549 0
3550 6
3551 21
3552 9
3553 7
3554 16
3555 24
3556 7
3557 10
3558 5
3559 24
3560 0
3561 7
3562 10
3563 0
3564 7
3565 10
3566 4
3567 10
3568 24
3569 0
3570 2
3571 6
3572 20
3573 0
3574 2
3575 18
3576 8
3577 5
3578 7
3579 15
3580 11
3581 20
3582 20
3583 0
3584 2
3585 6
3586 0
3587 25
3588 17
3589 4
3590 26
3591 18
3592 10
3593 7
3594 2
3595 26
3596 17
3597 11
3598 0
3599 9
3600 32
3601 7
3602 2
3603 6
3604 0
3605 17
3606 9
3607 6
3608 17
3609 11
3610 12
3611 5
3612 2
3613 4
3614 12
3615 0
3616 7
3617 6
3618 11
3619 8
3620 23
3621 21
3622 12
3623 0
3624 7
3625 7
3626 23
3627 6
3628 7
3629 16
3630 17
3631 7
3632 2
3633 6
3634 23
3635 21
3636 7
3637 7
3638 11
3639 0
3640 7
3641 16
3642 22
3643 6
3644 6
3645 20
3646 9
3647 12
3648 20
3649 17
3650 0
3651 6
3652 16
3653 11
3654 2
3655 11
3656 7
3657 6
3658 7
3659 20
3660 2
3661 7
3662 17
3663 0
3664 6
3665 28
3666 24
3667 7
3668 0
3669 23
3670 0
3671 6
3672 7
3673 2
3674 0
3675 17
3676 7
3677 17
3678 6
3679 28
3680 0
3681 17
3682 2
3683 23
3684 0
3685 7
3686 11
3687 0
3688 7
3689 8
3690 12
3691 20
3692 10
3693 5
3694 20
3695 0
3696 7
3697 9
3698 0
3699 0
3700 8
3701 10
3702 7
3703 0
3704 7
3705 6
3706 20
3707 5
3708 5
3709 5
3710 23
3711 2
3712 5
3713 2
3714 5
3715 0
3716 0
3717 21
3718 7
3719 10
3720 20
3721 7
3722 5
3723 24
3724 11
3725 24
3726 5
3727 11
3728 5
3729 17
3730 15
3731 7
3732 7
3733 11
3734 28
3735 20
3736 17
3737 20
3738 7
3739 28
3740 0
3741 7
3742 7
3743 17
3744 29
3745 0
3746 21
3747 20
3748 7
3749 12
3750 29
3751 7
3752 30
3753 6
3754 17
3755 2
3756 6
3757 27
3758 23
3759 7
3760 23
3761 2
3762 17
3763 5
3764 24
3765 21
3766 0
3767 29
3768 23
3769 6
3770 8
3771 0
3772 28
3773 11
3774 2
3775 7
3776 24
3777 12
3778 20
3779 6
3780 23
3781 23
3782 7
3783 20
3784 7
3785 0
3786 7
3787 24
3788 7
3789 6
3790 7
3791 20
3792 6
3793 6
3794 12
3795 21
3796 2
3797 5
3798 10
3799 7
3800 2
3801 5
3802 6
3803 8
3804 11
3805 7
3806 21
3807 15
3808 0
3809 15
3810 7
3811 11
3812 0
3813 27
3814 17
3815 17
3816 6
3817 7
3818 24
3819 22
3820 11
3821 2
3822 7
3823 16
3824 17
3825 8
3826 7
3827 20
3828 6
3829 17
3830 22
3831 11
3832 7
3833 17
3834 12
3835 7
3836 9
3837 5
3838 28
3839 11
3840 7
3841 5
3842 3
3843 2
3844 17
3845 2
3846 6
3847 0
3848 10
3849 21
3850 2
3851 17
3852 0
3853 2
3854 16
3855 5
3856 23
3857 9
3858 20
3859 9
3860 17
3861 20
3862 0
3863 7
3864 6
3865 6
3866 7
3867 10
3868 12
3869 2
3870 24
3871 6
3872 7
3873 0
3874 6
3875 12
3876 0
3877 7
3878 17
3879 7
3880 0
3881 7
3882 2
3883 18
3884 32
3885 20
3886 7
3887 0
3888 28
3889 0
3890 21
3891 0
3892 11
3893 12
3894 17
3895 7
3896 0
3897 6
3898 5
3899 7
3900 5
3901 10
3902 7
3903 11
3904 6
3905 21
3906 0
3907 7
3908 0
3909 28
3910 10
3911 7
3912 6
3913 5
3914 20
3915 10
3916 10
3917 7
3918 7
3919 2
3920 5
3921 7
3922 7
3923 9
3924 7
3925 17
3926 20
3927 23
3928 4
3929 25
3930 17
3931 24
3932 5
3933 15
3934 7
3935 0
3936 0
3937 7
3938 20
3939 28
3940 0
3941 7
3942 16
3943 7
3944 24
3945 6
3946 0
3947 9
3948 23
3949 30
3950 30
3951 24
3952 20
3953 6
3954 7
3955 16
3956 7
3957 9
3958 2
3959 0
3960 7
3961 21
3962 0
3963 4
3964 2
3965 9
3966 7
3967 10
3968 2
3969 5
3970 24
3971 7
3972 5
3973 16
3974 6
3975 9
3976 7
3977 9
3978 20
3979 7
3980 9
3981 6
3982 2
3983 12
3984 0
3985 0
3986 9
3987 7
3988 0
3989 11
3990 0
3991 0
3992 21
3993 0
3994 5
3995 7
3996 10
3997 23
3998 4
3999 17
4000 10
4001 17
4002 6
4003 0
4004 16
4005 16
4006 0
4007 0
4008 0
4009 8
4010 2
4011 7
4012 5
4013 7
4014 0
4015 7
4016 2
4017 6
4018 22
4019 6
4020 10
4021 17
4022 8
4023 7
4024 3
4025 14
4026 0
4027 4
4028 17
4029 3
4030 2
4031 7
4032 7
4033 20
4034 0
4035 2
4036 24
4037 20
4038 7
4039 5
4040 20
4041 7
4042 21
4043 7
4044 5
4045 0
4046 0
4047 0
4048 7
4049 6
4050 2
4051 16
4052 0
4053 0
4054 6
4055 22
4056 7
4057 0
4058 17
4059 6
4060 2
4061 7
4062 17
4063 22
4064 11
4065 6
4066 5
4067 19
4068 11
4069 20
4070 11
4071 2
4072 7
4073 0
4074 2
4075 25
4076 21
4077 0
4078 27
4079 13
4080 0
4081 9
4082 10
4083 7
4084 7
4085 16
4086 20
4087 23
4088 2
4089 9
4090 26
4091 21
4092 20
4093 7
4094 0
4095 32
4096 2
4097 5
4098 10
4099 12
4100 7
4101 17
4102 7
4103 7
4104 12
4105 15
4106 21
4107 10
4108 9
4109 21
4110 7
4111 20
4112 7
4113 26
4114 0
4115 6
4116 6
4117 2
4118 12
4119 2
4120 9
4121 20
4122 22
4123 26
4124 2
4125 5
4126 2
4127 10
4128 0
4129 17
4130 7
4131 12
4132 17
4133 7
4134 21
4135 0
4136 2
4137 2
4138 20
4139 0
4140 5
4141 16
4142 25
4143 11
4144 0
4145 2
4146 10
4147 6
4148 26
4149 9
4150 6
4151 9
4152 0
4153 25
4154 15
4155 6
4156 30
4157 2
4158 10
4159 7
4160 0
4161 0
4162 18
4163 25
4164 2
4165 6
4166 7
4167 16
4168 8
4169 0
4170 0
4171 20
4172 17
4173 7
4174 6
4175 16
4176 8
4177 16
4178 2
4179 9
4180 7
4181 10
4182 6
4183 7
4184 32
4185 6
4186 0
4187 5
4188 17
4189 2
4190 0
4191 12
4192 6
4193 0
4194 2
4195 28
4196 0
4197 17
4198 0
4199 0
4200 27
4201 28
4202 6
4203 25
4204 0
4205 5
4206 6
4207 1
4208 2
4209 11
4210 23
4211 12
4212 11
4213 5
4214 0
4215 26
4216 16
4217 0
4218 1
4219 15
4220 7
4221 11
4222 6
4223 8
4224 10
4225 7
4226 6
4227 0
4228 0
4229 0
4230 2
4231 17
4232 21
4233 24
4234 10
4235 28
4236 20
4237 2
4238 15
4239 22
4240 21
4241 2
4242 17
4243 7
4244 7
4245 24
4246 28
4247 5
4248 7
4249 7
4250 0
4251 6
4252 5
4253 20
4254 17
4255 7
4256 0
4257 11
4258 5
4259 6
4260 22
4261 0
4262 10
4263 19
4264 24
4265 7
4266 0
4267 6
4268 6
4269 7
4270 3
4271 15
4272 0
4273 6
4274 0
4275 21
4276 12
4277 11
4278 6
4279 22
4280 6
4281 0
4282 19
4283 7
4284 5
4285 20
4286 21
4287 2
4288 3
4289 4
4290 0
4291 20
4292 12
4293 0
4294 16
4295 20
4296 20
4297 21
4298 9
4299 21
4300 18
4301 5
4302 0
4303 12
4304 20
4305 3
4306 16
4307 0
4308 0
4309 29
4310 2
4311 8
4312 5
4313 7
4314 7
4315 11
4316 18
4317 7
4318 2
4319 13
4320 7
4321 0
4322 15
4323 17
4324 28
4325 17
4326 5
4327 7
4328 11
4329 0
4330 22
4331 2
4332 26
4333 7
4334 17
4335 20
4336 11
4337 16
4338 0
4339 5
4340 9
4341 17
4342 2
4343 2
4344 11
4345 0
4346 18
4347 4
4348 0
4349 16
4350 20
4351 0
4352 12
4353 7
4354 7
4355 11
4356 16
4357 3
4358 0
4359 18
4360 2
4361 2
4362 6
4363 7
4364 6
4365 17
4366 16
4367 10
4368 16
4369 11
4370 1
4371 7
4372 7
4373 6
4374 0
4375 0
4376 11
4377 6
4378 7
4379 7
4380 1
4381 2
4382 17
4383 0
4384 2
4385 24
4386 6
4387 5
4388 7
4389 11
4390 23
4391 17
4392 12
4393 0
4394 18
4395 17
4396 7
4397 23
4398 5
4399 17
4400 10
4401 2
4402 30
4403 7
4404 10
4405 20
4406 12
4407 17
4408 0
4409 9
4410 12
4411 16
4412 7
4413 27
4414 7
4415 0
4416 24
4417 17
4418 7
4419 7
4420 0
4421 4
4422 17
4423 2
4424 20
4425 24
4426 2
4427 0
4428 5
4429 0
4430 19
4431 7
4432 6
4433 26
4434 6
4435 28
4436 2
4437 24
4438 11
4439 5
4440 8
4441 21
4442 24
4443 10
4444 28
4445 0
4446 2
4447 6
4448 16
4449 7
4450 20
4451 0
4452 2
4453 17
4454 2
4455 0
4456 7
4457 20
4458 7
4459 0
4460 6
4461 24
4462 17
4463 8
4464 5
4465 6
4466 16
4467 0
4468 7
4469 11
4470 2
4471 12
4472 7
4473 7
4474 6
4475 5
4476 7
4477 17
4478 23
4479 0
4480 6
4481 20
4482 20
4483 10
4484 29
4485 10
4486 2
4487 2
4488 0
4489 26
4490 6
4491 8
4492 0
4493 28
4494 11
4495 10
4496 0
4497 6
4498 7
4499 11
4500 2
4501 5
4502 11
4503 20
4504 10
4505 2
4506 10
4507 11
4508 17
4509 24
4510 16
4511 7
4512 4
4513 11
4514 5
4515 17
4516 20
4517 17
4518 28
4519 28
4520 16
4521 0
4522 0
4523 8
4524 11
4525 5
4526 2
4527 6
4528 2
4529 15
4530 0
4531 24
4532 17
4533 6
4534 6
4535 24
4536 11
4537 0
4538 28
4539 17
4540 17
4541 7
4542 16
4543 5
4544 7
4545 6
4546 10
4547 9
4548 9
4549 20
4550 20
4551 20
4552 11
4553 10
4554 7
4555 20
4556 0
4557 6
4558 2
4559 7
4560 23
4561 7
4562 7
4563 17
4564 0
4565 17
4566 7
4567 20
4568 5
4569 26
4570 0
4571 2
4572 7
4573 11
4574 3
4575 0
4576 16
4577 6
4578 20
4579 0
4580 10
4581 5
4582 0
4583 12
4584 0
4585 6
4586 6
4587 5
4588 2
4589 24
4590 1
4591 10
4592 21
4593 11
4594 0
4595 24
4596 5
4597 6
4598 22
4599 23
4600 7
4601 2
4602 7
4603 0
4604 0
4605 0
4606 0
4607 20
4608 2
4609 0
4610 17
4611 9
4612 7
4613 17
4614 2
4615 1
4616 7
4617 0
4618 20
4619 5
4620 22
4621 0
4622 21
4623 21
4624 6
4625 5
4626 24
4627 7
4628 26
4629 0
4630 20
4631 0
4632 1
4633 9
4634 0
4635 16
4636 24
4637 4
4638 2
4639 6
4640 16
4641 21
4642 0
4643 15
4644 0
4645 20
4646 0
4647 7
4648 11
4649 2
4650 6
4651 25
4652 12
4653 17
4654 21
4655 26
4656 0
4657 0
4658 5
4659 17
4660 11
4661 7
4662 0
4663 0
4664 0
4665 12
4666 6
4667 7
4668 24
4669 17
4670 12
4671 15
4672 7
4673 0
4674 0
4675 24
4676 0
4677 6
4678 0
4679 7
4680 11
4681 8
4682 6
4683 7
4684 30
4685 2
4686 10
4687 24
4688 0
4689 12
4690 7
4691 7
4692 0
4693 10
4694 20
4695 16
4696 5
4697 0
4698 3
4699 0
4700 26
4701 17
4702 0
4703 0
4704 11
4705 24
4706 16
4707 7
4708 7
4709 20
4710 0
4711 12
4712 12
4713 9
4714 12
4715 0
4716 21
4717 5
4718 5
4719 12
4720 0
4721 14
4722 6
4723 0
4724 17
4725 16
4726 4
4727 27
4728 12
4729 0
4730 3
4731 17
4732 6
4733 0
4734 2
4735 7
4736 20
4737 5
4738 7
4739 11
4740 5
4741 6
4742 7
4743 18
4744 7
4745 6
4746 7
4747 25
4748 2
4749 2
4750 6
4751 14
4752 25
4753 11
4754 20
4755 7
4756 15
4757 28
4758 10
4759 0
4760 20
4761 20
4762 0
4763 21
4764 5
4765 16
4766 12
4767 24
4768 10
4769 12
4770 11
4771 9
4772 7
4773 11
4774 0
4775 0
4776 6
4777 0
4778 0
4779 6
4780 18
4781 7
4782 7
4783 0
4784 0
4785 2
4786 10
4787 21
4788 17
4789 7
4790 3
4791 17
4792 32
4793 20
4794 7
4795 0
4796 12
4797 0
4798 21
4799 16
4800 24
4801 6
4802 2
4803 11
4804 10
4805 17
4806 7
4807 16
4808 21
4809 6
4810 11
4811 7
4812 6
4813 7
4814 11
4815 7
4816 7
4817 11
4818 7
4819 9
4820 6
4821 16
4822 0
4823 30
4824 12
4825 23
4826 25
4827 7
4828 9
4829 25
4830 4
4831 21
4832 5
4833 9
4834 0
4835 20
4836 7
4837 6
4838 5
4839 17
4840 24
4841 18
4842 21
4843 14
4844 6
4845 7
4846 6
4847 11
4848 5
4849 0
4850 5
4851 17
4852 0
4853 0
4854 7
4855 7
4856 28
4857 11
4858 17
4859 7
4860 26
4861 24
4862 7
4863 2
4864 2
4865 12
4866 12
4867 7
4868 21
4869 21
4870 16
4871 20
4872 6
4873 9
4874 21
4875 0
4876 5
4877 0
4878 6
4879 16
4880 20
4881 14
4882 12
4883 4
4884 9
4885 5
4886 0
4887 24
4888 2
4889 7
4890 17
4891 20
4892 27
4893 7
4894 0
4895 16
4896 10
4897 17
4898 12
4899 20
4900 2
4901 7
4902 6
4903 17
4904 0
4905 9
4906 7
4907 8
4908 0
4909 1
4910 0
4911 23
4912 21
4913 16
4914 16
4915 5
4916 24
4917 4
4918 7
4919 21
4920 7
4921 0
4922 5
4923 20
4924 9
4925 16
4926 9
4927 20
4928 16
4929 7
4930 2
4931 30
4932 20
4933 11
4934 7
4935 10
4936 6
4937 7
4938 9
4939 11
4940 7
4941 17
4942 7
4943 6
4944 9
4945 5
4946 17
4947 8
4948 20
4949 5
4950 19
4951 11
4952 7
4953 7
4954 0
4955 20
4956 0
4957 0
4958 11
4959 0
4960 16
4961 6
4962 17
4963 20
4964 7
4965 0
4966 11
4967 7
4968 5
4969 16
4970 11
4971 17
4972 12
4973 6
4974 7
4975 30
4976 20
4977 7
4978 0
4979 0
4980 7
4981 22
4982 0
4983 0
4984 9
4985 0
4986 2
4987 21
4988 0
4989 6
4990 9
4991 27
4992 7
4993 16
4994 6
4995 7
4996 17
4997 16
4998 5
4999 10
5000 17
5001 7
5002 20
5003 16
5004 17
5005 5
5006 28
5007 2
5008 7
5009 23
5010 16
5011 12
5012 22
5013 2
5014 0
5015 0
5016 22
5017 9
5018 0
5019 6
5020 22
5021 16
5022 7
5023 7
5024 23
5025 4
5026 0
5027 7
5028 9
5029 0
5030 5
5031 0
5032 10
5033 0
5034 2
5035 6
5036 7
5037 20
5038 2
5039 3
5040 9
5041 28
5042 2
5043 17
5044 5
5045 6
5046 20
5047 7
5048 5
5049 7
5050 17
5051 7
5052 28
5053 5
5054 20
5055 7
5056 17
5057 21
5058 7
5059 20
5060 2
5061 11
5062 2
5063 0
5064 6
5065 6
5066 7
5067 6
5068 7
5069 0
5070 9
5071 7
5072 23
5073 0
5074 21
5075 6
5076 0
5077 7
5078 0
5079 27
5080 32
5081 28
5082 0
5083 7
5084 7
5085 0
5086 7
5087 9
5088 0
5089 2
5090 6
5091 20
5092 12
5093 2
5094 7
5095 0
5096 17
5097 0
5098 2
5099 11
5100 2
5101 3
5102 6
5103 17
5104 0
5105 7
5106 7
5107 0
5108 0
5109 17
5110 20
5111 0
5112 7
5113 0
5114 16
5115 2
5116 6
5117 11
5118 6
5119 22
5120 8
5121 17
5122 14
5123 13
5124 0
5125 28
5126 11
5127 0
5128 5
5129 10
5130 9
5131 24
5132 6
5133 2
5134 9
5135 17
5136 7
5137 0
5138 5
5139 17
5140 24
5141 5
5142 20
5143 11
5144 2
5145 0
5146 6
5147 14
5148 12
5149 7
5150 7
5151 2
5152 24
5153 7
5154 6
5155 10
5156 7
5157 16
5158 25
5159 29
5160 0
5161 5
5162 16
5163 30
5164 7
5165 21
5166 30
5167 4
5168 17
5169 17
5170 0
5171 6
5172 17
5173 24
5174 7
5175 20
5176 7
5177 17
5178 2
5179 10
5180 3
5181 0
5182 20
5183 2
5184 24
5185 10
5186 16
5187 9
5188 20
5189 17
5190 10
5191 6
5192 19
5193 12
5194 7
5195 9
5196 5
5197 8
5198 0
5199 24
5200 20
5201 20
5202 22
5203 0
5204 26
5205 17
5206 6
5207 18
5208 11
5209 0
5210 7
5211 24
5212 20
5213 2
5214 7
5215 21
5216 7
5217 16
5218 16
5219 6
5220 0
5221 20
5222 16
5223 2
5224 7
5225 2
5226 5
5227 2
5228 5
5229 0
5230 24
5231 20
5232 0
5233 7
5234 27
5235 26
5236 0
5237 6
5238 2
5239 7
5240 12
5241 7
5242 6
5243 0
5244 10
5245 2
5246 1
5247 7
5248 0
5249 5
5250 7
5251 6
5252 0
5253 2
5254 30
5255 4
5256 0
5257 2
5258 2
5259 7
5260 7
5261 10
5262 0
5263 7
5264 0
5265 7
5266 21
5267 12
5268 7
5269 22
5270 2
5271 22
5272 0
5273 16
5274 5
5275 6
5276 7
5277 17
5278 17
5279 10
5280 2
5281 0
5282 20
5283 16
5284 0
5285 0
5286 8
5287 2
5288 6
5289 2
5290 0
5291 9
5292 7
5293 10
5294 22
5295 6
5296 0
5297 5
5298 19
5299 2
5300 5
5301 27
5302 11
5303 7
5304 16
5305 22
5306 7
5307 29
5308 0
5309 0
5310 6
5311 6
5312 0
5313 27
5314 16
5315 11
5316 7
5317 6
5318 0
5319 7
5320 5
5321 6
5322 6
5323 0
5324 6
5325 10
5326 12
5327 12
5328 5
5329 0
5330 16
5331 7
5332 5
5333 11
5334 0
5335 12
5336 2
5337 0
5338 4
5339 0
5340 6
5341 5
5342 7
5343 17
5344 17
5345 6
5346 6
5347 2
5348 27
5349 6
5350 22
5351 12
5352 2
5353 7
5354 11
5355 0
5356 2
5357 6
5358 1
5359 7
5360 11
5361 20
5362 21
5363 6
5364 9
5365 7
5366 6
5367 6
5368 8
5369 5
5370 32
5371 0
5372 21
5373 0
5374 0
5375 6
5376 7
5377 0
5378 2
5379 7
5380 0
5381 12
5382 6
5383 16
5384 0
5385 7
5386 0
5387 0
5388 16
5389 24
5390 17
5391 2
5392 0
5393 0
5394 20
5395 2
5396 20
5397 12
5398 7
5399 14
5400 11
5401 11
5402 2
5403 24
5404 6
5405 7
5406 8
5407 7
5408 5
5409 24
5410 23
5411 2
5412 12
5413 8
5414 6
5415 0
5416 20
5417 16
5418 14
5419 10
5420 10
5421 24
5422 0
5423 27
5424 5
5425 5
5426 0
5427 32
5428 11
5429 21
5430 0
5431 0
5432 10
5433 7
5434 0
5435 7
5436 7
5437 0
5438 2
5439 0
5440 16
5441 21
5442 6
5443 17
5444 21
5445 0
5446 0
5447 9
5448 0
5449 24
5450 10
5451 11
5452 22
5453 24
5454 16
5455 21
5456 21
5457 11
5458 5
5459 7
5460 21
5461 0
5462 6
5463 20
5464 20
5465 9
5466 7
5467 5
5468 7
5469 7
5470 20
5471 7
5472 9
5473 7
5474 7
5475 0
5476 5
5477 16
5478 7
5479 16
5480 6
5481 16
5482 7
5483 7
5484 2
5485 20
5486 11
5487 26
5488 7
5489 7
5490 0
5491 4
5492 26
5493 24
5494 11
5495 27
5496 1
5497 10
5498 6
5499 15
5500 22
5501 14
5502 6
5503 9
5504 0
5505 23
5506 6
5507 3
5508 0
5509 2
5510 7
5511 5
5512 7
5513 0
5514 6
5515 0
5516 0
5517 7
5518 12
5519 0
5520 6
5521 2
5522 5
5523 27
5524 7
5525 6
5526 7
5527 7
5528 15
5529 6
5530 21
5531 0
5532 9
5533 0
5534 2
5535 16
5536 17
5537 0
5538 15
5539 0
5540 7
5541 22
5542 2
5543 7
5544 0
5545 16
5546 17
5547 21
5548 20
5549 12
5550 0
5551 23
5552 8
5553 5
5554 14
5555 7
5556 10
5557 25
5558 5
5559 7
5560 2
5561 6
5562 24
5563 3
5564 20
5565 7
5566 0
5567 0
5568 2
5569 0
5570 2
5571 0
5572 0
5573 10
5574 2
5575 19
5576 11
5577 2
5578 26
5579 20
5580 15
5581 0
5582 9
5583 9
5584 11
5585 5
5586 0
5587 17
5588 0
5589 18
5590 7
5591 7
5592 1
5593 7
5594 7
5595 7
5596 2
5597 20
5598 26
5599 5
5600 21
5601 0
5602 17
5603 20
5604 32
5605 0
5606 0
5607 2
5608 11
5609 21
5610 5
5611 24
5612 9
5613 7
5614 5
5615 6
5616 0
5617 10
5618 7
5619 7
5620 0
5621 20
5622 12
5623 9
5624 2
5625 20
5626 0
5627 17
5628 26
5629 2
5630 6
5631 9
5632 0
5633 11
5634 0
5635 6
5636 0
5637 18
5638 12
5639 3
5640 8
5641 15
5642 21
5643 16
5644 25
5645 5
5646 24
5647 28
5648 7
5649 7
5650 12
5651 7
5652 3
5653 0
5654 2
5655 5
5656 2
5657 7
5658 16
5659 16
5660 20
5661 0
5662 7
5663 6
5664 10
5665 8
5666 0
5667 0
5668 2
5669 7
5670 13
5671 24
5672 27
5673 17
5674 5
5675 2
5676 5
5677 27
5678 0
5679 2
5680 12
5681 9
5682 26
5683 17
5684 7
5685 7
5686 7
5687 22
5688 2
5689 2
5690 17
5691 7
5692 21
5693 11
5694 7
5695 0
5696 24
5697 0
5698 7
5699 7
5700 5
5701 12
5702 0
5703 0
5704 7
5705 6
5706 20
5707 6
5708 10
5709 5
5710 0
5711 17
5712 2
5713 17
5714 21
5715 11
5716 6
5717 6
5718 7
5719 6
5720 20
5721 3
5722 24
5723 16
5724 20
5725 12
5726 0
5727 30
5728 5
5729 0
5730 2
5731 16
5732 17
5733 7
5734 7
5735 27
5736 10
5737 18
5738 0
5739 7
5740 24
5741 7
5742 0
5743 10
5744 6
5745 2
5746 9
5747 16
5748 11
5749 0
5750 7
5751 10
5752 2
5753 6
5754 7
5755 0
5756 0
5757 12
5758 21
5759 20
5760 21
5761 0
5762 7
5763 25
5764 20
5765 5
5766 0
5767 7
5768 7
5769 20
5770 18
5771 13
5772 0
5773 7
5774 10
5775 7
5776 2
5777 6
5778 0
5779 0
5780 11
5781 0
5782 28
5783 5
5784 6
5785 16
5786 7
5787 24
5788 5
5789 17
5790 5
5791 0
5792 0
5793 6
5794 7
5795 11
5796 17
5797 0
5798 30
5799 2
5800 28
5801 7
5802 25
5803 6
5804 25
5805 11
5806 0
5807 21
5808 9
5809 0
5810 30
5811 16
5812 12
5813 16
5814 0
5815 12
5816 30
5817 7
5818 1
5819 0
5820 7
5821 22
5822 0
5823 13
5824 17
5825 5
5826 7
5827 23
5828 2
5829 20
5830 5
5831 22
5832 0
5833 6
5834 8
5835 2
5836 7
5837 7
5838 5
5839 0
5840 0
5841 8
5842 5
5843 5
5844 22
5845 1
5846 2
5847 7
5848 6
5849 6
5850 1
5851 17
5852 6
5853 6
5854 24
5855 2
5856 27
5857 0
5858 20
5859 21
5860 5
5861 7
5862 7
5863 6
5864 0
5865 6
5866 0
5867 20
5868 7
5869 6
5870 7
5871 0
5872 21
5873 2
5874 0
5875 2
5876 20
5877 20
5878 0
5879 7
5880 9
5881 13
5882 31
5883 0
5884 21
5885 0
5886 7
5887 11
5888 28
5889 0
5890 2
5891 21
5892 6
5893 9
5894 6
5895 20
5896 6
5897 28
5898 2
5899 7
5900 12
5901 6
5902 9
5903 0
5904 23
5905 0
5906 17
5907 7
5908 7
5909 5
5910 5
5911 7
5912 0
5913 21
5914 21
5915 16
5916 7
5917 25
5918 7
5919 7
5920 2
5921 0
5922 0
5923 20
5924 2
5925 0
5926 12
5927 20
5928 11
5929 11
5930 0
5931 21
5932 3
5933 20
5934 12
5935 2
5936 7
5937 11
5938 30
5939 11
5940 20
5941 5
5942 3
5943 7
5944 2
5945 5
5946 2
5947 17
5948 0
5949 2
5950 7
5951 7
5952 0
5953 0
5954 3
5955 3
5956 0
5957 17
5958 2
5959 17
5960 0
5961 20
5962 15
5963 5
5964 24
5965 2
5966 12
5967 0
5968 0
5969 5
5970 7
5971 0
5972 10
5973 10
5974 5
5975 9
5976 5
5977 22
5978 6
5979 5
5980 17
5981 17
5982 20
5983 2
5984 0
5985 22
5986 5
5987 7
5988 20
5989 5
5990 0
5991 0
5992 17
5993 26
5994 5
5995 21
5996 7
5997 7
5998 25
5999 6
6000 7
6001 17
6002 5
6003 5
6004 20
6005 0
6006 2
6007 17
6008 6
6009 15
6010 7
6011 2
6012 0
6013 23
6014 7
6015 22
6016 11
6017 7
6018 27
6019 2
6020 12
6021 5
6022 0
6023 6
6024 6
6025 7
6026 30
6027 20
6028 17
6029 24
6030 0
6031 0
6032 17
6033 7
6034 24
6035 0
6036 5
6037 12
6038 6
6039 20
6040 0
6041 20
6042 12
6043 22
6044 24
6045 30
6046 0
6047 7
6048 12
6049 21
6050 16
6051 7
6052 10
6053 2
6054 0
6055 11
6056 5
6057 17
6058 0
6059 0
6060 0
6061 3
6062 10
6063 0
6064 5
6065 10
6066 17
6067 0
6068 5
6069 10
6070 0
6071 9
6072 9
6073 7
6074 20
6075 20
6076 7
6077 0
6078 0
6079 7
6080 2
6081 22
6082 6
6083 10
6084 7
6085 5
6086 7
6087 20
6088 10
6089 22
6090 0
6091 17
6092 12
6093 7
6094 0
6095 0
6096 7
6097 7
6098 0
6099 2
6100 7
6101 0
6102 11
6103 7
6104 9
6105 16
6106 2
6107 17
6108 1
6109 5
6110 9
6111 10
6112 29
6113 6
6114 7
6115 17
6116 0
6117 20
6118 2
6119 16
6120 20
6121 0
6122 0
6123 18
6124 12
6125 2
6126 7
6127 5
6128 6
6129 5
6130 17
6131 0
6132 0
6133 21
6134 0
6135 2
6136 0
6137 26
6138 8
6139 17
6140 2
6141 7
6142 24
6143 7
6144 25
6145 20
6146 30
6147 12
6148 2
6149 12
6150 10
6151 9
6152 20
6153 2
6154 0
6155 26
6156 0
6157 6
6158 0
6159 20
6160 30
6161 11
6162 2
6163 7
6164 8
6165 5
6166 17
6167 5
6168 6
6169 0
6170 0
6171 7
6172 7
6173 2
6174 26
6175 7
6176 4
6177 0
6178 20
6179 2
6180 0
6181 20
6182 2
6183 20
6184 1
6185 6
6186 0
6187 3
6188 5
6189 5
6190 20
6191 24
6192 12
6193 0
6194 12
6195 0
6196 0
6197 21
6198 2
6199 7
6200 17
6201 0
6202 24
6203 7
6204 7
6205 18
6206 16
6207 2
6208 4
6209 7
6210 7
6211 7
6212 11
6213 16
6214 6
6215 20
6216 21
6217 12
6218 6
6219 6
6220 9
6221 2
6222 2
6223 0
6224 16
6225 7
6226 7
6227 0
6228 5
6229 7
6230 5
6231 2
6232 0
6233 3
6234 5
6235 0
6236 26
6237 7
6238 17
6239 5
6240 17
6241 2
6242 6
6243 17
6244 5
6245 7
6246 7
6247 4
6248 20
6249 6
6250 0
6251 0
6252 0
6253 17
6254 12
6255 25
6256 0
6257 25
6258 14
6259 24
6260 2
6261 11
6262 0
6263 7
6264 20
6265 10
6266 0
6267 17
6268 9
6269 2
6270 11
6271 17
6272 0
6273 7
6274 16
6275 15
6276 0
6277 16
6278 21
6279 0
6280 11
6281 17
6282 7
6283 6
6284 7
6285 6
6286 10
6287 17
6288 6
6289 0
6290 12
6291 16
6292 0
6293 23
6294 0
6295 6
6296 9
6297 20
6298 7
6299 23
6300 9
6301 5
6302 20
6303 27
6304 11
6305 7
6306 22
6307 6
6308 2
6309 6
6310 0
6311 16
6312 20
6313 11
6314 7
6315 2
6316 7
6317 0
6318 6
6319 6
6320 11
6321 2
6322 11
6323 20
6324 7
6325 20
6326 22
6327 2
6328 20
6329 0
6330 6
6331 0
6332 5
6333 5
6334 20
6335 0
6336 0
6337 0
6338 21
6339 0
6340 30
6341 17
6342 8
6343 17
6344 2
6345 11
6346 10
6347 20
6348 7
6349 6
6350 10
6351 2
6352 21
6353 7
6354 15
6355 0
6356 2
6357 26
6358 5
6359 11
6360 7
6361 5
6362 5
6363 5
6364 20
6365 1
6366 22
6367 6
6368 6
6369 6
6370 29
6371 2
6372 7
6373 0
6374 0
6375 23
6376 0
6377 20
6378 0
6379 7
6380 10
6381 10
6382 16
6383 5
6384 10
6385 6
6386 12
6387 7
6388 5
6389 7
6390 22
6391 5
6392 0
6393 0
6394 20
6395 20
6396 0
6397 25
6398 16
6399 9
6400 6
6401 0
6402 12
6403 29
6404 5
6405 6
6406 26
6407 0
6408 5
6409 6
6410 0
6411 6
6412 24
6413 30
6414 0
6415 24
6416 4
6417 7
6418 18
6419 1
6420 6
6421 2
6422 25
6423 5
6424 6
6425 12
6426 29
6427 5
6428 11
6429 6
6430 0
6431 0
6432 2
6433 2
6434 11
6435 6
6436 17
6437 6
6438 11
6439 2
6440 2
6441 0
6442 17
6443 20
6444 12
6445 3
6446 16
6447 20
6448 23
6449 10
6450 7
6451 2
6452 32
6453 12
6454 10
6455 7
6456 7
6457 28
6458 8
6459 0
6460 0
6461 0
6462 0
6463 16
6464 9
6465 17
6466 28
6467 7
6468 20
6469 7
6470 9
6471 10
6472 7
6473 10
6474 20
6475 2
6476 17
6477 23
6478 9
6479 16
6480 6
6481 24
6482 17
6483 17
6484 6
6485 6
6486 7
6487 7
6488 0
6489 30
6490 21
6491 5
6492 0
6493 2
6494 6
6495 17
6496 17
6497 15
6498 12
6499 0
6500 0
6501 6
6502 7
6503 7
6504 3
6505 0
6506 5
6507 14
6508 24
6509 0
6510 5
6511 6
6512 0
6513 0
6514 2
6515 0
6516 7
6517 22
6518 10
6519 0
6520 6
6521 7
6522 17
6523 7
6524 7
6525 7
6526 7
6527 11
6528 23
6529 2
6530 0
6531 0
6532 7
6533 8
6534 22
6535 0
6536 29
6537 12
6538 0
6539 7
6540 7
6541 24
6542 7
6543 7
6544 21
6545 7
6546 10
6547 6
6548 2
6549 0
6550 0
6551 0
6552 0
6553 7
6554 7
6555 0
6556 2
6557 11
6558 11
6559 20
6560 21
6561 17
6562 10
6563 11
6564 21
6565 24
6566 0
6567 16
6568 0
6569 10
6570 28
6571 16
6572 24
6573 5
6574 7
6575 0
6576 28
6577 17
6578 21
6579 0
6580 20
6581 0
6582 6
6583 20
6584 7
6585 12
6586 30
6587 0
6588 7
6589 0
6590 17
6591 7
6592 0
6593 1
6594 2
6595 5
6596 0
6597 14
6598 13
6599 8
6600 0
6601 0
6602 12
6603 20
6604 20
6605 16
6606 5
6607 7
6608 26
6609 20
6610 10
6611 7
6612 16
6613 6
6614 0
6615 2
6616 0
6617 4
6618 2
6619 9
6620 13
6621 8
6622 9
6623 7
6624 4
6625 20
6626 3
6627 20
6628 9
6629 20
6630 20
6631 0
6632 0
6633 7
6634 1
6635 12
6636 5
6637 24
6638 24
6639 20
6640 20
6641 7
6642 17
6643 9
6644 8
6645 1
6646 0
6647 22
6648 6
6649 12
6650 21
6651 6
6652 14
6653 7
6654 17
6655 7
6656 9
6657 24
6658 7
6659 17
6660 2
6661 20
6662 17
6663 4
6664 17
6665 7
6666 7
6667 6
6668 6
6669 7
6670 24
6671 10
6672 17
6673 23
6674 7
6675 20
6676 16
6677 7
6678 2
6679 7
6680 5
6681 1
6682 17
6683 0
6684 21
6685 25
6686 22
6687 5
6688 11
6689 0
6690 0
6691 22
6692 11
6693 0
6694 5
6695 2
6696 11
6697 0
6698 11
6699 6
6700 22
6701 5
6702 11
6703 0
6704 12
6705 0
6706 17
6707 21
6708 16
6709 7
6710 17
6711 4
6712 5
6713 29
6714 14
6715 2
6716 17
6717 24
6718 7
6719 16
6720 0
6721 10
6722 20
6723 6
6724 9
6725 6
6726 0
6727 7
6728 9
6729 16
6730 5
6731 10
6732 6
6733 23
6734 2
6735 20
6736 10
6737 12
6738 0
6739 5
6740 20
6741 2
6742 17
6743 17
6744 7
6745 12
6746 5
6747 5
6748 2
6749 5
6750 6
6751 16
6752 7
6753 0
6754 22
6755 0
6756 17
6757 24
6758 7
6759 11
6760 7
6761 20
6762 7
6763 24
6764 2
6765 6
6766 0
6767 21
6768 16
6769 7
6770 7
6771 22
6772 15
6773 2
6774 20
6775 23
6776 7
6777 7
6778 5
6779 14
6780 6
6781 10
6782 2
6783 16
6784 4
6785 6
6786 6
6787 24
6788 0
6789 20
6790 7
6791 11
6792 30
6793 6
6794 17
6795 17
6796 16
6797 0
6798 2
6799 10
6800 5
6801 7
6802 12
6803 28
6804 2
6805 7
6806 2
6807 20
6808 17
6809 0
6810 9
6811 0
6812 7
6813 0
6814 11
6815 11
6816 0
6817 2
6818 21
6819 0
6820 10
6821 23
6822 7
6823 0
6824 7
6825 6
6826 28
6827 5
6828 23
6829 9
6830 21
6831 7
6832 21
6833 0
6834 7
6835 16
6836 0
6837 5
6838 12
6839 5
6840 7
6841 24
6842 8
6843 15
6844 7
6845 28
6846 12
6847 20
6848 20
6849 7
6850 11
6851 17
6852 7
6853 5
6854 7
6855 23
6856 30
6857 17
6858 10
6859 26
6860 0
6861 0
6862 0
6863 7
6864 2
6865 5
6866 17
6867 2
6868 7
6869 21
6870 7
6871 11
6872 2
6873 7
6874 0
6875 24
6876 5
6877 7
6878 7
6879 11
6880 0
6881 20
6882 20
6883 6
6884 20
6885 7
6886 0
6887 22
6888 2
6889 6
6890 9
6891 11
6892 0
6893 20
6894 0
6895 7
6896 7
6897 24
6898 0
6899 17
6900 6
6901 0
6902 20
6903 20
6904 10
6905 9
6906 26
6907 9
6908 6
6909 7
6910 2
6911 2
6912 6
6913 7
6914 7
6915 24
6916 3
6917 7
6918 20
6919 12
6920 17
6921 24
6922 20
6923 5
6924 14
6925 6
6926 20
6927 0
6928 0
6929 7
6930 12
6931 20
6932 7
6933 0
6934 6
6935 0
6936 6
6937 11
6938 21
6939 7
6940 6
6941 8
6942 14
6943 7
6944 2
6945 20
6946 6
6947 23
6948 17
6949 7
6950 21
6951 10
6952 7
6953 21
6954 6
6955 20
6956 7
6957 0
6958 7
6959 20
6960 18
6961 7
6962 24
6963 1
6964 0
6965 6
6966 11
6967 10
6968 2
6969 2
6970 1
6971 15
6972 6
6973 0
6974 0
6975 24
6976 21
6977 9
6978 5
6979 30
6980 10
6981 22
6982 12
6983 7
6984 21
6985 3
6986 23
6987 17
6988 2
6989 7
6990 7
6991 0
6992 7
6993 9
6994 7
6995 6
6996 0
6997 0
6998 6
6999 5
7000 7
7001 5
7002 10
7003 7
7004 9
7005 5
7006 20
7007 0
7008 5
7009 20
7010 24
7011 6
7012 5
7013 5
7014 16
7015 12
7016 6
7017 1
7018 5
7019 16
7020 23
7021 5
7022 2
7023 8
7024 0
7025 24
7026 7
7027 12
7028 9
7029 7
7030 9
7031 21
7032 17
7033 2
7034 12
7035 0
7036 6
7037 30
7038 7
7039 7
7040 6
7041 6
7042 0
7043 16
7044 6
7045 7
7046 0
7047 20
7048 2
7049 9
7050 5
7051 21
7052 9
7053 20
7054 0
7055 20
7056 0
7057 7
7058 7
7059 16
7060 12
7061 6
7062 10
7063 20
7064 20
7065 2
7066 20
7067 0
7068 7
7069 5
7070 7
7071 21
7072 3
7073 25
7074 24
7075 0
7076 17
7077 2
7078 2
7079 2
7080 24
7081 28
7082 17
7083 20
7084 0
7085 2
7086 0
7087 6
7088 17
7089 30
7090 2
7091 0
7092 7
7093 6
7094 6
7095 15
7096 6
7097 5
7098 6
7099 5
7100 24
7101 5
7102 13
7103 23
7104 7
7105 20
7106 27
7107 0
7108 2
7109 11
7110 6
7111 17
7112 5
7113 0
7114 20
7115 25
7116 6
7117 0
7118 7
7119 16
7120 7
7121 5
7122 0
7123 0
7124 5
7125 9
7126 24
7127 16
7128 12
7129 21
7130 6
7131 9
7132 0
7133 8
7134 7
7135 28
7136 0
7137 11
7138 0
7139 20
7140 5
7141 7
7142 8
7143 6
7144 14
7145 0
7146 20
7147 2
7148 0
7149 9
7150 16
7151 12
7152 7
7153 0
7154 11
7155 2
7156 22
7157 7
7158 0
7159 6
7160 20
7161 6
7162 17
7163 9
7164 17
7165 6
7166 21
7167 20
7168 6
7169 0
7170 7
7171 22
7172 5
7173 15
7174 7
7175 28
7176 2
7177 6
7178 9
7179 0
7180 12
7181 0
7182 2
7183 2
7184 17
7185 20
7186 12
7187 0
7188 7
7189 6
7190 7
7191 7
7192 0
7193 2
7194 0
7195 7
7196 7
7197 0
7198 7
7199 20
7200 20
7201 7
7202 20
7203 2
7204 20
7205 23
7206 14
7207 0
7208 6
7209 5
7210 0
7211 6
7212 0
7213 5
7214 0
7215 7
7216 4
7217 2
7218 26
7219 2
7220 20
7221 22
7222 20
7223 11
7224 5
7225 12
7226 5
7227 24
7228 0
7229 21
7230 7
7231 0
7232 5
7233 7
7234 0
7235 7
7236 2
7237 24
7238 16
7239 11
7240 10
7241 11
7242 7
7243 5
7244 5
7245 0
7246 11
7247 4
7248 10
7249 5
7250 27
7251 11
7252 7
7253 3
7254 23
7255 11
7256 7
7257 7
7258 16
7259 5
7260 24
7261 6
7262 6
7263 3
7264 10
7265 12
7266 0
7267 11
7268 0
7269 12
7270 0
7271 6
7272 10
7273 20
7274 11
7275 0
7276 11
7277 2
7278 1
7279 24
7280 0
7281 0
7282 11
7283 11
7284 0
7285 6
7286 25
7287 17
7288 17
7289 0
7290 5
7291 16
7292 5
7293 5
7294 0
7295 2
7296 0
7297 0
7298 20
7299 16
7300 7
7301 20
7302 24
7303 0
7304 20
7305 2
7306 20
7307 2
7308 24
7309 7
7310 15
7311 6
7312 16
7313 20
7314 17
7315 6
7316 16
7317 7
7318 12
7319 24
7320 10
7321 7
7322 16
7323 0
7324 0
7325 2
7326 2
7327 2
7328 12
7329 20
7330 21
7331 2
7332 22
7333 23
7334 0
7335 20
7336 0
7337 2
7338 20
7339 0
7340 17
7341 11
7342 7
7343 7
7344 24
7345 6
7346 2
7347 5
7348 17
7349 0
7350 7
7351 27
7352 21
7353 19
7354 11
7355 20
7356 0
7357 12
7358 0
7359 2
7360 5
7361 0
7362 2
7363 16
7364 16
7365 2
7366 0
7367 1
7368 2
7369 21
7370 10
7371 20
7372 7
7373 10
7374 5
7375 22
7376 24
7377 0
7378 21
7379 7
7380 20
7381 16
7382 20
7383 32
7384 0
7385 20
7386 0
7387 7
7388 28
7389 24
7390 24
7391 24
7392 6
7393 2
7394 16
7395 0
7396 5
7397 0
7398 0
7399 0
7400 0
7401 6
7402 0
7403 21
7404 2
7405 7
7406 1
7407 31
7408 20
7409 5
7410 11
7411 0
7412 0
7413 6
7414 11
7415 5
7416 2
7417 21
7418 0
7419 0
7420 20
7421 0
7422 20
7423 20
7424 22
7425 6
7426 7
7427 3
7428 7
7429 7
7430 21
7431 8
7432 21
7433 17
7434 2
7435 7
7436 21
7437 11
7438 0
7439 20
7440 25
7441 1
7442 5
7443 0
7444 0
7445 0
7446 24
7447 7
7448 6
7449 6
7450 28
7451 0
7452 7
7453 6
7454 0
7455 14
7456 11
7457 20
7458 28
7459 23
7460 21
7461 2
7462 20
7463 2
7464 2
7465 0
7466 11
7467 4
7468 19
7469 7
7470 0
7471 7
7472 16
7473 11
7474 7
7475 32
7476 6
7477 12
7478 7
7479 0
7480 0
7481 7
7482 7
7483 7
7484 9
7485 0
7486 6
7487 5
7488 24
7489 10
7490 2
7491 6
7492 6
7493 11
7494 10
7495 7
7496 26
7497 7
7498 6
7499 6
7500 5
7501 2
7502 10
7503 0
7504 6
7505 9
7506 7
7507 0
7508 10
7509 7
7510 24
7511 24
7512 17
7513 17
7514 0
7515 20
7516 0
7517 0
7518 6
7519 0
7520 6
7521 16
7522 7
7523 7
7524 7
7525 7
7526 17
7527 1
7528 17
7529 21
7530 0
7531 7
7532 0
7533 7
7534 0
7535 5
7536 7
7537 7
7538 5
7539 17
7540 21
7541 8
7542 7
7543 25
7544 0
7545 24
7546 12
7547 1
7548 2
7549 5
7550 7
7551 9
7552 15
7553 20
7554 5
7555 30
7556 2
7557 20
7558 0
7559 16
7560 17
7561 7
7562 16
7563 11
7564 7
7565 12
7566 0
7567 2
7568 4
7569 20
7570 0
7571 17
7572 8
7573 11
7574 5
7575 17
7576 28
7577 25
7578 17
7579 11
7580 6
7581 7
7582 0
7583 7
7584 0
7585 5
7586 30
7587 2
7588 22
7589 0
7590 32
7591 2
7592 11
7593 0
7594 17
7595 27
7596 5
7597 11
7598 7
7599 5
7600 16
7601 6
7602 2
7603 10
7604 7
7605 16
7606 7
7607 8
7608 16
7609 28
7610 10
7611 22
7612 11
7613 2
7614 7
7615 20
7616 25
7617 9
7618 2
7619 21
7620 21
7621 17
7622 7
7623 17
7624 10
7625 6
7626 8
7627 10
7628 24
7629 24
7630 12
7631 11
7632 17
7633 12
7634 0
7635 0
7636 0
7637 1
7638 24
7639 12
7640 7
7641 11
7642 5
7643 0
7644 24
7645 8
7646 16
7647 0
7648 0
7649 9
7650 6
7651 10
7652 2
7653 10
7654 9
7655 1
7656 11
7657 10
7658 16
7659 9
7660 32
7661 10
7662 0
7663 20
7664 20
7665 5
7666 0
7667 0
7668 9
7669 15
7670 5
7671 17
7672 30
7673 7
7674 2
7675 20
7676 24
7677 17
7678 0
7679 0
7680 0
7681 17
7682 14
7683 21
7684 7
7685 0
7686 6
7687 0
7688 19
7689 17
7690 28
7691 28
7692 20
7693 2
7694 7
7695 20
7696 7
7697 6
7698 17
7699 17
7700 24
7701 25
7702 2
7703 7
7704 23
7705 0
7706 6
7707 7
7708 20
7709 7
7710 6
7711 2
7712 6
7713 17
7714 5
7715 17
7716 6
7717 0
7718 10
7719 17
7720 0
7721 2
7722 7
7723 32
7724 9
7725 2
7726 30
7727 9
7728 2
7729 17
7730 6
7731 0
7732 6
7733 19
7734 2
7735 24
7736 0
7737 20
7738 24
7739 0
7740 2
7741 0
7742 9
7743 12
7744 24
7745 21
7746 27
7747 5
7748 24
7749 6
7750 30
7751 6
7752 17
7753 15
7754 24
7755 5
7756 0
7757 0
7758 24
7759 0
7760 0
7761 16
7762 17
7763 6
7764 0
7765 24
7766 0
7767 6
7768 2
7769 6
7770 7
7771 7
7772 16
7773 23
7774 0
7775 20
7776 0
7777 11
7778 11
7779 17
7780 0
7781 8
7782 19
7783 7
7784 6
7785 2
7786 2
7787 20
7788 25
7789 7
7790 4
7791 0
7792 15
7793 6
7794 10
7795 7
7796 7
7797 0
7798 9
7799 7
7800 10
7801 20
7802 24
7803 22
7804 0
7805 7
7806 0
7807 7
7808 5
7809 0
7810 7
7811 6
7812 10
7813 5
7814 0
7815 0
7816 17
7817 22
7818 7
7819 12
7820 7
7821 7
7822 2
7823 0
7824 10
7825 0
7826 21
7827 0
7828 17
7829 7
7830 9
7831 20
7832 2
7833 0
7834 7
7835 20
7836 20
7837 14
7838 22
7839 6
7840 16
7841 7
7842 11
7843 7
7844 17
7845 0
7846 0
7847 5
7848 12
7849 5
7850 17
7851 17
7852 5
7853 28
7854 1
7855 17
7856 0
7857 6
7858 12
7859 5
7860 5
7861 6
7862 13
7863 5
7864 25
7865 0
7866 0
7867 17
7868 7
7869 22
7870 20
7871 5
7872 6
7873 17
7874 0
7875 24
7876 20
7877 7
7878 2
7879 0
7880 2
7881 9
7882 7
7883 0
7884 0
7885 0
7886 2
7887 10
7888 22
7889 7
7890 0
7891 30
7892 10
7893 10
7894 11
7895 3
7896 0
7897 7
7898 11
7899 0
7900 2
7901 6
7902 10
7903 11
7904 0
7905 0
7906 7
7907 5
7908 24
7909 20
7910 7
7911 22
7912 0
7913 7
7914 2
7915 0
7916 1
7917 23
7918 7
7919 5
7920 20
7921 7
7922 7
7923 23
7924 3
7925 5
7926 7
7927 20
7928 2
7929 7
7930 7
7931 20
7932 20
7933 5
7934 0
7935 6
7936 10
7937 24
7938 7
7939 20
7940 6
7941 25
7942 9
7943 17
7944 21
7945 6
7946 17
7947 7
7948 7
7949 2
7950 12
7951 9
7952 6
7953 16
7954 20
7955 8
7956 6
7957 6
7958 6
7959 13
7960 0
7961 24
7962 10
7963 4
7964 6
7965 2
7966 3
7967 6
7968 20
7969 0
7970 9
7971 10
7972 0
7973 0
7974 20
7975 7
7976 0
7977 17
7978 12
7979 2
7980 21
7981 4
7982 20
7983 21
7984 24
7985 6
7986 6
7987 20
7988 12
7989 21
7990 7
7991 9
7992 0
7993 5
7994 16
7995 7
7996 0
7997 7
7998 0
7999 17
8000 7
8001 7
8002 10
8003 0
8004 7
8005 24
8006 17
8007 9
8008 0
8009 7
8010 7
8011 20
8012 6
8013 23
8014 7
8015 2
8016 9
8017 9
8018 22
8019 10
8020 7
8021 7
8022 0
8023 10
8024 10
8025 18
8026 12
8027 10
8028 7
8029 6
8030 15
8031 7
8032 9
8033 1
8034 5
8035 10
8036 2
8037 0
8038 24
8039 7
8040 2
8041 17
8042 6
8043 20
8044 11
8045 0
8046 17
8047 11
8048 0
8049 7
8050 24
8051 0
8052 6
8053 9
8054 0
8055 7
8056 20
8057 0
8058 0
8059 7
8060 15
8061 7
8062 3
8063 5
8064 12
8065 7
8066 21
8067 7
8068 21
8069 20
8070 10
8071 16
8072 17
8073 5
8074 11
8075 6
8076 11
8077 5
8078 7
8079 0
8080 9
8081 24
8082 20
8083 0
8084 7
8085 17
8086 25
8087 17
8088 24
8089 7
8090 7
8091 23
8092 0
8093 0
8094 2
8095 6
8096 6
8097 6
8098 2
8099 7
8100 21
8101 17
8102 0
8103 17
8104 0
8105 7
8106 16
8107 0
8108 7
8109 10
8110 9
8111 17
8112 16
8113 0
8114 20
8115 0
8116 11
8117 6
8118 5
8119 22
8120 17
8121 0
8122 7
8123 0
8124 0
8125 7
8126 26
8127 5
8128 2
8129 7
8130 17
8131 7
8132 8
8133 6
8134 6
8135 0
8136 17
8137 7
8138 7
8139 16
8140 8
8141 16
8142 0
8143 20
8144 0
8145 0
8146 5
8147 28
8148 2
8149 25
8150 23
8151 7
8152 17
8153 6
8154 4
8155 17
8156 7
8157 6
8158 6
8159 0
8160 20
8161 7
8162 6
8163 17
8164 16
8165 0
8166 2
8167 24
8168 12
8169 6
8170 14
8171 21
8172 5
8173 0
8174 16
8175 0
8176 5
8177 17
8178 2
8179 28
8180 20
8181 6
8182 0
8183 22
8184 9
8185 2
8186 22
8187 20
8188 9
8189 0
8190 1
8191 3
8192 22
8193 6
8194 20
8195 2
8196 23
8197 11
8198 3
8199 7
8200 0
8201 0
8202 17
8203 7
8204 7
8205 5
8206 7
8207 7
8208 7
8209 11
8210 6
8211 7
8212 23
8213 17
8214 2
8215 11
8216 24
8217 17
8218 20
8219 2
8220 7
8221 0
8222 22
8223 6
8224 7
8225 5
8226 11
8227 7
8228 16
8229 16
8230 16
8231 0
8232 19
8233 17
8234 0
8235 7
8236 24
8237 20
8238 9
8239 0
8240 0
8241 0
8242 7
8243 24
8244 6
8245 24
8246 7
8247 5
8248 0
8249 2
8250 0
8251 4
8252 11
8253 6
8254 6
8255 8
8256 16
8257 7
8258 11
8259 2
8260 0
8261 2
8262 6
8263 7
8264 2
8265 23
8266 10
8267 5
8268 0
8269 20
8270 16
8271 4
8272 0
8273 0
8274 0
8275 10
8276 6
8277 0
8278 6
8279 7
8280 7
8281 2
8282 0
8283 30
8284 0
8285 24
8286 2
8287 9
8288 0
8289 22
8290 6
8291 17
8292 7
8293 2
8294 0
8295 11
8296 5
8297 30
8298 2
8299 7
8300 23
8301 0
8302 12
8303 26
8304 23
8305 20
8306 9
8307 24
8308 6
8309 2
8310 17
8311 6
8312 7
8313 7
8314 7
8315 10
8316 21
8317 8
8318 0
8319 17
8320 20
8321 7
8322 7
8323 6
8324 6
8325 7
8326 5
8327 14
8328 23
8329 12
8330 19
8331 0
8332 28
8333 26
8334 25
8335 7
8336 6
8337 3
8338 16
8339 0
8340 7
8341 0
8342 3
8343 20
8344 7
8345 9
8346 20
8347 16
8348 0
8349 11
8350 17
8351 11
8352 6
8353 11
8354 17
8355 6
8356 11
8357 2
8358 0
8359 0
8360 0
8361 0
8362 7
8363 1
8364 7
8365 6
8366 24
8367 11
8368 22
8369 6
8370 22
8371 7
8372 28
8373 9
8374 22
8375 7
8376 11
8377 17
8378 12
8379 6
8380 6
8381 21
8382 6
8383 0
8384 12
8385 8
8386 17
8387 24
8388 7
8389 0
8390 7
8391 7
8392 0
8393 0
8394 7
8395 28
8396 5
8397 23
8398 0
8399 0
8400 0
8401 6
8402 0
8403 20
8404 12
8405 7
8406 2
8407 24
8408 9
8409 10
8410 7
8411 27
8412 0
8413 0
8414 0
8415 17
8416 11
8417 5
8418 5
8419 12
8420 9
8421 11
8422 7
8423 24
8424 5
8425 6
8426 12
8427 2
8428 14
8429 5
8430 4
8431 14
8432 12
8433 20
8434 5
8435 7
8436 0
8437 25
8438 27
8439 0
8440 8
8441 20
8442 7
8443 0
8444 20
8445 12
8446 6
8447 10
8448 17
8449 6
8450 22
8451 20
8452 16
8453 2
8454 2
8455 5
8456 16
8457 16
8458 6
8459 12
8460 7
8461 20
8462 0
8463 8
8464 0
8465 11
8466 6
8467 6
8468 0
8469 17
8470 2
8471 2
8472 17
8473 22
8474 20
8475 5
8476 7
8477 6
8478 6
8479 24
8480 15
8481 10
8482 0
8483 7
8484 5
8485 23
8486 0
8487 0
8488 0
8489 1
8490 0
8491 3
8492 0
8493 3
8494 6
8495 2
8496 5
8497 0
8498 0
8499 0
8500 7
8501 24
8502 20
8503 16
8504 17
8505 3
8506 9
8507 7
8508 5
8509 7
8510 7
8511 6
8512 16
8513 29
8514 2
8515 12
8516 0
8517 7
8518 2
8519 7
8520 17
8521 10
8522 20
8523 6
8524 0
8525 0
8526 8
8527 11
8528 2
8529 16
8530 16
8531 0
8532 17
8533 13
8534 12
8535 2
8536 6
8537 6
8538 9
8539 0
8540 0
8541 6
8542 25
8543 20
8544 7
8545 16
8546 13
8547 0
8548 6
8549 30
8550 22
8551 7
8552 0
8553 0
8554 0
8555 2
8556 5
8557 11
8558 8
8559 10
8560 6
8561 5
8562 0
8563 0
8564 22
8565 0
8566 21
8567 7
8568 14
8569 6
8570 7
8571 11
8572 23
8573 7
8574 15
8575 0
8576 20
8577 6
8578 10
8579 5
8580 20
8581 4
8582 9
8583 7
8584 2
8585 7
8586 17
8587 16
8588 0
8589 12
8590 7
8591 0
8592 0
8593 7
8594 6
8595 2
8596 21
8597 7
8598 7
8599 20
8600 28
8601 6
8602 11
8603 7
8604 0
8605 5
8606 24
8607 16
8608 25
8609 17
8610 27
8611 7
8612 13
8613 5
8614 7
8615 24
8616 28
8617 5
8618 5
8619 17
8620 5
8621 7
8622 7
8623 17
8624 14
8625 11
8626 2
8627 20
8628 2
8629 3
8630 21
8631 16
8632 0
8633 4
8634 10
8635 20
8636 12
8637 2
8638 0
8639 25
8640 6
8641 22
8642 2
8643 21
8644 20
8645 7
8646 9
8647 2
8648 17
8649 7
8650 16
8651 14
8652 15
8653 16
8654 20
8655 27
8656 8
8657 16
8658 2
8659 5
8660 7
8661 7
8662 24
8663 5
8664 20
8665 5
8666 16
8667 22
8668 20
8669 18
8670 9
8671 7
8672 15
8673 25
8674 7
8675 8
8676 0
8677 7
8678 12
8679 24
8680 7
8681 20
8682 16
8683 2
8684 0
8685 7
8686 6
8687 5
8688 6
8689 0
8690 20
8691 27
8692 20
8693 10
8694 7
8695 7
8696 24
8697 20
8698 0
8699 0
8700 0
8701 20
8702 2
8703 0
8704 15
8705 6
8706 6
8707 17
8708 17
8709 2
8710 15
8711 6
8712 7
8713 12
8714 22
8715 0
8716 12
8717 17
8718 2
8719 7
8720 21
8721 8
8722 24
8723 0
8724 0
8725 7
8726 20
8727 16
8728 7
8729 20
8730 12
8731 26
8732 17
8733 20
8734 0
8735 16
8736 20
8737 16
8738 7
8739 11
8740 7
8741 0
8742 20
8743 8
8744 9
8745 9
8746 5
8747 23
8748 9
8749 5
8750 11
8751 0
8752 5
8753 24
8754 9
8755 12
8756 0
8757 0
8758 7
8759 1
8760 20
8761 0
8762 0
8763 4
8764 7
8765 6
8766 7
8767 7
8768 0
8769 7
8770 11
8771 10
8772 0
8773 0
8774 0
8775 0
8776 16
8777 2
8778 6
8779 7
8780 21
8781 20
8782 17
8783 12
8784 3
8785 2
8786 0
8787 11
8788 22
8789 28
8790 11
8791 21
8792 7
8793 7
8794 8
8795 2
8796 7
8797 6
8798 20
8799 24
8800 1
8801 9
8802 10
8803 10
8804 0
8805 8
8806 2
8807 5
8808 2
8809 17
8810 0
8811 7
8812 0
8813 7
8814 7
8815 8
8816 24
8817 3
8818 6
8819 16
8820 28
8821 0
8822 0
8823 5
8824 9
8825 0
8826 11
8827 4
8828 0
8829 7
8830 20
8831 6
8832 9
8833 4
8834 7
8835 2
8836 7
8837 10
8838 29
8839 7
8840 9
8841 7
8842 16
8843 2
8844 5
8845 29
8846 0
8847 14
8848 17
8849 0
8850 15
8851 28
8852 17
8853 11
8854 2
8855 0
8856 17
8857 21
8858 10
8859 6
8860 21
8861 7
8862 0
8863 5
8864 11
8865 9
8866 0
8867 7
8868 6
8869 11
8870 0
8871 2
8872 7
8873 6
8874 7
8875 5
8876 2
8877 7
8878 2
8879 7
8880 20
8881 20
8882 10
8883 20
8884 17
8885 11
8886 20
8887 24
8888 15
8889 9
8890 7
8891 7
8892 11
8893 17
8894 10
8895 0
8896 7
8897 5
8898 9
8899 7
8900 8
8901 7
8902 0
8903 20
8904 7
8905 7
8906 11
8907 7
8908 0
8909 6
8910 7
8911 7
8912 0
8913 7
8914 0
8915 17
8916 0
8917 16
8918 20
8919 23
8920 9
8921 11
8922 0
8923 2
8924 24
8925 7
8926 10
8927 22
8928 21
8929 25
8930 0
8931 8
8932 10
8933 20
8934 7
8935 5
8936 1
8937 17
8938 7
8939 7
8940 0
8941 5
8942 7
8943 10
8944 6
8945 20
8946 6
8947 28
8948 10
8949 21
8950 7
8951 10
8952 0
8953 20
8954 24
8955 25
8956 7
8957 9
8958 11
8959 17
8960 7
8961 7
8962 12
8963 7
8964 7
8965 14
8966 7
8967 7
8968 20
8969 6
8970 7
8971 0
8972 12
8973 7
8974 0
8975 8
8976 7
8977 0
8978 11
8979 7
8980 11
8981 5
8982 12
8983 21
8984 22
8985 10
8986 7
8987 17
8988 9
8989 7
8990 0
8991 26
8992 7
8993 17
8994 10
8995 10
8996 3
8997 0
8998 2
8999 0
9000 6
9001 7
9002 1
9003 7
9004 20
9005 10
9006 25
9007 1
9008 6
9009 9
9010 0
9011 7
9012 20
9013 4
9014 6
9015 7
9016 0
9017 15
9018 20
9019 7
9020 7
9021 20
9022 5
9023 17
9024 0
9025 0
9026 6
9027 22
9028 6
9029 15
9030 7
9031 0
9032 17
9033 0
9034 11
9035 6
9036 0
9037 20
9038 0
9039 7
9040 2
9041 10
9042 21
9043 7
9044 7
9045 10
9046 10
9047 5
9048 2
9049 7
9050 11
9051 26
9052 28
9053 7
9054 17
9055 5
9056 7
9057 9
9058 7
9059 0
9060 9
9061 0
9062 16
9063 2
9064 11
9065 20
9066 11
9067 7
9068 6
9069 17
9070 9
9071 24
9072 7
9073 6
9074 6
9075 0
9076 7
9077 16
9078 7
9079 17
9080 17
9081 3
9082 11
9083 0
9084 6
9085 0
9086 10
9087 11
9088 0
9089 0
9090 0
9091 1
9092 7
9093 6
9094 9
9095 2
9096 17
9097 20
9098 16
9099 2
9100 2
9101 3
9102 17
9103 12
9104 0
9105 17
9106 2
9107 7
9108 0
9109 0
9110 7
9111 7
9112 0
9113 7
9114 6
9115 7
9116 17
9117 0
9118 20
9119 7
9120 20
9121 7
9122 7
9123 0
9124 17
9125 7
9126 5
9127 11
9128 7
9129 5
9130 2
9131 22
9132 7
9133 2
9134 10
9135 10
9136 7
9137 7
9138 2
9139 28
9140 23
9141 0
9142 7
9143 8
9144 9
9145 24
9146 5
9147 0
9148 0
9149 16
9150 6
9151 7
9152 7
9153 0
9154 2
9155 17
9156 28
9157 6
9158 1
9159 7
9160 5
9161 2
9162 5
9163 12
9164 7
9165 0
9166 10
9167 20
9168 2
9169 24
9170 28
9171 5
9172 5
9173 6
9174 6
9175 20
9176 8
9177 21
9178 6
9179 9
9180 22
9181 7
9182 23
9183 0
9184 0
9185 16
9186 20
9187 22
9188 2
9189 0
9190 16
9191 7
9192 5
9193 0
9194 7
9195 21
9196 15
9197 20
9198 11
9199 5
9200 21
9201 5
9202 0
9203 17
9204 24
9205 30
9206 7
9207 12
9208 21
9209 10
9210 9
9211 17
9212 0
9213 9
9214 7
9215 7
9216 5
9217 0
9218 6
9219 21
9220 7
9221 13
9222 9
9223 17
9224 21
9225 23
9226 28
9227 2
9228 14
9229 26
9230 7
9231 10
9232 7
9233 0
9234 7
9235 10
9236 22
9237 6
9238 20
9239 13
9240 20
9241 6
9242 24
9243 20
9244 10
9245 6
9246 0
9247 8
9248 6
9249 12
9250 7
9251 25
9252 11
9253 5
9254 10
9255 6
9256 16
9257 24
9258 0
9259 2
9260 9
9261 2
9262 6
9263 6
9264 2
9265 4
9266 0
9267 7
9268 17
9269 17
9270 0
9271 0
9272 26
9273 0
9274 9
9275 0
9276 9
9277 17
9278 22
9279 11
9280 12
9281 6
9282 8
9283 1
9284 7
9285 17
9286 11
9287 2
9288 32
9289 20
9290 12
9291 0
9292 2
9293 0
9294 5
9295 20
9296 5
9297 7
9298 20
9299 6
9300 5
9301 2
9302 4
9303 7
9304 24
9305 0
9306 2
9307 0
9308 0
9309 22
9310 10
9311 10
9312 5
9313 27
9314 6
9315 22
9316 0
9317 16
9318 0
9319 9
9320 16
9321 20
9322 20
9323 23
9324 0
9325 2
9326 2
9327 7
9328 6
9329 7
9330 12
9331 7
9332 24
9333 0
9334 20
9335 20
9336 11
9337 7
9338 20
9339 16
9340 6
9341 18
9342 0
9343 7
9344 2
9345 11
9346 7
9347 20
9348 17
9349 0
9350 6
9351 25
9352 30
9353 7
9354 0
9355 6
9356 15
9357 8
9358 7
9359 2
9360 28
9361 5
9362 2
9363 20
9364 7
9365 5
9366 6
9367 16
9368 0
9369 11
9370 6
9371 20
9372 16
9373 0
9374 2
9375 6
9376 11
9377 20
9378 0
9379 30
9380 7
9381 0
9382 8
9383 21
9384 23
9385 7
9386 20
9387 7
9388 6
9389 20
9390 0
9391 2
9392 9
9393 9
9394 0
9395 3
9396 23
9397 0
9398 20
9399 16
9400 6
9401 7
9402 20
9403 17
9404 0
9405 10
9406 17
9407 7
9408 6
9409 24
9410 7
9411 17
9412 5
9413 9
9414 7
9415 20
9416 9
9417 26
9418 0
9419 0
9420 5
9421 7
9422 20
9423 2
9424 10
9425 17
9426 6
9427 20
9428 25
9429 9
9430 16
9431 0
9432 12
9433 6
9434 0
9435 4
9436 6
9437 17
9438 24
9439 5
9440 9
9441 7
9442 1
9443 2
9444 0
9445 0
9446 16
9447 28
9448 24
9449 7
9450 7
9451 11
9452 7
9453 21
9454 11
9455 20
9456 7
9457 6
9458 0
9459 5
9460 7
9461 7
9462 6
9463 7
9464 2
9465 0
9466 9
9467 0
9468 7
9469 1
9470 9
9471 9
9472 7
9473 30
9474 29
9475 8
9476 8
9477 10
9478 15
9479 17
9480 17
9481 28
9482 0
9483 7
9484 16
9485 7
9486 5
9487 0
9488 6
9489 0
9490 22
9491 0
9492 20
9493 2
9494 28
9495 16
9496 28
9497 16
9498 2
9499 2
9500 0
9501 6
9502 7
9503 7
9504 21
9505 28
9506 4
9507 2
9508 20
9509 8
9510 5
9511 0
9512 24
9513 20
9514 19
9515 9
9516 0
9517 0
9518 20
9519 0
9520 0
9521 6
9522 24
9523 30
9524 29
9525 2
9526 17
9527 12
9528 5
9529 0
9530 9
9531 2
9532 0
9533 7
9534 0
9535 20
9536 27
9537 0
9538 5
9539 17
9540 2
9541 7
9542 6
9543 23
9544 0
9545 0
9546 28
9547 10
9548 20
9549 12
9550 25
9551 12
9552 0
9553 7
9554 17
9555 0
9556 0
9557 11
9558 17
9559 21
9560 11
9561 22
9562 11
9563 20
9564 20
9565 8
9566 7
9567 8
9568 24
9569 16
9570 0
9571 0
9572 14
9573 7
9574 12
9575 2
9576 0
9577 0
9578 17
9579 17
9580 16
9581 2
9582 0
9583 7
9584 10
9585 7
9586 21
9587 7
9588 6
9589 5
9590 7
9591 0
9592 0
9593 7
9594 20
9595 10
9596 7
9597 15
9598 9
9599 3
9600 0
9601 5
9602 0
9603 12
9604 7
9605 8
9606 7
9607 16
9608 5
9609 7
9610 0
9611 0
9612 7
9613 17
9614 0
9615 19
9616 25
9617 26
9618 21
9619 2
9620 7
9621 16
9622 23
9623 0
9624 9
9625 7
9626 17
9627 0
9628 2
9629 20
9630 22
9631 7
9632 21
9633 21
9634 0
9635 20
9636 0
9637 5
9638 23
9639 0
9640 7
9641 6
9642 16
9643 7
9644 0
9645 5
9646 10
9647 24
9648 2
9649 20
9650 5
9651 0
9652 2
9653 6
9654 16
9655 7
9656 23
9657 5
9658 29
9659 21
9660 0
9661 10
9662 2
9663 7
9664 25
9665 7
9666 16
9667 24
9668 7
9669 20
9670 24
9671 12
9672 0
9673 7
9674 5
9675 0
9676 21
9677 9
9678 20
9679 7
9680 11
9681 24
9682 16
9683 20
9684 12
9685 25
9686 2
9687 1
9688 21
9689 17
9690 0
9691 2
9692 0
9693 5
9694 9
9695 7
9696 3
9697 0
9698 6
9699 20
9700 7
9701 9
9702 24
9703 7
9704 17
9705 16
9706 9
9707 6
9708 6
9709 5
9710 0
9711 7
9712 2
9713 6
9714 0
9715 0
9716 20
9717 2
9718 0
9719 7
9720 2
9721 6
9722 2
9723 2
9724 7
9725 6
9726 2
9727 2
9728 0
9729 7
9730 20
9731 22
9732 2
9733 11
9734 0
9735 9
9736 20
9737 7
9738 11
9739 7
9740 0
9741 2
9742 0
9743 6
9744 16
9745 7
9746 11
9747 0
9748 5
9749 25
9750 16
9751 2
9752 23
9753 24
9754 10
9755 13
9756 0
9757 2
9758 0
9759 11
9760 0
9761 12
9762 20
9763 0
9764 12
9765 0
9766 20
9767 5
9768 6
9769 5
9770 5
9771 7
9772 0
9773 7
9774 24
9775 12
9776 2
9777 0
9778 27
9779 7
9780 0
9781 16
9782 4
9783 20
9784 0
9785 0
9786 26
9787 2
9788 20
9789 4
9790 11
9791 0
9792 0
9793 0
9794 24
9795 7
9796 11
9797 7
9798 28
9799 20
9800 22
9801 11
9802 7
9803 5
9804 21
9805 4
9806 20
9807 0
9808 5
9809 6
9810 17
9811 20
9812 2
9813 17
9814 7
9815 7
9816 7
9817 2
9818 16
9819 10
9820 9
9821 4
9822 0
9823 0
9824 27
9825 6
9826 12
9827 16
9828 21
9829 7
9830 20
9831 15
9832 24
9833 7
9834 11
9835 5
9836 0
9837 17
9838 4
9839 6
9840 26
9841 9
9842 4
9843 9
9844 11
9845 7
9846 19
9847 6
9848 6
9849 7
9850 0
9851 12
9852 22
9853 7
9854 7
9855 7
9856 14
9857 7
9858 17
9859 17
9860 0
9861 0
9862 7
9863 31
9864 0
9865 7
9866 6
9867 7
9868 7
9869 6
9870 0
9871 2
9872 11
9873 7
9874 5
9875 0
9876 0
9877 2
9878 6
9879 7
9880 5
9881 23
9882 2
9883 6
9884 0
9885 21
9886 11
9887 24
9888 20
9889 6
9890 20
9891 21
9892 17
9893 7
9894 0
9895 0
9896 12
9897 0
9898 17
9899 6
9900 3
9901 5
9902 9
9903 27
9904 0
9905 7
9906 5
9907 5
9908 7
9909 17
9910 0
9911 7
9912 5
9913 22
9914 9
9915 24
9916 16
9917 0
9918 2
9919 7
9920 2
9921 17
9922 6
9923 16
9924 7
9925 7
9926 0
9927 24
9928 7
9929 7
9930 7
9931 28
9932 7
9933 23
9934 5
9935 8
9936 0
9937 7
9938 17
9939 17
9940 24
9941 20
9942 16
9943 28
9944 0
9945 2
9946 2
9947 2
9948 6
9949 17
9950 2
9951 4
9952 5
9953 5
9954 17
9955 7
9956 6
9957 5
9958 0
9959 12
9960 6
9961 24
9962 0
9963 6
9964 12
9965 7
9966 7
9967 10
9968 1
9969 17
9970 0
9971 10
9972 17
9973 9
9974 7
9975 7
9976 24
9977 11
9978 5
9979 12
9980 8
9981 2
9982 20
9983 0
9984 17
9985 9
9986 6
9987 1
9988 22
9989 6
9990 0
9991 16
9992 2
9993 10
9994 0
9995 9
9996 5
9997 0
9998 20
9999 6
