0 0
1 1
2 2
3 3
4 4
5 5
6 6
7 0
8 0
9 7
10 1
11 8
12 1
13 2
14 8
15 3
16 4
17 0
18 9
19 7
20 1
21 7
22 10
23 1
24 0
25 11
26 6
27 9
28 0
29 12
30 13
31 13
32 7
33 7
34 1
35 14
36 15
37 16
38 2
39 14
40 17
41 18
42 3
43 7
44 19
45 7
46 13
47 20
48 4
49 0
50 3
51 6
52 1
53 6
54 12
55 21
56 0
57 9
58 2
59 15
60 1
61 0
62 0
63 7
64 3
65 4
66 16
67 2
68 3
69 4
70 8
71 22
72 22
73 19
74 4
75 0
76 2
77 7
78 6
79 15
80 19
81 2
82 7
83 2
84 2
85 23
86 20
87 2
88 7
89 23
90 3
91 2
92 21
93 20
94 0
95 0
96 0
97 19
98 3
99 24
100 22
101 13
102 3
103 1
104 4
105 25
106 7
107 19
108 12
109 7
110 2
111 13
112 26
113 3
114 0
115 5
116 13
117 12
118 12
119 2
120 16
121 7
122 4
123 7
124 12
125 0
126 16
127 9
128 0
129 7
130 2
131 4
132 9
133 26
134 7
135 0
136 0
137 18
138 8
139 0
140 13
141 16
142 6
143 0
144 7
145 0
146 9
147 4
148 7
149 15
150 16
151 7
152 27
153 9
154 0
155 13
156 0
157 0
158 12
159 13
160 4
161 20
162 1
163 12
164 27
165 9
166 3
167 9
168 26
169 8
170 12
171 0
172 15
173 7
174 9
175 7
176 5
177 19
178 3
179 7
180 3
181 25
182 4
183 22
184 3
185 13
186 0
187 3
188 12
189 4
190 19
191 17
192 4
193 3
194 9
195 0
196 23
197 0
198 20
199 7
200 0
201 5
202 12
203 16
204 24
205 4
206 4
207 3
208 20
209 3
210 16
211 2
212 7
213 7
214 3
215 6
216 4
217 1
218 19
219 0
220 1
221 4
222 7
223 0
224 25
225 4
226 4
227 23
228 6
229 1
230 3
231 3
232 5
233 7
234 8
235 15
236 25
237 18
238 27
239 15
240 3
241 12
242 4
243 4
244 7
245 0
246 7
247 12
248 25
249 0
250 27
251 13
252 3
253 7
254 0
255 7
256 7
257 1
258 3
259 0
260 4
261 7
262 3
263 0
264 13
265 9
266 0
267 7
268 16
269 27
270 3
271 7
272 13
273 6
274 2
275 21
276 20
277 11
278 18
279 19
280 9
281 13
282 25
283 0
284 8
285 6
286 3
287 28
288 4
289 1
290 13
291 4
292 7
293 6
294 27
295 0
296 4
297 25
298 4
299 8
300 4
301 0
302 9
303 7
304 9
305 7
306 0
307 15
308 3
309 4
310 0
311 7
312 0
313 7
314 0
315 16
316 4
317 1
318 5
319 4
320 5
321 16
322 18
323 19
324 7
325 4
326 2
327 7
328 7
329 7
330 3
331 7
332 5
333 9
334 2
335 19
336 13
337 7
338 4
339 7
340 8
341 3
342 7
343 13
344 26
345 2
346 2
347 4
348 4
349 7
350 13
351 9
352 3
353 4
354 0
355 0
356 4
357 15
358 6
359 23
360 4
361 0
362 7
363 3
364 0
365 7
366 6
367 18
368 4
369 23
370 19
371 6
372 26
373 0
374 0
375 8
376 4
377 1
378 7
379 19
380 19
381 7
382 20
383 3
384 0
385 6
386 1
387 7
388 4
389 0
390 4
391 16
392 13
393 6
394 0
395 0
396 19
397 7
398 2
399 0
400 1
401 2
402 19
403 2
404 14
405 6
406 18
407 0
408 0
409 19
410 1
411 13
412 2
413 0
414 8
415 7
416 2
417 16
418 3
419 7
420 2
421 0
422 20
423 4
424 25
425 1
426 7
427 4
428 0
429 0
430 10
431 19
432 9
433 0
434 15
435 0
436 7
437 12
438 0
439 0
440 20
441 3
442 13
443 6
444 1
445 8
446 4
447 1
448 3
449 7
450 9
451 4
452 0
453 4
454 12
455 2
456 29
457 6
458 4
459 7
460 6
461 0
462 4
463 9
464 0
465 19
466 15
467 15
468 25
469 0
470 13
471 9
472 4
473 7
474 7
475 9
476 3
477 3
478 0
479 7
480 1
481 3
482 2
483 7
484 6
485 9
486 21
487 8
488 4
489 7
490 9
491 7
492 9
493 2
494 4
495 4
496 9
497 7
498 9
499 7
500 3
501 19
502 7
503 9
504 0
505 18
506 4
507 12
508 7
509 8
510 27
511 4
512 24
513 7
514 0
515 7
516 7
517 2
518 7
519 4
520 7
521 12
522 7
523 19
524 7
525 16
526 13
527 3
528 13
529 8
530 7
531 24
532 4
533 3
534 6
535 1
536 10
537 10
538 24
539 3
540 18
541 4
542 27
543 20
544 6
545 6
546 1
547 3
548 0
549 8
550 6
551 1
552 2
553 2
554 6
555 3
556 0
557 1
558 4
559 4
560 2
561 1
562 0
563 9
564 21
565 2
566 0
567 7
568 2
569 7
570 8
571 24
572 3
573 5
574 15
575 19
576 0
577 0
578 13
579 6
580 4
581 4
582 15
583 29
584 0
585 0
586 3
587 1
588 3
589 27
590 7
591 3
592 2
593 3
594 7
595 7
596 0
597 21
598 16
599 0
600 23
601 4
602 3
603 7
604 3
605 8
606 3
607 17
608 26
609 16
610 0
611 20
612 3
613 9
614 4
615 24
616 6
617 21
618 7
619 6
620 12
621 4
622 3
623 0
624 4
625 3
626 21
627 7
628 27
629 6
630 7
631 2
632 2
633 7
634 19
635 6
636 9
637 4
638 4
639 2
640 0
641 0
642 3
643 27
644 3
645 0
646 18
647 25
648 4
649 7
650 9
651 4
652 7
653 6
654 7
655 9
656 13
657 3
658 0
659 7
660 0
661 1
662 1
663 7
664 15
665 7
666 0
667 4
668 16
669 2
670 0
671 4
672 20
673 19
674 18
675 1
676 1
677 4
678 14
679 17
680 3
681 18
682 30
683 3
684 2
685 13
686 0
687 1
688 3
689 0
690 19
691 6
692 13
693 0
694 8
695 2
696 8
697 4
698 4
699 0
700 0
701 0
702 4
703 0
704 4
705 4
706 4
707 3
708 10
709 9
710 7
711 7
712 2
713 7
714 9
715 6
716 1
717 28
718 22
719 0
720 26
721 0
722 4
723 1
724 4
725 0
726 7
727 0
728 20
729 9
730 19
731 0
732 4
733 4
734 13
735 3
736 5
737 2
738 9
739 1
740 6
741 4
742 20
743 6
744 7
745 19
746 0
747 1
748 8
749 9
750 29
751 7
752 1
753 9
754 7
755 3
756 1
757 9
758 19
759 3
760 16
761 7
762 0
763 12
764 13
765 4
766 0
767 15
768 16
769 0
770 27
771 20
772 9
773 6
774 7
775 9
776 9
777 6
778 0
779 9
780 19
781 4
782 23
783 1
784 8
785 4
786 8
787 7
788 0
789 3
790 5
791 7
792 6
793 0
794 6
795 0
796 0
797 1
798 15
799 9
800 7
801 4
802 13
803 1
804 3
805 0
806 7
807 4
808 12
809 6
810 4
811 7
812 9
813 13
814 1
815 0
816 4
817 12
818 1
819 7
820 1
821 13
822 0
823 16
824 0
825 2
826 24
827 3
828 9
829 0
830 9
831 16
832 6
833 13
834 4
835 19
836 0
837 3
838 1
839 9
840 7
841 7
842 13
843 4
844 6
845 0
846 0
847 7
848 28
849 26
850 4
851 3
852 19
853 25
854 19
855 0
856 4
857 16
858 7
859 4
860 4
861 2
862 9
863 6
864 7
865 24
866 18
867 7
868 2
869 15
870 6
871 24
872 0
873 1
874 23
875 6
876 9
877 3
878 10
879 28
880 0
881 2
882 1
883 3
884 26
885 3
886 0
887 6
888 0
889 2
890 7
891 4
892 9
893 3
894 9
895 0
896 4
897 0
898 7
899 13
900 9
901 7
902 9
903 9
904 2
905 1
906 16
907 2
908 4
909 1
910 13
911 3
912 16
913 15
914 0
915 4
916 6
917 18
918 4
919 3
920 7
921 7
922 4
923 1
924 2
925 3
926 19
927 19
928 7
929 16
930 12
931 13
932 7
933 0
934 2
935 4
936 3
937 4
938 10
939 20
940 23
941 4
942 0
943 0
944 0
945 3
946 3
947 0
948 16
949 6
950 6
951 15
952 6
953 1
954 4
955 16
956 7
957 19
958 16
959 13
960 4
961 7
962 16
963 13
964 0
965 0
966 4
967 27
968 3
969 7
970 3
971 7
972 7
973 24
974 0
975 7
976 7
977 7
978 19
979 7
980 7
981 3
982 4
983 2
984 1
985 2
986 0
987 0
988 6
989 1
990 15
991 7
992 4
993 2
994 10
995 12
996 0
997 0
998 8
999 6
1000 2
1001 9
1002 23
1003 2
1004 3
1005 4
1006 15
1007 3
1008 3
1009 1
1010 7
1011 3
1012 24
1013 4
1014 3
1015 0
1016 18
1017 1
1018 9
1019 3
1020 1
1021 6
1022 16
1023 3
1024 3
1025 7
1026 2
1027 2
1028 7
1029 19
1030 3
1031 6
1032 16
1033 4
1034 19
1035 11
1036 10
1037 7
1038 6
1039 9
1040 10
1041 6
1042 0
1043 4
1044 0
1045 7
1046 6
1047 10
1048 23
1049 13
1050 1
1051 17
1052 0
1053 6
1054 9
1055 13
1056 13
1057 3
1058 4
1059 14
1060 0
1061 7
1062 10
1063 7
1064 4
1065 13
1066 9
1067 6
1068 2
1069 7
1070 3
1071 29
1072 1
1073 15
1074 3
1075 19
1076 4
1077 6
1078 7
1079 7
1080 24
1081 20
1082 16
1083 19
1084 7
1085 7
1086 0
1087 4
1088 7
1089 6
1090 8
1091 0
1092 9
1093 22
1094 16
1095 0
1096 2
1097 3
1098 0
1099 7
1100 3
1101 2
1102 12
1103 6
1104 4
1105 7
1106 19
1107 1
1108 13
1109 6
1110 6
1111 9
1112 20
1113 6
1114 4
1115 25
1116 7
1117 18
1118 8
1119 7
1120 4
1121 7
1122 18
1123 0
1124 16
1125 7
1126 4
1127 0
1128 7
1129 28
1130 7
1131 3
1132 0
1133 0
1134 7
1135 24
1136 7
1137 0
1138 1
1139 0
1140 7
1141 2
1142 7
1143 3
1144 9
1145 21
1146 4
1147 23
1148 12
1149 27
1150 3
1151 7
1152 19
1153 21
1154 3
1155 27
1156 13
1157 16
1158 3
1159 1
1160 20
1161 2
1162 7
1163 15
1164 10
1165 7
1166 13
1167 13
1168 8
1169 9
1170 0
1171 7
1172 20
1173 7
1174 27
1175 7
1176 7
1177 7
1178 7
1179 19
1180 0
1181 24
1182 7
1183 0
1184 8
1185 7
1186 0
1187 10
1188 4
1189 2
1190 9
1191 3
1192 12
1193 1
1194 0
1195 3
1196 2
1197 2
1198 2
1199 4
1200 6
1201 7
1202 8
1203 13
1204 15
1205 2
1206 7
1207 0
1208 12
1209 2
1210 3
1211 9
1212 7
1213 3
1214 4
1215 1
1216 2
1217 8
1218 0
1219 7
1220 7
1221 15
1222 1
1223 0
1224 4
1225 20
1226 9
1227 4
1228 26
1229 0
1230 0
1231 2
1232 10
1233 24
1234 13
1235 9
1236 1
1237 0
1238 2
1239 15
1240 29
1241 4
1242 16
1243 4
1244 8
1245 9
1246 7
1247 4
1248 6
1249 24
1250 18
1251 6
1252 11
1253 15
1254 19
1255 7
1256 0
1257 3
1258 2
1259 4
1260 7
1261 9
1262 8
1263 15
1264 2
1265 14
1266 13
1267 8
1268 6
1269 7
1270 0
1271 0
1272 13
1273 1
1274 7
1275 8
1276 2
1277 5
1278 7
1279 12
1280 7
1281 0
1282 8
1283 27
1284 13
1285 7
1286 16
1287 2
1288 3
1289 0
1290 0
1291 7
1292 13
1293 3
1294 2
1295 7
1296 7
1297 3
1298 12
1299 8
1300 6
1301 4
1302 19
1303 20
1304 19
1305 6
1306 1
1307 9
1308 23
1309 19
1310 27
1311 19
1312 13
1313 2
1314 4
1315 24
1316 6
1317 3
1318 4
1319 7
1320 1
1321 2
1322 6
1323 7
1324 2
1325 7
1326 9
1327 2
1328 17
1329 4
1330 1
1331 8
1332 13
1333 4
1334 3
1335 4
1336 6
1337 9
1338 0
1339 13
1340 16
1341 8
1342 7
1343 15
1344 5
1345 19
1346 12
1347 0
1348 26
1349 9
1350 4
1351 10
1352 6
1353 3
1354 15
1355 4
1356 27
1357 7
1358 6
1359 8
1360 19
1361 3
1362 0
1363 4
1364 6
1365 0
1366 9
1367 9
1368 0
1369 6
1370 0
1371 0
1372 7
1373 0
1374 3
1375 1
1376 4
1377 12
1378 7
1379 4
1380 9
1381 29
1382 10
1383 9
1384 6
1385 9
1386 7
1387 13
1388 6
1389 13
1390 12
1391 7
1392 24
1393 4
1394 13
1395 27
1396 0
1397 1
1398 27
1399 7
1400 7
1401 4
1402 0
1403 7
1404 8
1405 12
1406 0
1407 7
1408 4
1409 4
1410 9
1411 0
1412 20
1413 7
1414 1
1415 7
1416 3
1417 19
1418 18
1419 6
1420 16
1421 3
1422 1
1423 0
1424 0
1425 0
1426 7
1427 13
1428 4
1429 4
1430 4
1431 0
1432 2
1433 0
1434 6
1435 7
1436 4
1437 0
1438 4
1439 4
1440 2
1441 4
1442 3
1443 9
1444 3
1445 4
1446 4
1447 8
1448 21
1449 9
1450 1
1451 0
1452 0
1453 4
1454 12
1455 7
1456 1
1457 3
1458 3
1459 7
1460 8
1461 10
1462 12
1463 0
1464 19
1465 9
1466 3
1467 9
1468 6
1469 0
1470 1
1471 19
1472 5
1473 7
1474 20
1475 0
1476 1
1477 7
1478 9
1479 7
1480 12
1481 0
1482 3
1483 4
1484 7
1485 7
1486 4
1487 0
1488 2
1489 9
1490 9
1491 4
1492 3
1493 7
1494 2
1495 19
1496 21
1497 4
1498 15
1499 9
1500 20
1501 6
1502 0
1503 8
1504 0
1505 7
1506 19
1507 19
1508 0
1509 1
1510 3
1511 6
1512 7
1513 7
1514 3
1515 15
1516 0
1517 2
1518 2
1519 20
1520 1
1521 0
1522 7
1523 7
1524 15
1525 7
1526 7
1527 15
1528 0
1529 20
1530 3
1531 6
1532 7
1533 8
1534 7
1535 4
1536 15
1537 4
1538 15
1539 4
1540 7
1541 7
1542 19
1543 0
1544 13
1545 0
1546 24
1547 3
1548 15
1549 1
1550 4
1551 10
1552 0
1553 16
1554 15
1555 15
1556 19
1557 4
1558 19
1559 3
1560 0
1561 9
1562 16
1563 4
1564 12
1565 5
1566 3
1567 4
1568 0
1569 4
1570 0
1571 0
1572 2
1573 7
1574 15
1575 0
1576 7
1577 1
1578 7
1579 7
1580 0
1581 3
1582 2
1583 7
1584 3
1585 15
1586 0
1587 15
1588 9
1589 7
1590 27
1591 3
1592 12
1593 6
1594 0
1595 27
1596 7
1597 3
1598 4
1599 0
1600 4
1601 22
1602 7
1603 2
1604 4
1605 13
1606 1
1607 3
1608 6
1609 22
1610 29
1611 4
1612 4
1613 7
1614 4
1615 0
1616 3
1617 7
1618 9
1619 8
1620 25
1621 15
1622 4
1623 4
1624 11
1625 6
1626 12
1627 7
1628 13
1629 7
1630 12
1631 14
1632 4
1633 7
1634 9
1635 2
1636 13
1637 9
1638 3
1639 7
1640 27
1641 4
1642 2
1643 3
1644 1
1645 7
1646 2
1647 9
1648 2
1649 6
1650 0
1651 7
1652 4
1653 0
1654 28
1655 4
1656 12
1657 6
1658 7
1659 3
1660 0
1661 6
1662 7
1663 0
1664 12
1665 13
1666 3
1667 1
1668 1
1669 7
1670 1
1671 13
1672 7
1673 7
1674 21
1675 9
1676 3
1677 22
1678 28
1679 23
1680 21
1681 15
1682 9
1683 4
1684 7
1685 7
1686 7
1687 6
1688 5
1689 2
1690 0
1691 24
1692 4
1693 13
1694 3
1695 0
1696 13
1697 16
1698 21
1699 0
1700 6
1701 8
1702 15
1703 6
1704 15
1705 7
1706 1
1707 7
1708 7
1709 7
1710 0
1711 7
1712 12
1713 18
1714 22
1715 27
1716 7
1717 13
1718 12
1719 7
1720 15
1721 3
1722 7
1723 4
1724 10
1725 6
1726 21
1727 21
1728 2
1729 0
1730 4
1731 15
1732 0
1733 0
1734 7
1735 30
1736 9
1737 6
1738 0
1739 20
1740 20
1741 9
1742 3
1743 21
1744 9
1745 1
1746 15
1747 19
1748 4
1749 6
1750 0
1751 21
1752 0
1753 4
1754 12
1755 2
1756 4
1757 24
1758 6
1759 3
1760 8
1761 10
1762 6
1763 7
1764 16
1765 3
1766 7
1767 1
1768 7
1769 15
1770 2
1771 0
1772 7
1773 0
1774 7
1775 18
1776 3
1777 7
1778 6
1779 7
1780 9
1781 4
1782 25
1783 3
1784 2
1785 6
1786 5
1787 20
1788 20
1789 3
1790 0
1791 1
1792 1
1793 12
1794 6
1795 7
1796 9
1797 9
1798 4
1799 4
1800 19
1801 6
1802 6
1803 3
1804 3
1805 7
1806 20
1807 0
1808 8
1809 9
1810 3
1811 1
1812 0
1813 7
1814 1
1815 19
1816 4
1817 0
1818 0
1819 0
1820 1
1821 9
1822 21
1823 7
1824 4
1825 1
1826 3
1827 7
1828 13
1829 7
1830 0
1831 13
1832 16
1833 9
1834 0
1835 0
1836 20
1837 10
1838 7
1839 16
1840 9
1841 0
1842 7
1843 18
1844 0
1845 7
1846 16
1847 1
1848 8
1849 0
1850 3
1851 0
1852 5
1853 0
1854 3
1855 4
1856 1
1857 16
1858 4
1859 7
1860 0
1861 9
1862 0
1863 6
1864 6
1865 7
1866 20
1867 7
1868 0
1869 16
1870 8
1871 3
1872 3
1873 7
1874 4
1875 19
1876 7
1877 7
1878 7
1879 1
1880 6
1881 3
1882 12
1883 7
1884 7
1885 1
1886 3
1887 0
1888 9
1889 6
1890 0
1891 0
1892 0
1893 7
1894 9
1895 0
1896 3
1897 2
1898 1
1899 20
1900 6
1901 2
1902 3
1903 13
1904 19
1905 7
1906 7
1907 3
1908 4
1909 6
1910 7
1911 16
1912 9
1913 2
1914 6
1915 7
1916 7
1917 7
1918 9
1919 7
1920 3
1921 9
1922 15
1923 7
1924 2
1925 19
1926 9
1927 3
1928 1
1929 9
1930 0
1931 7
1932 3
1933 7
1934 20
1935 4
1936 0
1937 0
1938 3
1939 4
1940 0
1941 3
1942 1
1943 7
1944 0
1945 0
1946 5
1947 3
1948 0
1949 3
1950 6
1951 7
1952 1
1953 4
1954 12
1955 21
1956 2
1957 4
1958 0
1959 7
1960 3
1961 7
1962 3
1963 4
1964 2
1965 3
1966 25
1967 7
1968 18
1969 2
1970 6
1971 3
1972 20
1973 8
1974 0
1975 3
1976 12
1977 2
1978 7
1979 27
1980 10
1981 20
1982 1
1983 2
1984 13
1985 6
1986 17
1987 0
1988 0
1989 26
1990 7
1991 19
1992 27
1993 7
1994 0
1995 7
1996 6
1997 19
1998 7
1999 6
2000 8
2001 3
2002 6
2003 3
2004 4
2005 6
2006 4
2007 23
2008 7
2009 2
2010 5
2011 4
2012 7
2013 0
2014 9
2015 6
2016 13
2017 22
2018 24
2019 1
2020 18
2021 16
2022 25
2023 0
2024 2
2025 16
2026 3
2027 3
2028 2
2029 3
2030 15
2031 19
2032 1
2033 6
2034 3
2035 1
2036 0
2037 6
2038 7
2039 1
2040 4
2041 27
2042 7
2043 5
2044 0
2045 6
2046 0
2047 8
2048 9
2049 3
2050 4
2051 6
2052 6
2053 0
2054 28
2055 4
2056 8
2057 0
2058 2
2059 2
2060 2
2061 1
2062 6
2063 4
2064 4
2065 27
2066 8
2067 7
2068 8
2069 2
2070 25
2071 4
2072 6
2073 13
2074 9
2075 2
2076 10
2077 9
2078 2
2079 4
2080 2
2081 0
2082 7
2083 21
2084 6
2085 3
2086 9
2087 12
2088 4
2089 4
2090 0
2091 9
2092 15
2093 12
2094 3
2095 0
2096 15
2097 4
2098 2
2099 4
2100 3
2101 13
2102 23
2103 4
2104 2
2105 3
2106 12
2107 21
2108 4
2109 2
2110 15
2111 16
2112 7
2113 7
2114 4
2115 5
2116 7
2117 4
2118 0
2119 22
2120 4
2121 7
2122 10
2123 0
2124 15
2125 24
2126 15
2127 13
2128 12
2129 1
2130 10
2131 5
2132 1
2133 0
2134 10
2135 0
2136 15
2137 0
2138 13
2139 7
2140 11
2141 4
2142 24
2143 20
2144 22
2145 0
2146 2
2147 19
2148 7
2149 1
2150 13
2151 14
2152 0
2153 18
2154 23
2155 9
2156 27
2157 6
2158 2
2159 22
2160 1
2161 15
2162 19
2163 7
2164 7
2165 2
2166 9
2167 4
2168 5
2169 0
2170 3
2171 1
2172 1
2173 6
2174 4
2175 1
2176 7
2177 5
2178 2
2179 4
2180 7
2181 6
2182 1
2183 5
2184 6
2185 27
2186 0
2187 7
2188 15
2189 7
2190 3
2191 9
2192 13
2193 7
2194 21
2195 3
2196 6
2197 0
2198 6
2199 7
2200 19
2201 6
2202 1
2203 3
2204 9
2205 3
2206 3
2207 1
2208 7
2209 21
2210 0
2211 7
2212 9
2213 20
2214 0
2215 7
2216 4
2217 15
2218 15
2219 0
2220 4
2221 2
2222 29
2223 0
2224 0
2225 20
2226 19
2227 28
2228 3
2229 27
2230 3
2231 7
2232 1
2233 0
2234 2
2235 15
2236 6
2237 15
2238 4
2239 4
2240 7
2241 2
2242 3
2243 4
2244 21
2245 15
2246 23
2247 4
2248 9
2249 19
2250 0
2251 0
2252 4
2253 9
2254 21
2255 2
2256 9
2257 6
2258 9
2259 0
2260 2
2261 6
2262 7
2263 4
2264 0
2265 19
2266 15
2267 10
2268 16
2269 7
2270 7
2271 7
2272 27
2273 22
2274 19
2275 12
2276 4
2277 4
2278 1
2279 0
2280 7
2281 13
2282 23
2283 3
2284 0
2285 6
2286 27
2287 7
2288 19
2289 16
2290 6
2291 0
2292 4
2293 7
2294 7
2295 2
2296 0
2297 25
2298 27
2299 2
2300 14
2301 9
2302 1
2303 19
2304 20
2305 1
2306 1
2307 1
2308 0
2309 0
2310 4
2311 9
2312 3
2313 0
2314 24
2315 4
2316 3
2317 13
2318 7
2319 0
2320 7
2321 7
2322 12
2323 7
2324 3
2325 18
2326 16
2327 9
2328 0
2329 7
2330 0
2331 1
2332 7
2333 12
2334 13
2335 7
2336 4
2337 15
2338 0
2339 0
2340 4
2341 1
2342 3
2343 13
2344 6
2345 2
2346 7
2347 9
2348 15
2349 4
2350 0
2351 15
2352 3
2353 9
2354 21
2355 7
2356 8
2357 7
2358 8
2359 6
2360 9
2361 10
2362 10
2363 7
2364 2
2365 13
2366 13
2367 15
2368 16
2369 7
2370 3
2371 6
2372 17
2373 0
2374 4
2375 7
2376 4
2377 13
2378 6
2379 3
2380 6
2381 18
2382 9
2383 7
2384 8
2385 19
2386 15
2387 7
2388 16
2389 0
2390 20
2391 6
2392 3
2393 8
2394 13
2395 4
2396 1
2397 3
2398 1
2399 9
2400 16
2401 8
2402 3
2403 0
2404 19
2405 4
2406 27
2407 2
2408 7
2409 7
2410 2
2411 1
2412 8
2413 16
2414 7
2415 4
2416 3
2417 6
2418 8
2419 11
2420 4
2421 19
2422 7
2423 9
2424 3
2425 4
2426 10
2427 2
2428 7
2429 7
2430 7
2431 2
2432 21
2433 15
2434 21
2435 19
2436 16
2437 7
2438 0
2439 7
2440 24
2441 0
2442 0
2443 1
2444 0
2445 7
2446 4
2447 0
2448 12
2449 0
2450 7
2451 7
2452 3
2453 0
2454 7
2455 2
2456 7
2457 7
2458 20
2459 0
2460 0
2461 13
2462 0
2463 0
2464 6
2465 24
2466 15
2467 0
2468 25
2469 6
2470 0
2471 4
2472 3
2473 4
2474 0
2475 1
2476 2
2477 4
2478 19
2479 21
2480 6
2481 0
2482 24
2483 7
2484 12
2485 7
2486 0
2487 6
2488 15
2489 7
2490 0
2491 1
2492 2
2493 2
2494 24
2495 1
2496 7
2497 8
2498 3
2499 24
2500 3
2501 2
2502 6
2503 3
2504 1
2505 27
2506 13
2507 1
2508 3
2509 9
2510 16
2511 3
2512 3
2513 6
2514 0
2515 2
2516 4
2517 14
2518 6
2519 3
2520 3
2521 7
2522 7
2523 2
2524 7
2525 23
2526 7
2527 7
2528 0
2529 19
2530 3
2531 7
2532 6
2533 4
2534 27
2535 16
2536 6
2537 7
2538 3
2539 6
2540 1
2541 9
2542 4
2543 7
2544 6
2545 7
2546 7
2547 6
2548 7
2549 12
2550 7
2551 2
2552 3
2553 4
2554 0
2555 6
2556 4
2557 8
2558 8
2559 3
2560 2
2561 8
2562 4
2563 15
2564 6
2565 12
2566 10
2567 0
2568 2
2569 3
2570 6
2571 14
2572 12
2573 0
2574 9
2575 15
2576 6
2577 13
2578 8
2579 9
2580 6
2581 7
2582 10
2583 19
2584 6
2585 27
2586 24
2587 0
2588 3
2589 5
2590 25
2591 7
2592 23
2593 7
2594 1
2595 7
2596 12
2597 27
2598 0
2599 5
2600 10
2601 7
2602 3
2603 15
2604 2
2605 2
2606 6
2607 27
2608 0
2609 0
2610 7
2611 9
2612 23
2613 6
2614 2
2615 3
2616 4
2617 3
2618 4
2619 12
2620 7
2621 2
2622 0
2623 2
2624 15
2625 0
2626 0
2627 20
2628 7
2629 18
2630 1
2631 6
2632 7
2633 3
2634 4
2635 2
2636 6
2637 7
2638 6
2639 17
2640 7
2641 8
2642 9
2643 0
2644 0
2645 6
2646 19
2647 4
2648 4
2649 0
2650 3
2651 0
2652 4
2653 7
2654 1
2655 13
2656 4
2657 7
2658 4
2659 23
2660 7
2661 4
2662 9
2663 6
2664 1
2665 6
2666 2
2667 1
2668 4
2669 7
2670 4
2671 4
2672 1
2673 4
2674 2
2675 7
2676 3
2677 20
2678 9
2679 7
2680 9
2681 5
2682 19
2683 8
2684 1
2685 0
2686 0
2687 7
2688 6
2689 3
2690 1
2691 2
2692 7
2693 0
2694 6
2695 0
2696 7
2697 23
2698 24
2699 19
2700 27
2701 0
2702 13
2703 7
2704 16
2705 13
2706 9
2707 9
2708 4
2709 6
2710 18
2711 7
2712 1
2713 4
2714 4
2715 12
2716 23
2717 1
2718 7
2719 6
2720 3
2721 2
2722 0
2723 7
2724 4
2725 9
2726 0
2727 0
2728 9
2729 0
2730 7
2731 9
2732 0
2733 2
2734 7
2735 6
2736 4
2737 2
2738 7
2739 0
2740 7
2741 3
2742 0
2743 20
2744 4
2745 1
2746 1
2747 7
2748 15
2749 7
2750 13
2751 3
2752 7
2753 2
2754 7
2755 1
2756 7
2757 0
2758 1
2759 3
2760 19
2761 1
2762 27
2763 0
2764 11
2765 1
2766 6
2767 12
2768 3
2769 1
2770 0
2771 1
2772 7
2773 7
2774 6
2775 1
2776 4
2777 13
2778 7
2779 13
2780 1
2781 0
2782 13
2783 7
2784 7
2785 0
2786 2
2787 5
2788 15
2789 0
2790 0
2791 9
2792 0
2793 18
2794 7
2795 7
2796 7
2797 3
2798 1
2799 15
2800 3
2801 4
2802 6
2803 7
2804 7
2805 0
2806 4
2807 4
2808 8
2809 15
2810 9
2811 19
2812 3
2813 1
2814 7
2815 0
2816 3
2817 16
2818 4
2819 0
2820 3
2821 4
2822 7
2823 0
2824 4
2825 3
2826 0
2827 3
2828 7
2829 15
2830 13
2831 16
2832 0
2833 4
2834 0
2835 1
2836 1
2837 4
2838 19
2839 8
2840 7
2841 3
2842 7
2843 6
2844 24
2845 13
2846 1
2847 7
2848 7
2849 9
2850 3
2851 12
2852 2
2853 13
2854 9
2855 2
2856 27
2857 0
2858 0
2859 7
2860 2
2861 4
2862 1
2863 10
2864 24
2865 0
2866 23
2867 3
2868 7
2869 4
2870 27
2871 0
2872 7
2873 7
2874 4
2875 4
2876 9
2877 7
2878 27
2879 0
2880 13
2881 1
2882 3
2883 12
2884 9
2885 1
2886 15
2887 7
2888 0
2889 3
2890 13
2891 2
2892 4
2893 16
2894 0
2895 4
2896 4
2897 20
2898 4
2899 6
2900 16
2901 7
2902 12
2903 0
2904 6
2905 1
2906 13
2907 13
2908 19
2909 19
2910 8
2911 1
2912 7
2913 6
2914 7
2915 0
2916 7
2917 3
2918 9
2919 6
2920 9
2921 7
2922 1
2923 9
2924 25
2925 0
2926 2
2927 0
2928 9
2929 4
2930 3
2931 24
2932 2
2933 7
2934 7
2935 21
2936 7
2937 7
2938 7
2939 15
2940 15
2941 19
2942 7
2943 3
2944 7
2945 2
2946 6
2947 7
2948 19
2949 7
2950 3
2951 0
2952 21
2953 2
2954 7
2955 7
2956 0
2957 0
2958 2
2959 4
2960 6
2961 24
2962 18
2963 6
2964 4
2965 0
2966 1
2967 12
2968 4
2969 13
2970 7
2971 7
2972 6
2973 4
2974 2
2975 5
2976 27
2977 4
2978 16
2979 27
2980 9
2981 8
2982 6
2983 0
2984 2
2985 0
2986 7
2987 8
2988 9
2989 16
2990 0
2991 7
2992 8
2993 9
2994 15
2995 0
2996 0
2997 0
2998 0
2999 2
3000 3
3001 6
3002 3
3003 0
3004 7
3005 4
3006 3
3007 10
3008 9
3009 4
3010 4
3011 4
3012 8
3013 4
3014 1
3015 7
3016 6
3017 19
3018 7
3019 4
3020 2
3021 1
3022 4
3023 0
3024 6
3025 11
3026 3
3027 8
3028 0
3029 6
3030 4
3031 0
3032 21
3033 7
3034 7
3035 7
3036 10
3037 1
3038 19
3039 8
3040 9
3041 8
3042 7
3043 9
3044 6
3045 8
3046 6
3047 9
3048 15
3049 7
3050 9
3051 15
3052 2
3053 7
3054 6
3055 9
3056 0
3057 1
3058 1
3059 0
3060 0
3061 7
3062 4
3063 7
3064 15
3065 6
3066 4
3067 2
3068 7
3069 4
3070 3
3071 7
3072 9
3073 3
3074 7
3075 2
3076 7
3077 0
3078 9
3079 15
3080 8
3081 3
3082 3
3083 0
3084 6
3085 3
3086 7
3087 7
3088 15
3089 4
3090 0
3091 15
3092 2
3093 13
3094 3
3095 19
3096 2
3097 2
3098 0
3099 3
3100 7
3101 4
3102 8
3103 6
3104 0
3105 13
3106 4
3107 0
3108 14
3109 3
3110 3
3111 13
3112 25
3113 8
3114 13
3115 3
3116 20
3117 8
3118 0
3119 7
3120 8
3121 24
3122 1
3123 7
3124 0
3125 12
3126 3
3127 20
3128 7
3129 4
3130 15
3131 11
3132 6
3133 15
3134 20
3135 16
3136 2
3137 9
3138 14
3139 3
3140 10
3141 0
3142 5
3143 16
3144 3
3145 7
3146 7
3147 1
3148 0
3149 19
3150 0
3151 0
3152 4
3153 1
3154 0
3155 0
3156 19
3157 6
3158 9
3159 15
3160 1
3161 1
3162 13
3163 9
3164 9
3165 3
3166 0
3167 3
3168 2
3169 9
3170 6
3171 4
3172 9
3173 12
3174 7
3175 0
3176 7
3177 2
3178 8
3179 3
3180 7
3181 4
3182 9
3183 1
3184 3
3185 13
3186 4
3187 7
3188 7
3189 10
3190 3
3191 15
3192 7
3193 6
3194 15
3195 9
3196 7
3197 6
3198 1
3199 2
3200 9
3201 7
3202 4
3203 3
3204 7
3205 22
3206 7
3207 7
3208 7
3209 7
3210 7
3211 28
3212 15
3213 7
3214 3
3215 0
3216 15
3217 9
3218 8
3219 7
3220 3
3221 0
3222 7
3223 3
3224 0
3225 7
3226 8
3227 18
3228 26
3229 15
3230 7
3231 0
3232 0
3233 4
3234 3
3235 6
3236 4
3237 7
3238 6
3239 7
3240 3
3241 0
3242 15
3243 12
3244 26
3245 27
3246 13
3247 24
3248 9
3249 3
3250 0
3251 3
3252 0
3253 3
3254 7
3255 9
3256 4
3257 3
3258 20
3259 27
3260 9
3261 2
3262 7
3263 0
3264 3
3265 12
3266 10
3267 21
3268 7
3269 6
3270 9
3271 3
3272 0
3273 9
3274 7
3275 11
3276 7
3277 0
3278 4
3279 7
3280 4
3281 0
3282 7
3283 7
3284 9
3285 0
3286 7
3287 6
3288 19
3289 7
3290 0
3291 20
3292 7
3293 5
3294 9
3295 4
3296 3
3297 8
3298 21
3299 13
3300 15
3301 16
3302 4
3303 0
3304 12
3305 1
3306 21
3307 1
3308 1
3309 30
3310 1
3311 7
3312 1
3313 4
3314 20
3315 6
3316 21
3317 1
3318 4
3319 7
3320 3
3321 24
3322 6
3323 2
3324 19
3325 13
3326 1
3327 7
3328 2
3329 12
3330 1
3331 9
3332 14
3333 0
3334 10
3335 7
3336 25
3337 18
3338 6
3339 1
3340 12
3341 19
3342 4
3343 1
3344 0
3345 19
3346 0
3347 2
3348 4
3349 10
3350 6
3351 8
3352 1
3353 4
3354 8
3355 7
3356 7
3357 18
3358 7
3359 6
3360 8
3361 13
3362 0
3363 0
3364 2
3365 24
3366 0
3367 7
3368 0
3369 7
3370 1
3371 25
3372 2
3373 5
3374 1
3375 19
3376 0
3377 3
3378 15
3379 27
3380 2
3381 0
3382 8
3383 3
3384 13
3385 7
3386 4
3387 7
3388 22
3389 16
3390 1
3391 0
3392 27
3393 12
3394 2
3395 8
3396 0
3397 13
3398 11
3399 9
3400 13
3401 6
3402 6
3403 1
3404 7
3405 7
3406 7
3407 7
3408 17
3409 7
3410 10
3411 27
3412 2
3413 3
3414 16
3415 0
3416 7
3417 29
3418 3
3419 24
3420 24
3421 0
3422 9
3423 9
3424 13
3425 7
3426 7
3427 2
3428 4
3429 6
3430 3
3431 4
3432 2
3433 3
3434 8
3435 7
3436 4
3437 2
3438 8
3439 7
3440 4
3441 12
3442 7
3443 25
3444 3
3445 7
3446 4
3447 0
3448 9
3449 16
3450 0
3451 5
3452 7
3453 7
3454 11
3455 0
3456 13
3457 16
3458 4
3459 26
3460 2
3461 7
3462 9
3463 2
3464 4
3465 7
3466 0
3467 6
3468 4
3469 9
3470 7
3471 7
3472 1
3473 6
3474 12
3475 4
3476 2
3477 1
3478 1
3479 7
3480 27
3481 26
3482 7
3483 23
3484 7
3485 20
3486 9
3487 0
3488 7
3489 21
3490 0
3491 7
3492 9
3493 7
3494 21
3495 3
3496 2
3497 24
3498 4
3499 27
3500 2
3501 6
3502 7
3503 16
3504 9
3505 3
3506 2
3507 2
3508 3
3509 7
3510 6
3511 1
3512 16
3513 12
3514 9
3515 7
3516 24
3517 3
3518 7
3519 24
3520 7
3521 3
3522 24
3523 6
3524 23
3525 3
3526 9
3527 9
3528 0
3529 7
3530 7
3531 1
3532 8
3533 8
3534 4
3535 2
3536 7
3537 7
3538 27
3539 15
3540 16
3541 2
3542 24
3543 20
3544 25
3545 27
3546 17
3547 7
3548 16
3549 0
3550 20
3551 20
3552 20
3553 7
3554 2
3555 24
3556 3
3557 10
3558 16
3559 4
3560 3
3561 1
3562 0
3563 0
3564 7
3565 15
3566 6
3567 0
3568 4
3569 0
3570 24
3571 8
3572 12
3573 7
3574 0
3575 14
3576 6
3577 12
3578 1
3579 12
3580 9
3581 4
3582 12
3583 14
3584 4
3585 1
3586 0
3587 6
3588 1
3589 8
3590 25
3591 14
3592 1
3593 7
3594 2
3595 25
3596 4
3597 6
3598 1
3599 7
3600 3
3601 7
3602 7
3603 1
3604 0
3605 9
3606 16
3607 19
3608 4
3609 8
3610 15
3611 7
3612 7
3613 8
3614 15
3615 7
3616 13
3617 19
3618 9
3619 19
3620 6
3621 7
3622 13
3623 7
3624 0
3625 1
3626 6
3627 19
3628 7
3629 4
3630 1
3631 4
3632 2
3633 4
3634 0
3635 19
3636 7
3637 4
3638 7
3639 19
3640 1
3641 9
3642 9
3643 13
3644 3
3645 7
3646 4
3647 15
3648 3
3649 4
3650 13
3651 2
3652 5
3653 9
3654 2
3655 9
3656 7
3657 27
3658 6
3659 3
3660 2
3661 7
3662 1
3663 28
3664 19
3665 21
3666 1
3667 7
3668 0
3669 13
3670 9
3671 19
3672 7
3673 2
3674 7
3675 13
3676 7
3677 2
3678 4
3679 21
3680 3
3681 12
3682 6
3683 13
3684 0
3685 7
3686 1
3687 1
3688 7
3689 4
3690 6
3691 4
3692 3
3693 11
3694 4
3695 0
3696 7
3697 16
3698 4
3699 0
3700 22
3701 4
3702 7
3703 0
3704 7
3705 21
3706 3
3707 6
3708 7
3709 16
3710 6
3711 2
3712 6
3713 2
3714 6
3715 7
3716 0
3717 29
3718 7
3719 2
3720 3
3721 7
3722 0
3723 7
3724 23
3725 4
3726 6
3727 9
3728 6
3729 1
3730 6
3731 7
3732 7
3733 9
3734 21
3735 3
3736 6
3737 3
3738 4
3739 0
3740 0
3741 7
3742 7
3743 4
3744 21
3745 9
3746 27
3747 4
3748 7
3749 12
3750 21
3751 7
3752 3
3753 8
3754 7
3755 7
3756 6
3757 20
3758 0
3759 7
3760 13
3761 20
3762 1
3763 0
3764 4
3765 1
3766 0
3767 3
3768 6
3769 2
3770 3
3771 0
3772 6
3773 9
3774 18
3775 7
3776 12
3777 4
3778 3
3779 0
3780 13
3781 13
3782 8
3783 3
3784 7
3785 0
3786 1
3787 1
3788 7
3789 2
3790 7
3791 15
3792 16
3793 27
3794 6
3795 27
3796 2
3797 3
3798 6
3799 7
3800 6
3801 15
3802 4
3803 22
3804 15
3805 7
3806 8
3807 5
3808 3
3809 8
3810 21
3811 19
3812 0
3813 12
3814 1
3815 3
3816 8
3817 7
3818 4
3819 6
3820 6
3821 2
3822 13
3823 0
3824 1
3825 0
3826 7
3827 3
3828 8
3829 3
3830 9
3831 9
3832 7
3833 1
3834 15
3835 3
3836 12
3837 4
3838 6
3839 4
3840 7
3841 6
3842 7
3843 3
3844 4
3845 16
3846 7
3847 1
3848 6
3849 27
3850 4
3851 13
3852 0
3853 6
3854 1
3855 13
3856 13
3857 1
3858 3
3859 13
3860 0
3861 3
3862 19
3863 7
3864 19
3865 1
3866 7
3867 3
3868 7
3869 7
3870 4
3871 1
3872 7
3873 0
3874 13
3875 18
3876 4
3877 7
3878 15
3879 1
3880 0
3881 7
3882 3
3883 14
3884 3
3885 3
3886 7
3887 24
3888 6
3889 1
3890 3
3891 12
3892 9
3893 9
3894 6
3895 9
3896 0
3897 6
3898 9
3899 6
3900 4
3901 4
3902 7
3903 9
3904 2
3905 4
3906 1
3907 4
3908 0
3909 21
3910 7
3911 3
3912 4
3913 6
3914 3
3915 20
3916 8
3917 7
3918 7
3919 3
3920 2
3921 4
3922 15
3923 7
3924 21
3925 20
3926 1
3927 2
3928 2
3929 4
3930 6
3931 6
3932 6
3933 5
3934 7
3935 1
3936 4
3937 7
3938 15
3939 1
3940 7
3941 7
3942 10
3943 4
3944 4
3945 3
3946 1
3947 24
3948 6
3949 9
3950 6
3951 4
3952 5
3953 19
3954 7
3955 27
3956 0
3957 13
3958 7
3959 0
3960 7
3961 27
3962 4
3963 30
3964 2
3965 16
3966 7
3967 23
3968 9
3969 24
3970 6
3971 7
3972 24
3973 2
3974 1
3975 3
3976 7
3977 7
3978 4
3979 7
3980 0
3981 19
3982 4
3983 7
3984 0
3985 9
3986 7
3987 1
3988 6
3989 9
3990 4
3991 0
3992 10
3993 0
3994 3
3995 7
3996 7
3997 6
3998 13
3999 1
4000 4
4001 10
4002 7
4003 0
4004 20
4005 20
4006 0
4007 24
4008 13
4009 4
4010 6
4011 7
4012 9
4013 7
4014 0
4015 7
4016 4
4017 19
4018 15
4019 0
4020 1
4021 4
4022 0
4023 7
4024 4
4025 2
4026 0
4027 7
4028 18
4029 2
4030 2
4031 7
4032 7
4033 4
4034 0
4035 2
4036 19
4037 3
4038 7
4039 6
4040 3
4041 1
4042 7
4043 7
4044 4
4045 0
4046 2
4047 0
4048 7
4049 7
4050 7
4051 20
4052 7
4053 0
4054 3
4055 4
4056 7
4057 3
4058 4
4059 19
4060 0
4061 3
4062 6
4063 20
4064 7
4065 21
4066 4
4067 17
4068 1
4069 3
4070 9
4071 4
4072 2
4073 0
4074 5
4075 9
4076 9
4077 12
4078 3
4079 10
4080 5
4081 4
4082 3
4083 7
4084 8
4085 6
4086 6
4087 4
4088 2
4089 1
4090 25
4091 4
4092 13
4093 4
4094 4
4095 11
4096 1
4097 4
4098 4
4099 7
4100 7
4101 13
4102 7
4103 7
4104 4
4105 2
4106 27
4107 2
4108 1
4109 0
4110 0
4111 4
4112 19
4113 25
4114 6
4115 1
4116 27
4117 2
4118 4
4119 2
4120 10
4121 4
4122 9
4123 25
4124 2
4125 3
4126 2
4127 9
4128 0
4129 4
4130 7
4131 15
4132 1
4133 7
4134 12
4135 2
4136 2
4137 7
4138 8
4139 0
4140 2
4141 24
4142 0
4143 2
4144 0
4145 2
4146 7
4147 12
4148 25
4149 8
4150 12
4151 9
4152 0
4153 4
4154 5
4155 7
4156 29
4157 4
4158 9
4159 7
4160 9
4161 7
4162 14
4163 4
4164 19
4165 1
4166 5
4167 0
4168 22
4169 0
4170 11
4171 9
4172 1
4173 7
4174 19
4175 7
4176 22
4177 13
4178 19
4179 22
4180 7
4181 0
4182 2
4183 7
4184 11
4185 7
4186 23
4187 4
4188 15
4189 2
4190 0
4191 15
4192 8
4193 0
4194 2
4195 0
4196 0
4197 13
4198 6
4199 0
4200 26
4201 13
4202 1
4203 3
4204 0
4205 6
4206 4
4207 1
4208 2
4209 9
4210 13
4211 15
4212 20
4213 8
4214 0
4215 25
4216 1
4217 13
4218 6
4219 8
4220 7
4221 0
4222 4
4223 4
4224 15
4225 7
4226 4
4227 4
4228 3
4229 14
4230 2
4231 13
4232 27
4233 5
4234 19
4235 21
4236 3
4237 19
4238 9
4239 2
4240 27
4241 18
4242 1
4243 13
4244 9
4245 4
4246 21
4247 8
4248 7
4249 7
4250 0
4251 9
4252 2
4253 3
4254 8
4255 7
4256 6
4257 8
4258 3
4259 7
4260 20
4261 0
4262 6
4263 17
4264 3
4265 0
4266 5
4267 19
4268 20
4269 7
4270 11
4271 12
4272 7
4273 1
4274 0
4275 0
4276 15
4277 9
4278 19
4279 6
4280 9
4281 0
4282 17
4283 9
4284 6
4285 12
4286 20
4287 12
4288 23
4289 30
4290 0
4291 2
4292 15
4293 3
4294 3
4295 4
4296 0
4297 7
4298 16
4299 6
4300 14
4301 4
4302 19
4303 23
4304 3
4305 14
4306 2
4307 0
4308 10
4309 0
4310 7
4311 13
4312 8
4313 7
4314 8
4315 0
4316 14
4317 6
4318 2
4319 10
4320 7
4321 4
4322 4
4323 6
4324 19
4325 13
4326 27
4327 24
4328 0
4329 20
4330 4
4331 19
4332 25
4333 7
4334 4
4335 6
4336 9
4337 9
4338 0
4339 4
4340 4
4341 1
4342 2
4343 7
4344 9
4345 0
4346 14
4347 8
4348 12
4349 2
4350 3
4351 0
4352 15
4353 7
4354 7
4355 0
4356 19
4357 11
4358 0
4359 14
4360 1
4361 3
4362 13
4363 7
4364 19
4365 7
4366 1
4367 10
4368 1
4369 9
4370 10
4371 13
4372 7
4373 7
4374 0
4375 3
4376 9
4377 15
4378 7
4379 7
4380 12
4381 3
4382 1
4383 0
4384 1
4385 4
4386 9
4387 3
4388 2
4389 9
4390 13
4391 1
4392 9
4393 0
4394 14
4395 1
4396 7
4397 19
4398 6
4399 6
4400 23
4401 19
4402 29
4403 7
4404 20
4405 4
4406 3
4407 3
4408 0
4409 2
4410 1
4411 7
4412 7
4413 26
4414 7
4415 0
4416 13
4417 3
4418 7
4419 7
4420 1
4421 4
4422 2
4423 2
4424 2
4425 4
4426 4
4427 2
4428 6
4429 0
4430 17
4431 18
4432 8
4433 25
4434 4
4435 21
4436 13
4437 4
4438 9
4439 4
4440 13
4441 12
4442 4
4443 10
4444 21
4445 0
4446 2
4447 8
4448 5
4449 7
4450 3
4451 4
4452 1
4453 15
4454 4
4455 0
4456 7
4457 1
4458 7
4459 0
4460 8
4461 4
4462 1
4463 9
4464 9
4465 6
4466 15
4467 9
4468 7
4469 8
4470 2
4471 6
4472 7
4473 7
4474 0
4475 4
4476 8
4477 10
4478 6
4479 8
4480 18
4481 3
4482 4
4483 9
4484 21
4485 13
4486 2
4487 2
4488 24
4489 25
4490 19
4491 0
4492 3
4493 21
4494 9
4495 18
4496 13
4497 4
4498 7
4499 8
4500 9
4501 3
4502 9
4503 3
4504 16
4505 2
4506 4
4507 0
4508 4
4509 8
4510 13
4511 7
4512 24
4513 9
4514 6
4515 3
4516 3
4517 12
4518 6
4519 21
4520 4
4521 13
4522 0
4523 0
4524 9
4525 6
4526 6
4527 3
4528 7
4529 6
4530 0
4531 4
4532 2
4533 0
4534 6
4535 19
4536 9
4537 0
4538 21
4539 3
4540 1
4541 7
4542 16
4543 6
4544 3
4545 19
4546 0
4547 24
4548 1
4549 4
4550 3
4551 4
4552 9
4553 9
4554 7
4555 3
4556 16
4557 19
4558 15
4559 7
4560 1
4561 7
4562 7
4563 4
4564 4
4565 1
4566 7
4567 3
4568 12
4569 25
4570 0
4571 6
4572 7
4573 4
4574 14
4575 0
4576 5
4577 19
4578 15
4579 0
4580 13
4581 4
4582 0
4583 15
4584 0
4585 2
4586 19
4587 3
4588 7
4589 1
4590 3
4591 3
4592 7
4593 9
4594 0
4595 0
4596 16
4597 13
4598 9
4599 4
4600 0
4601 6
4602 7
4603 1
4604 7
4605 0
4606 0
4607 3
4608 2
4609 0
4610 7
4611 22
4612 7
4613 9
4614 2
4615 0
4616 7
4617 3
4618 3
4619 6
4620 3
4621 6
4622 6
4623 1
4624 7
4625 12
4626 24
4627 7
4628 25
4629 0
4630 16
4631 9
4632 3
4633 6
4634 0
4635 6
4636 4
4637 7
4638 1
4639 1
4640 0
4641 24
4642 0
4643 5
4644 0
4645 3
4646 4
4647 8
4648 9
4649 2
4650 7
4651 7
4652 15
4653 6
4654 15
4655 25
4656 7
4657 7
4658 1
4659 16
4660 9
4661 7
4662 8
4663 0
4664 0
4665 19
4666 3
4667 8
4668 4
4669 10
4670 0
4671 5
4672 7
4673 0
4674 0
4675 3
4676 0
4677 0
4678 3
4679 7
4680 12
4681 4
4682 7
4683 7
4684 2
4685 3
4686 7
4687 4
4688 0
4689 7
4690 16
4691 7
4692 4
4693 7
4694 3
4695 4
4696 7
4697 6
4698 11
4699 0
4700 25
4701 4
4702 0
4703 0
4704 9
4705 4
4706 4
4707 7
4708 0
4709 4
4710 0
4711 6
4712 9
4713 3
4714 1
4715 0
4716 1
4717 2
4718 24
4719 15
4720 0
4721 23
4722 0
4723 0
4724 5
4725 9
4726 2
4727 1
4728 6
4729 0
4730 11
4731 6
4732 19
4733 0
4734 2
4735 7
4736 4
4737 4
4738 7
4739 18
4740 6
4741 19
4742 2
4743 4
4744 7
4745 6
4746 7
4747 6
4748 2
4749 4
4750 7
4751 8
4752 6
4753 9
4754 3
4755 7
4756 12
4757 21
4758 18
4759 0
4760 12
4761 4
4762 3
4763 6
4764 6
4765 4
4766 7
4767 1
4768 1
4769 6
4770 9
4771 0
4772 7
4773 9
4774 0
4775 16
4776 6
4777 7
4778 0
4779 4
4780 14
4781 7
4782 8
4783 0
4784 0
4785 13
4786 21
4787 4
4788 2
4789 7
4790 0
4791 4
4792 11
4793 0
4794 7
4795 24
4796 8
4797 0
4798 6
4799 9
4800 8
4801 1
4802 0
4803 9
4804 18
4805 0
4806 11
4807 4
4808 0
4809 19
4810 6
4811 13
4812 19
4813 7
4814 0
4815 7
4816 7
4817 9
4818 7
4819 4
4820 19
4821 4
4822 0
4823 4
4824 6
4825 6
4826 13
4827 24
4828 16
4829 5
4830 8
4831 27
4832 0
4833 1
4834 0
4835 3
4836 16
4837 19
4838 7
4839 12
4840 19
4841 14
4842 27
4843 23
4844 1
4845 7
4846 3
4847 9
4848 6
4849 12
4850 3
4851 1
4852 1
4853 0
4854 12
4855 7
4856 21
4857 6
4858 5
4859 7
4860 25
4861 4
4862 7
4863 9
4864 4
4865 1
4866 16
4867 7
4868 2
4869 4
4870 8
4871 3
4872 9
4873 4
4874 7
4875 0
4876 2
4877 0
4878 7
4879 1
4880 8
4881 23
4882 4
4883 3
4884 9
4885 6
4886 3
4887 4
4888 2
4889 7
4890 1
4891 9
4892 1
4893 7
4894 6
4895 20
4896 1
4897 3
4898 13
4899 3
4900 9
4901 7
4902 4
4903 7
4904 0
4905 1
4906 7
4907 0
4908 4
4909 7
4910 1
4911 6
4912 6
4913 7
4914 6
4915 11
4916 7
4917 3
4918 7
4919 7
4920 1
4921 7
4922 0
4923 3
4924 16
4925 5
4926 16
4927 0
4928 9
4929 7
4930 3
4931 12
4932 3
4933 9
4934 7
4935 3
4936 6
4937 7
4938 10
4939 19
4940 4
4941 8
4942 7
4943 24
4944 13
4945 6
4946 13
4947 22
4948 6
4949 18
4950 17
4951 9
4952 7
4953 7
4954 4
4955 9
4956 0
4957 21
4958 9
4959 0
4960 3
4961 6
4962 1
4963 8
4964 12
4965 0
4966 9
4967 7
4968 8
4969 19
4970 9
4971 18
4972 0
4973 1
4974 28
4975 9
4976 3
4977 16
4978 18
4979 9
4980 7
4981 4
4982 0
4983 0
4984 16
4985 12
4986 2
4987 6
4988 0
4989 19
4990 6
4991 3
4992 7
4993 27
4994 19
4995 3
4996 3
4997 9
4998 7
4999 0
5000 0
5001 7
5002 4
5003 7
5004 0
5005 20
5006 16
5007 1
5008 7
5009 4
5010 4
5011 0
5012 15
5013 7
5014 1
5015 0
5016 15
5017 4
5018 0
5019 9
5020 7
5021 4
5022 7
5023 2
5024 6
5025 24
5026 0
5027 7
5028 1
5029 0
5030 10
5031 0
5032 7
5033 0
5034 2
5035 2
5036 7
5037 9
5038 5
5039 0
5040 7
5041 1
5042 1
5043 1
5044 0
5045 12
5046 3
5047 7
5048 6
5049 4
5050 8
5051 7
5052 16
5053 3
5054 4
5055 7
5056 1
5057 0
5058 3
5059 16
5060 2
5061 9
5062 8
5063 4
5064 19
5065 19
5066 7
5067 8
5068 7
5069 1
5070 3
5071 7
5072 4
5073 0
5074 27
5075 6
5076 6
5077 7
5078 4
5079 26
5080 9
5081 24
5082 0
5083 7
5084 7
5085 0
5086 19
5087 20
5088 0
5089 7
5090 19
5091 3
5092 16
5093 2
5094 3
5095 6
5096 10
5097 0
5098 2
5099 9
5100 2
5101 19
5102 21
5103 1
5104 7
5105 7
5106 7
5107 7
5108 0
5109 1
5110 2
5111 9
5112 7
5113 0
5114 19
5115 19
5116 12
5117 9
5118 12
5119 6
5120 0
5121 3
5122 23
5123 10
5124 4
5125 21
5126 8
5127 13
5128 3
5129 10
5130 23
5131 7
5132 4
5133 2
5134 9
5135 1
5136 7
5137 0
5138 13
5139 1
5140 4
5141 6
5142 10
5143 9
5144 24
5145 0
5146 0
5147 13
5148 9
5149 7
5150 7
5151 7
5152 4
5153 7
5154 1
5155 21
5156 7
5157 8
5158 9
5159 21
5160 28
5161 6
5162 4
5163 12
5164 6
5165 27
5166 4
5167 30
5168 13
5169 16
5170 0
5171 19
5172 4
5173 4
5174 7
5175 2
5176 7
5177 13
5178 2
5179 4
5180 7
5181 7
5182 10
5183 2
5184 13
5185 7
5186 7
5187 4
5188 10
5189 15
5190 16
5191 0
5192 17
5193 15
5194 7
5195 4
5196 8
5197 1
5198 0
5199 4
5200 2
5201 3
5202 6
5203 0
5204 28
5205 3
5206 9
5207 14
5208 1
5209 0
5210 7
5211 7
5212 3
5213 7
5214 7
5215 8
5216 7
5217 8
5218 24
5219 6
5220 0
5221 15
5222 9
5223 2
5224 7
5225 1
5226 9
5227 4
5228 3
5229 24
5230 4
5231 15
5232 17
5233 24
5234 12
5235 25
5236 0
5237 4
5238 0
5239 7
5240 15
5241 1
5242 4
5243 0
5244 3
5245 8
5246 13
5247 7
5248 0
5249 6
5250 7
5251 4
5252 4
5253 3
5254 6
5255 30
5256 0
5257 8
5258 2
5259 10
5260 7
5261 0
5262 0
5263 7
5264 0
5265 4
5266 7
5267 15
5268 7
5269 4
5270 20
5271 7
5272 15
5273 4
5274 15
5275 1
5276 7
5277 9
5278 13
5279 4
5280 9
5281 4
5282 9
5283 5
5284 0
5285 0
5286 0
5287 2
5288 1
5289 6
5290 0
5291 24
5292 21
5293 4
5294 4
5295 1
5296 0
5297 4
5298 17
5299 5
5300 6
5301 20
5302 13
5303 12
5304 20
5305 7
5306 4
5307 21
5308 0
5309 0
5310 4
5311 4
5312 0
5313 3
5314 4
5315 9
5316 7
5317 8
5318 3
5319 7
5320 27
5321 9
5322 7
5323 0
5324 3
5325 12
5326 13
5327 3
5328 2
5329 0
5330 13
5331 12
5332 5
5333 9
5334 4
5335 3
5336 20
5337 0
5338 7
5339 1
5340 15
5341 2
5342 7
5343 12
5344 9
5345 6
5346 13
5347 2
5348 1
5349 4
5350 9
5351 19
5352 20
5353 7
5354 8
5355 0
5356 2
5357 7
5358 10
5359 1
5360 15
5361 16
5362 27
5363 4
5364 19
5365 7
5366 19
5367 15
5368 22
5369 9
5370 3
5371 0
5372 12
5373 0
5374 9
5375 2
5376 7
5377 0
5378 2
5379 7
5380 0
5381 7
5382 16
5383 23
5384 0
5385 7
5386 0
5387 0
5388 4
5389 4
5390 19
5391 1
5392 9
5393 6
5394 4
5395 9
5396 19
5397 15
5398 7
5399 3
5400 8
5401 1
5402 24
5403 0
5404 3
5405 7
5406 0
5407 7
5408 1
5409 2
5410 3
5411 7
5412 13
5413 4
5414 2
5415 0
5416 6
5417 4
5418 23
5419 18
5420 1
5421 8
5422 0
5423 3
5424 4
5425 6
5426 0
5427 11
5428 0
5429 7
5430 0
5431 15
5432 10
5433 7
5434 1
5435 7
5436 7
5437 0
5438 4
5439 0
5440 4
5441 9
5442 12
5443 3
5444 2
5445 0
5446 19
5447 0
5448 0
5449 4
5450 4
5451 20
5452 0
5453 4
5454 9
5455 12
5456 12
5457 9
5458 6
5459 7
5460 6
5461 0
5462 16
5463 4
5464 9
5465 22
5466 7
5467 6
5468 7
5469 7
5470 7
5471 7
5472 7
5473 6
5474 7
5475 10
5476 1
5477 7
5478 7
5479 4
5480 7
5481 6
5482 7
5483 7
5484 4
5485 3
5486 9
5487 28
5488 7
5489 15
5490 12
5491 8
5492 25
5493 4
5494 9
5495 1
5496 1
5497 3
5498 19
5499 8
5500 0
5501 13
5502 8
5503 4
5504 7
5505 1
5506 7
5507 11
5508 0
5509 16
5510 7
5511 6
5512 7
5513 0
5514 19
5515 0
5516 9
5517 7
5518 1
5519 3
5520 19
5521 6
5522 9
5523 15
5524 7
5525 19
5526 6
5527 7
5528 5
5529 4
5530 2
5531 17
5532 4
5533 0
5534 2
5535 4
5536 3
5537 0
5538 12
5539 0
5540 7
5541 3
5542 1
5543 7
5544 0
5545 10
5546 6
5547 27
5548 7
5549 6
5550 0
5551 6
5552 22
5553 4
5554 8
5555 7
5556 3
5557 4
5558 6
5559 7
5560 2
5561 3
5562 4
5563 8
5564 3
5565 7
5566 0
5567 13
5568 4
5569 0
5570 2
5571 8
5572 0
5573 0
5574 2
5575 17
5576 1
5577 2
5578 4
5579 3
5580 8
5581 0
5582 20
5583 19
5584 0
5585 1
5586 0
5587 4
5588 15
5589 14
5590 4
5591 1
5592 4
5593 7
5594 7
5595 6
5596 23
5597 3
5598 25
5599 6
5600 7
5601 24
5602 1
5603 10
5604 11
5605 0
5606 0
5607 2
5608 19
5609 9
5610 6
5611 4
5612 3
5613 6
5614 6
5615 19
5616 0
5617 4
5618 0
5619 4
5620 2
5621 3
5622 6
5623 4
5624 2
5625 3
5626 1
5627 13
5628 25
5629 3
5630 19
5631 16
5632 16
5633 16
5634 9
5635 19
5636 0
5637 14
5638 15
5639 3
5640 4
5641 0
5642 20
5643 6
5644 11
5645 0
5646 4
5647 5
5648 9
5649 3
5650 15
5651 7
5652 11
5653 7
5654 3
5655 18
5656 7
5657 7
5658 20
5659 4
5660 13
5661 7
5662 7
5663 19
5664 4
5665 9
5666 12
5667 6
5668 2
5669 9
5670 10
5671 2
5672 0
5673 2
5674 0
5675 20
5676 9
5677 0
5678 0
5679 6
5680 15
5681 7
5682 28
5683 1
5684 7
5685 7
5686 3
5687 0
5688 6
5689 2
5690 7
5691 7
5692 27
5693 6
5694 7
5695 0
5696 4
5697 0
5698 7
5699 7
5700 16
5701 4
5702 0
5703 0
5704 7
5705 12
5706 3
5707 24
5708 3
5709 7
5710 8
5711 20
5712 0
5713 13
5714 6
5715 9
5716 15
5717 19
5718 7
5719 19
5720 3
5721 16
5722 8
5723 23
5724 6
5725 15
5726 6
5727 29
5728 6
5729 8
5730 4
5731 7
5732 1
5733 7
5734 7
5735 26
5736 21
5737 14
5738 0
5739 6
5740 4
5741 7
5742 0
5743 16
5744 4
5745 0
5746 0
5747 16
5748 8
5749 0
5750 7
5751 6
5752 2
5753 2
5754 7
5755 0
5756 12
5757 15
5758 27
5759 12
5760 27
5761 9
5762 7
5763 4
5764 13
5765 13
5766 3
5767 7
5768 7
5769 3
5770 14
5771 10
5772 9
5773 7
5774 18
5775 7
5776 2
5777 19
5778 0
5779 6
5780 9
5781 0
5782 21
5783 6
5784 13
5785 13
5786 7
5787 9
5788 6
5789 1
5790 4
5791 7
5792 13
5793 0
5794 7
5795 9
5796 4
5797 1
5798 6
5799 3
5800 21
5801 7
5802 4
5803 0
5804 1
5805 7
5806 0
5807 27
5808 0
5809 1
5810 6
5811 5
5812 16
5813 4
5814 3
5815 16
5816 29
5817 1
5818 15
5819 0
5820 7
5821 7
5822 0
5823 10
5824 1
5825 1
5826 7
5827 1
5828 4
5829 3
5830 10
5831 15
5832 24
5833 20
5834 16
5835 19
5836 12
5837 18
5838 11
5839 0
5840 0
5841 4
5842 18
5843 3
5844 4
5845 13
5846 10
5847 7
5848 3
5849 4
5850 13
5851 19
5852 3
5853 2
5854 9
5855 0
5856 3
5857 0
5858 3
5859 27
5860 6
5861 7
5862 3
5863 12
5864 0
5865 20
5866 21
5867 12
5868 7
5869 7
5870 7
5871 24
5872 7
5873 0
5874 3
5875 0
5876 3
5877 3
5878 20
5879 7
5880 7
5881 10
5882 13
5883 0
5884 3
5885 0
5886 7
5887 7
5888 0
5889 0
5890 6
5891 2
5892 19
5893 20
5894 18
5895 7
5896 8
5897 21
5898 2
5899 7
5900 7
5901 4
5902 1
5903 0
5904 13
5905 0
5906 3
5907 7
5908 7
5909 1
5910 3
5911 7
5912 7
5913 4
5914 4
5915 6
5916 0
5917 0
5918 1
5919 7
5920 6
5921 4
5922 0
5923 3
5924 13
5925 0
5926 15
5927 3
5928 2
5929 1
5930 16
5931 4
5932 2
5933 3
5934 7
5935 15
5936 7
5937 6
5938 0
5939 4
5940 3
5941 6
5942 11
5943 7
5944 2
5945 6
5946 0
5947 3
5948 0
5949 7
5950 7
5951 15
5952 3
5953 0
5954 11
5955 13
5956 0
5957 6
5958 27
5959 12
5960 4
5961 3
5962 3
5963 10
5964 21
5965 2
5966 7
5967 0
5968 0
5969 4
5970 7
5971 9
5972 3
5973 0
5974 6
5975 7
5976 27
5977 4
5978 9
5979 6
5980 4
5981 6
5982 12
5983 6
5984 3
5985 7
5986 4
5987 7
5988 3
5989 4
5990 0
5991 0
5992 1
5993 28
5994 0
5995 27
5996 7
5997 13
5998 18
5999 19
6000 7
6001 4
6002 6
6003 0
6004 3
6005 0
6006 18
6007 3
6008 4
6009 5
6010 7
6011 4
6012 0
6013 12
6014 7
6015 1
6016 9
6017 7
6018 3
6019 9
6020 6
6021 6
6022 0
6023 2
6024 19
6025 3
6026 6
6027 7
6028 18
6029 12
6030 1
6031 12
6032 5
6033 3
6034 4
6035 0
6036 16
6037 19
6038 1
6039 8
6040 4
6041 3
6042 15
6043 1
6044 8
6045 7
6046 6
6047 7
6048 4
6049 27
6050 18
6051 7
6052 4
6053 21
6054 0
6055 9
6056 6
6057 5
6058 16
6059 7
6060 0
6061 16
6062 23
6063 0
6064 3
6065 3
6066 4
6067 9
6068 13
6069 20
6070 0
6071 3
6072 16
6073 7
6074 3
6075 0
6076 7
6077 0
6078 0
6079 9
6080 9
6081 0
6082 10
6083 6
6084 7
6085 4
6086 7
6087 24
6088 7
6089 20
6090 0
6091 1
6092 4
6093 7
6094 6
6095 9
6096 7
6097 7
6098 3
6099 2
6100 7
6101 0
6102 24
6103 1
6104 16
6105 27
6106 0
6107 4
6108 0
6109 4
6110 15
6111 7
6112 21
6113 0
6114 15
6115 15
6116 0
6117 19
6118 16
6119 0
6120 20
6121 7
6122 4
6123 14
6124 7
6125 3
6126 7
6127 24
6128 7
6129 4
6130 1
6131 3
6132 1
6133 3
6134 0
6135 24
6136 24
6137 25
6138 0
6139 6
6140 2
6141 6
6142 2
6143 7
6144 11
6145 3
6146 2
6147 4
6148 15
6149 7
6150 2
6151 16
6152 9
6153 3
6154 1
6155 25
6156 3
6157 4
6158 15
6159 20
6160 7
6161 8
6162 9
6163 7
6164 9
6165 6
6166 4
6167 4
6168 3
6169 0
6170 0
6171 7
6172 13
6173 20
6174 25
6175 7
6176 12
6177 0
6178 6
6179 7
6180 0
6181 3
6182 3
6183 9
6184 1
6185 2
6186 13
6187 0
6188 27
6189 6
6190 4
6191 8
6192 15
6193 12
6194 15
6195 0
6196 12
6197 3
6198 2
6199 1
6200 7
6201 0
6202 4
6203 2
6204 7
6205 14
6206 6
6207 1
6208 30
6209 7
6210 1
6211 3
6212 6
6213 0
6214 13
6215 3
6216 3
6217 15
6218 4
6219 16
6220 22
6221 2
6222 2
6223 0
6224 15
6225 7
6226 7
6227 4
6228 9
6229 7
6230 6
6231 20
6232 4
6233 7
6234 4
6235 0
6236 28
6237 7
6238 3
6239 3
6240 9
6241 4
6242 0
6243 3
6244 6
6245 7
6246 7
6247 8
6248 5
6249 1
6250 0
6251 13
6252 0
6253 1
6254 2
6255 16
6256 0
6257 8
6258 1
6259 13
6260 8
6261 4
6262 0
6263 1
6264 3
6265 19
6266 24
6267 5
6268 1
6269 2
6270 1
6271 1
6272 0
6273 7
6274 4
6275 5
6276 0
6277 4
6278 1
6279 0
6280 2
6281 13
6282 7
6283 19
6284 7
6285 3
6286 2
6287 20
6288 19
6289 19
6290 15
6291 4
6292 7
6293 3
6294 0
6295 23
6296 19
6297 5
6298 4
6299 7
6300 9
6301 4
6302 8
6303 26
6304 9
6305 2
6306 7
6307 9
6308 1
6309 15
6310 0
6311 20
6312 3
6313 8
6314 7
6315 2
6316 7
6317 0
6318 19
6319 24
6320 9
6321 5
6322 4
6323 2
6324 6
6325 6
6326 0
6327 16
6328 0
6329 20
6330 13
6331 0
6332 1
6333 4
6334 15
6335 0
6336 21
6337 24
6338 22
6339 6
6340 1
6341 4
6342 13
6343 3
6344 24
6345 9
6346 4
6347 6
6348 7
6349 19
6350 0
6351 2
6352 27
6353 1
6354 8
6355 3
6356 16
6357 25
6358 7
6359 9
6360 6
6361 7
6362 20
6363 6
6364 0
6365 1
6366 5
6367 3
6368 19
6369 2
6370 21
6371 27
6372 7
6373 10
6374 4
6375 13
6376 7
6377 5
6378 0
6379 7
6380 23
6381 3
6382 15
6383 12
6384 6
6385 19
6386 9
6387 7
6388 7
6389 12
6390 24
6391 19
6392 3
6393 0
6394 3
6395 6
6396 8
6397 0
6398 3
6399 16
6400 6
6401 0
6402 13
6403 21
6404 6
6405 4
6406 27
6407 0
6408 16
6409 8
6410 3
6411 4
6412 4
6413 6
6414 9
6415 4
6416 7
6417 7
6418 14
6419 12
6420 4
6421 0
6422 7
6423 4
6424 3
6425 15
6426 21
6427 15
6428 6
6429 19
6430 0
6431 6
6432 7
6433 6
6434 9
6435 1
6436 5
6437 1
6438 9
6439 4
6440 2
6441 0
6442 4
6443 3
6444 8
6445 4
6446 0
6447 7
6448 3
6449 18
6450 24
6451 13
6452 3
6453 4
6454 27
6455 24
6456 7
6457 21
6458 22
6459 7
6460 2
6461 4
6462 0
6463 13
6464 0
6465 4
6466 21
6467 7
6468 7
6469 7
6470 16
6471 18
6472 7
6473 16
6474 3
6475 2
6476 1
6477 7
6478 12
6479 13
6480 19
6481 4
6482 1
6483 15
6484 6
6485 4
6486 7
6487 7
6488 8
6489 29
6490 0
6491 4
6492 7
6493 9
6494 2
6495 20
6496 2
6497 0
6498 0
6499 7
6500 3
6501 3
6502 8
6503 7
6504 11
6505 0
6506 2
6507 3
6508 0
6509 4
6510 0
6511 19
6512 0
6513 13
6514 6
6515 0
6516 1
6517 16
6518 1
6519 12
6520 2
6521 7
6522 2
6523 7
6524 7
6525 3
6526 7
6527 8
6528 10
6529 19
6530 0
6531 0
6532 7
6533 4
6534 6
6535 0
6536 21
6537 13
6538 8
6539 3
6540 4
6541 3
6542 7
6543 0
6544 3
6545 7
6546 2
6547 6
6548 0
6549 12
6550 0
6551 8
6552 0
6553 0
6554 7
6555 0
6556 16
6557 9
6558 9
6559 3
6560 4
6561 7
6562 1
6563 0
6564 27
6565 4
6566 0
6567 13
6568 24
6569 4
6570 21
6571 7
6572 4
6573 3
6574 7
6575 0
6576 16
6577 8
6578 29
6579 0
6580 9
6581 0
6582 1
6583 13
6584 6
6585 7
6586 29
6587 0
6588 9
6589 21
6590 3
6591 7
6592 1
6593 2
6594 20
6595 19
6596 4
6597 13
6598 10
6599 6
6600 4
6601 3
6602 19
6603 9
6604 3
6605 1
6606 4
6607 7
6608 28
6609 7
6610 18
6611 9
6612 3
6613 4
6614 6
6615 7
6616 4
6617 8
6618 2
6619 12
6620 10
6621 1
6622 7
6623 7
6624 8
6625 6
6626 16
6627 3
6628 3
6629 3
6630 4
6631 0
6632 0
6633 7
6634 10
6635 15
6636 6
6637 4
6638 4
6639 3
6640 3
6641 7
6642 5
6643 3
6644 22
6645 10
6646 0
6647 20
6648 16
6649 15
6650 0
6651 3
6652 13
6653 15
6654 2
6655 7
6656 7
6657 4
6658 7
6659 12
6660 2
6661 3
6662 3
6663 13
6664 1
6665 12
6666 7
6667 8
6668 20
6669 10
6670 24
6671 23
6672 1
6673 6
6674 7
6675 4
6676 24
6677 0
6678 2
6679 7
6680 6
6681 7
6682 2
6683 0
6684 7
6685 5
6686 4
6687 9
6688 7
6689 23
6690 0
6691 20
6692 9
6693 4
6694 19
6695 7
6696 2
6697 0
6698 9
6699 19
6700 7
6701 1
6702 23
6703 4
6704 4
6705 8
6706 6
6707 3
6708 8
6709 7
6710 6
6711 8
6712 6
6713 1
6714 23
6715 3
6716 8
6717 4
6718 2
6719 16
6720 0
6721 18
6722 3
6723 15
6724 9
6725 4
6726 0
6727 7
6728 30
6729 20
6730 6
6731 12
6732 19
6733 2
6734 2
6735 1
6736 4
6737 4
6738 0
6739 21
6740 2
6741 4
6742 1
6743 4
6744 16
6745 6
6746 13
6747 6
6748 6
6749 6
6750 9
6751 5
6752 7
6753 0
6754 20
6755 0
6756 3
6757 4
6758 7
6759 9
6760 7
6761 8
6762 7
6763 19
6764 1
6765 2
6766 6
6767 7
6768 6
6769 7
6770 7
6771 15
6772 8
6773 2
6774 4
6775 5
6776 7
6777 4
6778 9
6779 13
6780 21
6781 7
6782 8
6783 16
6784 7
6785 7
6786 19
6787 6
6788 0
6789 3
6790 7
6791 7
6792 24
6793 19
6794 4
6795 1
6796 23
6797 0
6798 2
6799 23
6800 12
6801 6
6802 23
6803 21
6804 5
6805 7
6806 10
6807 4
6808 6
6809 8
6810 3
6811 0
6812 7
6813 0
6814 9
6815 9
6816 0
6817 15
6818 27
6819 0
6820 7
6821 1
6822 4
6823 0
6824 9
6825 20
6826 21
6827 3
6828 15
6829 9
6830 3
6831 7
6832 27
6833 0
6834 7
6835 8
6836 4
6837 6
6838 1
6839 7
6840 9
6841 4
6842 0
6843 3
6844 10
6845 3
6846 4
6847 7
6848 12
6849 7
6850 9
6851 1
6852 7
6853 4
6854 1
6855 4
6856 7
6857 4
6858 9
6859 28
6860 7
6861 6
6862 0
6863 7
6864 9
6865 3
6866 1
6867 19
6868 7
6869 19
6870 7
6871 9
6872 19
6873 2
6874 8
6875 6
6876 6
6877 7
6878 7
6879 6
6880 0
6881 7
6882 4
6883 19
6884 3
6885 4
6886 5
6887 6
6888 15
6889 7
6890 13
6891 18
6892 0
6893 9
6894 7
6895 7
6896 3
6897 0
6898 29
6899 12
6900 18
6901 0
6902 3
6903 6
6904 9
6905 21
6906 27
6907 10
6908 6
6909 7
6910 15
6911 2
6912 4
6913 24
6914 4
6915 4
6916 14
6917 6
6918 4
6919 6
6920 3
6921 2
6922 3
6923 0
6924 23
6925 6
6926 0
6927 0
6928 6
6929 7
6930 6
6931 3
6932 7
6933 0
6934 19
6935 0
6936 1
6937 2
6938 0
6939 7
6940 8
6941 0
6942 23
6943 7
6944 2
6945 3
6946 0
6947 6
6948 10
6949 6
6950 7
6951 0
6952 7
6953 3
6954 6
6955 4
6956 2
6957 0
6958 24
6959 3
6960 14
6961 7
6962 1
6963 4
6964 0
6965 19
6966 6
6967 3
6968 7
6969 2
6970 4
6971 9
6972 9
6973 4
6974 3
6975 2
6976 0
6977 16
6978 2
6979 2
6980 0
6981 0
6982 3
6983 7
6984 12
6985 0
6986 6
6987 18
6988 2
6989 7
6990 7
6991 4
6992 7
6993 3
6994 9
6995 19
6996 6
6997 0
6998 19
6999 4
7000 7
7001 4
7002 16
7003 24
7004 1
7005 2
7006 9
7007 3
7008 6
7009 3
7010 4
7011 4
7012 9
7013 0
7014 4
7015 3
7016 2
7017 6
7018 7
7019 19
7020 20
7021 12
7022 27
7023 4
7024 6
7025 1
7026 7
7027 9
7028 1
7029 7
7030 9
7031 6
7032 10
7033 6
7034 4
7035 0
7036 16
7037 24
7038 7
7039 7
7040 4
7041 9
7042 0
7043 0
7044 4
7045 7
7046 9
7047 3
7048 0
7049 4
7050 0
7051 7
7052 0
7053 27
7054 0
7055 3
7056 0
7057 7
7058 7
7059 15
7060 6
7061 4
7062 3
7063 15
7064 15
7065 4
7066 4
7067 0
7068 8
7069 0
7070 7
7071 12
7072 16
7073 0
7074 4
7075 21
7076 4
7077 1
7078 3
7079 6
7080 13
7081 6
7082 1
7083 3
7084 2
7085 2
7086 0
7087 19
7088 6
7089 7
7090 4
7091 3
7092 7
7093 15
7094 19
7095 6
7096 2
7097 6
7098 8
7099 6
7100 4
7101 6
7102 10
7103 6
7104 7
7105 3
7106 0
7107 0
7108 6
7109 9
7110 15
7111 7
7112 13
7113 3
7114 1
7115 12
7116 19
7117 0
7118 15
7119 9
7120 0
7121 16
7122 9
7123 7
7124 6
7125 4
7126 4
7127 20
7128 15
7129 1
7130 1
7131 9
7132 9
7133 3
7134 13
7135 3
7136 0
7137 9
7138 4
7139 3
7140 16
7141 7
7142 2
7143 2
7144 23
7145 6
7146 12
7147 24
7148 0
7149 16
7150 4
7151 15
7152 7
7153 0
7154 9
7155 2
7156 0
7157 7
7158 0
7159 19
7160 3
7161 7
7162 4
7163 22
7164 8
7165 2
7166 19
7167 13
7168 19
7169 0
7170 7
7171 20
7172 9
7173 12
7174 8
7175 0
7176 4
7177 3
7178 7
7179 3
7180 15
7181 0
7182 2
7183 1
7184 2
7185 2
7186 2
7187 8
7188 1
7189 1
7190 4
7191 15
7192 0
7193 9
7194 0
7195 7
7196 7
7197 0
7198 7
7199 3
7200 12
7201 7
7202 3
7203 1
7204 0
7205 4
7206 8
7207 12
7208 7
7209 23
7210 0
7211 4
7212 0
7213 13
7214 0
7215 7
7216 24
7217 2
7218 28
7219 2
7220 6
7221 20
7222 9
7223 1
7224 12
7225 7
7226 0
7227 0
7228 6
7229 3
7230 8
7231 0
7232 3
7233 9
7234 10
7235 4
7236 2
7237 8
7238 7
7239 6
7240 6
7241 6
7242 7
7243 6
7244 16
7245 23
7246 1
7247 7
7248 4
7249 0
7250 26
7251 18
7252 9
7253 0
7254 9
7255 1
7256 7
7257 7
7258 4
7259 6
7260 2
7261 19
7262 8
7263 23
7264 18
7265 4
7266 21
7267 16
7268 0
7269 15
7270 0
7271 8
7272 3
7273 5
7274 9
7275 0
7276 0
7277 1
7278 15
7279 24
7280 7
7281 22
7282 1
7283 9
7284 3
7285 19
7286 16
7287 2
7288 4
7289 0
7290 4
7291 3
7292 4
7293 6
7294 0
7295 2
7296 6
7297 0
7298 3
7299 0
7300 7
7301 12
7302 2
7303 0
7304 3
7305 4
7306 7
7307 16
7308 4
7309 7
7310 2
7311 8
7312 9
7313 3
7314 4
7315 13
7316 16
7317 15
7318 15
7319 4
7320 7
7321 12
7322 7
7323 7
7324 0
7325 2
7326 23
7327 2
7328 7
7329 9
7330 6
7331 15
7332 9
7333 2
7334 2
7335 3
7336 12
7337 15
7338 6
7339 13
7340 1
7341 9
7342 1
7343 7
7344 6
7345 19
7346 7
7347 6
7348 10
7349 2
7350 7
7351 1
7352 27
7353 17
7354 3
7355 0
7356 3
7357 7
7358 0
7359 15
7360 6
7361 0
7362 2
7363 4
7364 16
7365 2
7366 0
7367 1
7368 2
7369 24
7370 3
7371 6
7372 4
7373 1
7374 6
7375 20
7376 4
7377 4
7378 3
7379 7
7380 10
7381 3
7382 5
7383 11
7384 6
7385 10
7386 0
7387 2
7388 6
7389 7
7390 0
7391 9
7392 20
7393 9
7394 5
7395 0
7396 6
7397 19
7398 0
7399 0
7400 0
7401 1
7402 4
7403 7
7404 4
7405 4
7406 10
7407 13
7408 19
7409 16
7410 9
7411 0
7412 0
7413 5
7414 9
7415 23
7416 20
7417 2
7418 0
7419 0
7420 12
7421 0
7422 3
7423 8
7424 3
7425 1
7426 7
7427 16
7428 7
7429 7
7430 27
7431 22
7432 4
7433 1
7434 4
7435 4
7436 4
7437 1
7438 0
7439 4
7440 4
7441 15
7442 4
7443 0
7444 0
7445 7
7446 19
7447 7
7448 9
7449 3
7450 6
7451 3
7452 7
7453 7
7454 0
7455 13
7456 9
7457 5
7458 6
7459 4
7460 15
7461 2
7462 6
7463 2
7464 7
7465 0
7466 9
7467 30
7468 17
7469 7
7470 3
7471 3
7472 8
7473 16
7474 1
7475 3
7476 19
7477 8
7478 7
7479 13
7480 6
7481 7
7482 7
7483 7
7484 9
7485 0
7486 0
7487 1
7488 24
7489 23
7490 2
7491 6
7492 3
7493 9
7494 1
7495 1
7496 28
7497 7
7498 6
7499 19
7500 6
7501 7
7502 3
7503 7
7504 3
7505 9
7506 7
7507 6
7508 8
7509 7
7510 20
7511 13
7512 13
7513 10
7514 0
7515 5
7516 0
7517 0
7518 4
7519 0
7520 1
7521 4
7522 7
7523 13
7524 7
7525 7
7526 4
7527 10
7528 4
7529 12
7530 0
7531 1
7532 21
7533 28
7534 0
7535 4
7536 7
7537 1
7538 6
7539 20
7540 20
7541 1
7542 8
7543 3
7544 24
7545 15
7546 15
7547 2
7548 3
7549 0
7550 1
7551 4
7552 8
7553 3
7554 6
7555 23
7556 9
7557 16
7558 23
7559 1
7560 1
7561 7
7562 4
7563 9
7564 2
7565 15
7566 4
7567 16
7568 9
7569 2
7570 13
7571 3
7572 9
7573 6
7574 2
7575 1
7576 21
7577 9
7578 4
7579 9
7580 8
7581 7
7582 0
7583 7
7584 13
7585 4
7586 25
7587 9
7588 0
7589 3
7590 11
7591 8
7592 9
7593 2
7594 4
7595 1
7596 0
7597 9
7598 2
7599 1
7600 6
7601 1
7602 2
7603 18
7604 7
7605 6
7606 6
7607 13
7608 4
7609 6
7610 10
7611 1
7612 0
7613 27
7614 7
7615 9
7616 3
7617 9
7618 0
7619 27
7620 27
7621 3
7622 7
7623 0
7624 0
7625 19
7626 16
7627 0
7628 4
7629 4
7630 9
7631 9
7632 18
7633 9
7634 7
7635 0
7636 0
7637 7
7638 9
7639 7
7640 7
7641 8
7642 3
7643 5
7644 9
7645 9
7646 6
7647 10
7648 0
7649 1
7650 9
7651 18
7652 24
7653 9
7654 4
7655 3
7656 9
7657 16
7658 2
7659 3
7660 11
7661 4
7662 0
7663 4
7664 4
7665 4
7666 23
7667 4
7668 1
7669 5
7670 16
7671 4
7672 6
7673 7
7674 2
7675 3
7676 4
7677 18
7678 0
7679 0
7680 3
7681 3
7682 13
7683 1
7684 7
7685 2
7686 19
7687 0
7688 17
7689 1
7690 6
7691 21
7692 8
7693 2
7694 16
7695 6
7696 16
7697 6
7698 1
7699 13
7700 4
7701 0
7702 3
7703 7
7704 13
7705 29
7706 3
7707 7
7708 4
7709 7
7710 19
7711 2
7712 0
7713 3
7714 3
7715 4
7716 9
7717 0
7718 23
7719 2
7720 0
7721 3
7722 4
7723 11
7724 9
7725 2
7726 29
7727 16
7728 2
7729 3
7730 3
7731 3
7732 7
7733 17
7734 2
7735 7
7736 7
7737 3
7738 13
7739 9
7740 6
7741 23
7742 24
7743 15
7744 4
7745 4
7746 6
7747 12
7748 2
7749 1
7750 12
7751 19
7752 6
7753 7
7754 4
7755 7
7756 6
7757 23
7758 6
7759 0
7760 0
7761 9
7762 1
7763 4
7764 0
7765 4
7766 0
7767 3
7768 2
7769 7
7770 2
7771 7
7772 4
7773 7
7774 0
7775 3
7776 1
7777 13
7778 9
7779 6
7780 4
7781 0
7782 17
7783 7
7784 7
7785 6
7786 6
7787 3
7788 0
7789 7
7790 8
7791 0
7792 5
7793 16
7794 4
7795 7
7796 0
7797 0
7798 10
7799 4
7800 8
7801 3
7802 8
7803 20
7804 7
7805 7
7806 0
7807 3
7808 6
7809 0
7810 7
7811 3
7812 18
7813 3
7814 0
7815 0
7816 24
7817 6
7818 7
7819 6
7820 7
7821 4
7822 2
7823 0
7824 1
7825 0
7826 7
7827 16
7828 5
7829 12
7830 1
7831 19
7832 2
7833 1
7834 7
7835 0
7836 3
7837 3
7838 7
7839 0
7840 12
7841 7
7842 9
7843 7
7844 13
7845 0
7846 3
7847 16
7848 12
7849 6
7850 3
7851 1
7852 9
7853 21
7854 7
7855 7
7856 7
7857 6
7858 7
7859 6
7860 3
7861 19
7862 10
7863 13
7864 0
7865 8
7866 0
7867 3
7868 1
7869 7
7870 3
7871 9
7872 1
7873 0
7874 6
7875 7
7876 3
7877 7
7878 24
7879 1
7880 2
7881 9
7882 7
7883 8
7884 0
7885 0
7886 0
7887 3
7888 20
7889 1
7890 4
7891 6
7892 18
7893 2
7894 6
7895 2
7896 0
7897 7
7898 9
7899 0
7900 4
7901 6
7902 3
7903 9
7904 0
7905 13
7906 7
7907 7
7908 4
7909 0
7910 7
7911 7
7912 0
7913 7
7914 9
7915 0
7916 7
7917 4
7918 7
7919 6
7920 6
7921 7
7922 7
7923 6
7924 24
7925 16
7926 7
7927 3
7928 2
7929 1
7930 7
7931 2
7932 3
7933 6
7934 0
7935 19
7936 19
7937 16
7938 7
7939 3
7940 23
7941 4
7942 0
7943 1
7944 27
7945 3
7946 1
7947 7
7948 7
7949 4
7950 9
7951 7
7952 7
7953 13
7954 3
7955 0
7956 6
7957 6
7958 9
7959 10
7960 0
7961 2
7962 7
7963 16
7964 1
7965 2
7966 13
7967 0
7968 3
7969 24
7970 9
7971 15
7972 16
7973 0
7974 3
7975 3
7976 6
7977 23
7978 7
7979 2
7980 27
7981 30
7982 3
7983 27
7984 6
7985 4
7986 19
7987 7
7988 7
7989 7
7990 7
7991 7
7992 3
7993 4
7994 1
7995 13
7996 0
7997 7
7998 24
7999 4
8000 7
8001 7
8002 10
8003 3
8004 7
8005 4
8006 4
8007 19
8008 0
8009 7
8010 7
8011 16
8012 16
8013 6
8014 7
8015 3
8016 0
8017 12
8018 20
8019 9
8020 2
8021 7
8022 0
8023 9
8024 18
8025 14
8026 6
8027 7
8028 9
8029 19
8030 8
8031 7
8032 7
8033 2
8034 16
8035 9
8036 9
8037 0
8038 4
8039 7
8040 3
8041 5
8042 1
8043 19
8044 0
8045 0
8046 19
8047 9
8048 9
8049 3
8050 24
8051 6
8052 4
8053 1
8054 0
8055 3
8056 3
8057 0
8058 0
8059 7
8060 12
8061 1
8062 11
8063 4
8064 15
8065 2
8066 1
8067 4
8068 2
8069 3
8070 16
8071 6
8072 0
8073 6
8074 16
8075 19
8076 9
8077 7
8078 7
8079 6
8080 0
8081 4
8082 3
8083 1
8084 7
8085 3
8086 4
8087 0
8088 4
8089 7
8090 9
8091 6
8092 4
8093 2
8094 10
8095 19
8096 4
8097 12
8098 2
8099 7
8100 4
8101 1
8102 0
8103 1
8104 0
8105 7
8106 16
8107 0
8108 2
8109 6
8110 1
8111 12
8112 7
8113 9
8114 3
8115 0
8116 9
8117 3
8118 9
8119 15
8120 3
8121 6
8122 7
8123 0
8124 0
8125 7
8126 27
8127 12
8128 4
8129 24
8130 12
8131 7
8132 6
8133 3
8134 4
8135 7
8136 3
8137 7
8138 7
8139 9
8140 16
8141 9
8142 3
8143 3
8144 0
8145 0
8146 0
8147 21
8148 2
8149 5
8150 3
8151 7
8152 0
8153 3
8154 4
8155 6
8156 7
8157 4
8158 4
8159 0
8160 4
8161 7
8162 19
8163 13
8164 16
8165 0
8166 12
8167 8
8168 7
8169 6
8170 23
8171 27
8172 1
8173 0
8174 7
8175 0
8176 6
8177 1
8178 2
8179 7
8180 1
8181 9
8182 4
8183 1
8184 19
8185 24
8186 4
8187 3
8188 6
8189 0
8190 6
8191 11
8192 20
8193 3
8194 3
8195 2
8196 7
8197 9
8198 16
8199 7
8200 0
8201 7
8202 8
8203 7
8204 7
8205 12
8206 1
8207 7
8208 7
8209 9
8210 4
8211 3
8212 8
8213 10
8214 6
8215 3
8216 6
8217 10
8218 12
8219 6
8220 7
8221 9
8222 1
8223 19
8224 7
8225 1
8226 9
8227 3
8228 20
8229 15
8230 2
8231 12
8232 17
8233 2
8234 0
8235 7
8236 24
8237 1
8238 1
8239 3
8240 4
8241 12
8242 21
8243 9
8244 3
8245 8
8246 7
8247 9
8248 8
8249 9
8250 0
8251 30
8252 9
8253 0
8254 7
8255 22
8256 2
8257 20
8258 13
8259 24
8260 0
8261 2
8262 19
8263 7
8264 2
8265 6
8266 1
8267 6
8268 3
8269 6
8270 0
8271 6
8272 0
8273 1
8274 0
8275 20
8276 19
8277 0
8278 2
8279 1
8280 3
8281 24
8282 0
8283 7
8284 0
8285 2
8286 20
8287 16
8288 0
8289 1
8290 19
8291 1
8292 13
8293 4
8294 9
8295 1
8296 4
8297 4
8298 4
8299 7
8300 6
8301 0
8302 15
8303 25
8304 4
8305 3
8306 6
8307 4
8308 7
8309 6
8310 1
8311 0
8312 6
8313 8
8314 7
8315 18
8316 4
8317 18
8318 0
8319 2
8320 3
8321 7
8322 7
8323 19
8324 6
8325 18
8326 4
8327 24
8328 6
8329 15
8330 17
8331 4
8332 13
8333 25
8334 3
8335 7
8336 19
8337 16
8338 20
8339 1
8340 7
8341 4
8342 23
8343 7
8344 1
8345 7
8346 3
8347 24
8348 24
8349 9
8350 13
8351 3
8352 6
8353 9
8354 6
8355 2
8356 8
8357 2
8358 0
8359 1
8360 6
8361 0
8362 7
8363 15
8364 8
8365 3
8366 13
8367 4
8368 7
8369 4
8370 9
8371 7
8372 16
8373 0
8374 0
8375 7
8376 9
8377 13
8378 6
8379 1
8380 10
8381 27
8382 2
8383 19
8384 2
8385 9
8386 6
8387 24
8388 7
8389 0
8390 7
8391 7
8392 0
8393 9
8394 7
8395 21
8396 4
8397 6
8398 16
8399 0
8400 2
8401 19
8402 0
8403 9
8404 0
8405 7
8406 4
8407 7
8408 0
8409 16
8410 9
8411 26
8412 1
8413 2
8414 0
8415 29
8416 1
8417 3
8418 6
8419 15
8420 24
8421 9
8422 4
8423 4
8424 7
8425 3
8426 15
8427 9
8428 1
8429 4
8430 4
8431 23
8432 15
8433 12
8434 12
8435 6
8436 16
8437 2
8438 26
8439 2
8440 22
8441 1
8442 7
8443 7
8444 12
8445 9
8446 9
8447 10
8448 1
8449 13
8450 16
8451 3
8452 2
8453 2
8454 2
8455 9
8456 6
8457 14
8458 19
8459 7
8460 4
8461 9
8462 9
8463 7
8464 0
8465 15
8466 7
8467 5
8468 4
8469 7
8470 0
8471 6
8472 8
8473 4
8474 4
8475 19
8476 7
8477 2
8478 24
8479 4
8480 9
8481 7
8482 0
8483 0
8484 6
8485 6
8486 2
8487 6
8488 6
8489 15
8490 7
8491 4
8492 21
8493 7
8494 4
8495 24
8496 4
8497 0
8498 9
8499 0
8500 7
8501 4
8502 3
8503 12
8504 13
8505 2
8506 6
8507 18
8508 4
8509 7
8510 7
8511 24
8512 19
8513 1
8514 2
8515 15
8516 0
8517 7
8518 2
8519 7
8520 6
8521 10
8522 3
8523 1
8524 0
8525 0
8526 18
8527 6
8528 9
8529 1
8530 20
8531 0
8532 15
8533 10
8534 6
8535 19
8536 23
8537 13
8538 1
8539 2
8540 0
8541 19
8542 3
8543 6
8544 7
8545 1
8546 10
8547 0
8548 19
8549 7
8550 23
8551 7
8552 6
8553 0
8554 3
8555 2
8556 9
8557 8
8558 0
8559 9
8560 4
8561 12
8562 0
8563 7
8564 16
8565 0
8566 1
8567 7
8568 13
8569 4
8570 7
8571 9
8572 4
8573 7
8574 12
8575 0
8576 0
8577 1
8578 3
8579 1
8580 8
8581 7
8582 3
8583 7
8584 7
8585 9
8586 0
8587 19
8588 0
8589 1
8590 7
8591 24
8592 0
8593 3
8594 19
8595 2
8596 4
8597 7
8598 7
8599 7
8600 21
8601 4
8602 3
8603 7
8604 0
8605 18
8606 13
8607 6
8608 4
8609 13
8610 1
8611 7
8612 10
8613 1
8614 7
8615 4
8616 13
8617 4
8618 10
8619 5
8620 6
8621 7
8622 21
8623 4
8624 13
8625 13
8626 4
8627 5
8628 2
8629 14
8630 20
8631 20
8632 0
8633 30
8634 18
8635 0
8636 6
8637 2
8638 4
8639 1
8640 4
8641 9
8642 24
8643 0
8644 3
8645 9
8646 22
8647 2
8648 20
8649 7
8650 13
8651 15
8652 5
8653 20
8654 0
8655 12
8656 3
8657 7
8658 2
8659 3
8660 18
8661 7
8662 2
8663 18
8664 3
8665 9
8666 0
8667 8
8668 3
8669 14
8670 1
8671 7
8672 4
8673 13
8674 7
8675 1
8676 7
8677 7
8678 15
8679 4
8680 0
8681 3
8682 3
8683 2
8684 0
8685 4
8686 4
8687 1
8688 4
8689 7
8690 3
8691 26
8692 4
8693 18
8694 7
8695 7
8696 4
8697 7
8698 4
8699 0
8700 13
8701 4
8702 16
8703 0
8704 2
8705 19
8706 9
8707 12
8708 13
8709 2
8710 2
8711 24
8712 7
8713 7
8714 9
8715 0
8716 15
8717 6
8718 2
8719 7
8720 7
8721 6
8722 9
8723 0
8724 0
8725 1
8726 3
8727 1
8728 7
8729 3
8730 15
8731 25
8732 12
8733 3
8734 16
8735 3
8736 3
8737 4
8738 7
8739 9
8740 0
8741 13
8742 1
8743 0
8744 0
8745 9
8746 4
8747 6
8748 28
8749 4
8750 8
8751 23
8752 0
8753 6
8754 4
8755 9
8756 0
8757 0
8758 7
8759 12
8760 3
8761 3
8762 0
8763 8
8764 10
8765 7
8766 7
8767 4
8768 0
8769 7
8770 13
8771 20
8772 0
8773 0
8774 0
8775 0
8776 4
8777 2
8778 7
8779 7
8780 0
8781 6
8782 7
8783 0
8784 2
8785 24
8786 0
8787 9
8788 12
8789 24
8790 9
8791 4
8792 7
8793 7
8794 9
8795 4
8796 7
8797 6
8798 4
8799 24
8800 10
8801 9
8802 6
8803 6
8804 0
8805 3
8806 0
8807 6
8808 15
8809 4
8810 0
8811 7
8812 0
8813 7
8814 7
8815 3
8816 4
8817 7
8818 7
8819 6
8820 21
8821 1
8822 0
8823 13
8824 8
8825 4
8826 18
8827 7
8828 0
8829 7
8830 7
8831 19
8832 1
8833 24
8834 7
8835 2
8836 7
8837 6
8838 21
8839 7
8840 19
8841 13
8842 9
8843 2
8844 9
8845 16
8846 3
8847 3
8848 18
8849 7
8850 5
8851 4
8852 1
8853 9
8854 16
8855 24
8856 2
8857 10
8858 9
8859 4
8860 27
8861 7
8862 3
8863 3
8864 3
8865 4
8866 0
8867 7
8868 7
8869 9
8870 24
8871 2
8872 1
8873 19
8874 7
8875 1
8876 2
8877 7
8878 2
8879 7
8880 2
8881 3
8882 5
8883 13
8884 1
8885 9
8886 0
8887 2
8888 5
8889 24
8890 8
8891 7
8892 9
8893 5
8894 16
8895 0
8896 7
8897 13
8898 4
8899 7
8900 22
8901 7
8902 0
8903 3
8904 13
8905 7
8906 7
8907 18
8908 0
8909 9
8910 7
8911 7
8912 0
8913 7
8914 9
8915 6
8916 0
8917 24
8918 3
8919 3
8920 3
8921 1
8922 6
8923 2
8924 4
8925 1
8926 9
8927 1
8928 27
8929 3
8930 19
8931 4
8932 16
8933 9
8934 9
8935 13
8936 10
8937 3
8938 7
8939 3
8940 0
8941 6
8942 4
8943 1
8944 6
8945 8
8946 3
8947 21
8948 3
8949 2
8950 7
8951 9
8952 9
8953 1
8954 3
8955 7
8956 7
8957 16
8958 1
8959 12
8960 7
8961 7
8962 9
8963 7
8964 7
8965 3
8966 7
8967 7
8968 4
8969 7
8970 7
8971 6
8972 6
8973 7
8974 0
8975 3
8976 7
8977 0
8978 4
8979 4
8980 9
8981 16
8982 6
8983 6
8984 0
8985 3
8986 7
8987 3
8988 7
8989 7
8990 3
8991 25
8992 7
8993 19
8994 9
8995 19
8996 14
8997 0
8998 7
8999 4
9000 19
9001 3
9002 3
9003 7
9004 3
9005 18
9006 4
9007 4
9008 2
9009 7
9010 0
9011 7
9012 3
9013 30
9014 9
9015 0
9016 4
9017 5
9018 16
9019 7
9020 2
9021 15
9022 4
9023 4
9024 4
9025 8
9026 1
9027 4
9028 2
9029 5
9030 1
9031 0
9032 4
9033 0
9034 4
9035 15
9036 0
9037 10
9038 0
9039 7
9040 0
9041 3
9042 24
9043 7
9044 7
9045 15
9046 4
9047 21
9048 3
9049 7
9050 13
9051 25
9052 0
9053 15
9054 6
9055 4
9056 9
9057 30
9058 4
9059 0
9060 4
9061 13
9062 15
9063 7
9064 18
9065 7
9066 2
9067 7
9068 21
9069 4
9070 3
9071 3
9072 7
9073 13
9074 4
9075 4
9076 7
9077 4
9078 7
9079 3
9080 4
9081 13
9082 8
9083 9
9084 19
9085 0
9086 7
9087 19
9088 2
9089 0
9090 0
9091 4
9092 10
9093 9
9094 1
9095 4
9096 1
9097 3
9098 19
9099 5
9100 4
9101 7
9102 6
9103 1
9104 0
9105 1
9106 2
9107 4
9108 0
9109 0
9110 16
9111 12
9112 3
9113 7
9114 16
9115 3
9116 6
9117 0
9118 4
9119 7
9120 3
9121 7
9122 7
9123 13
9124 3
9125 7
9126 0
9127 8
9128 7
9129 2
9130 27
9131 0
9132 7
9133 2
9134 7
9135 4
9136 7
9137 7
9138 6
9139 19
9140 6
9141 0
9142 7
9143 6
9144 9
9145 0
9146 9
9147 0
9148 0
9149 3
9150 2
9151 7
9152 3
9153 6
9154 9
9155 1
9156 21
9157 13
9158 5
9159 7
9160 6
9161 6
9162 16
9163 3
9164 7
9165 0
9166 13
9167 3
9168 15
9169 4
9170 21
9171 0
9172 2
9173 7
9174 3
9175 6
9176 18
9177 19
9178 6
9179 9
9180 1
9181 7
9182 3
9183 0
9184 0
9185 6
9186 2
9187 7
9188 4
9189 0
9190 4
9191 7
9192 9
9193 3
9194 7
9195 7
9196 0
9197 9
9198 9
9199 6
9200 27
9201 0
9202 0
9203 4
9204 0
9205 8
9206 7
9207 6
9208 7
9209 0
9210 16
9211 1
9212 0
9213 3
9214 7
9215 3
9216 3
9217 0
9218 19
9219 6
9220 9
9221 10
9222 20
9223 16
9224 7
9225 4
9226 21
9227 20
9228 8
9229 25
9230 7
9231 3
9232 1
9233 9
9234 2
9235 18
9236 13
9237 9
9238 1
9239 10
9240 6
9241 7
9242 4
9243 16
9244 18
9245 16
9246 4
9247 1
9248 19
9249 15
9250 7
9251 16
9252 9
9253 7
9254 8
9255 0
9256 6
9257 8
9258 0
9259 2
9260 9
9261 2
9262 9
9263 13
9264 2
9265 30
9266 0
9267 7
9268 1
9269 5
9270 0
9271 0
9272 28
9273 16
9274 4
9275 13
9276 1
9277 18
9278 0
9279 9
9280 7
9281 12
9282 4
9283 13
9284 7
9285 15
9286 15
9287 4
9288 11
9289 5
9290 15
9291 3
9292 2
9293 0
9294 4
9295 16
9296 2
9297 7
9298 3
9299 7
9300 6
9301 2
9302 8
9303 9
9304 2
9305 0
9306 1
9307 0
9308 4
9309 4
9310 3
9311 1
9312 12
9313 7
9314 19
9315 8
9316 4
9317 4
9318 0
9319 0
9320 1
9321 3
9322 5
9323 4
9324 9
9325 1
9326 2
9327 7
9328 4
9329 9
9330 15
9331 7
9332 4
9333 0
9334 6
9335 8
9336 18
9337 7
9338 9
9339 9
9340 6
9341 14
9342 12
9343 12
9344 3
9345 9
9346 7
9347 4
9348 8
9349 8
9350 6
9351 9
9352 23
9353 7
9354 0
9355 6
9356 0
9357 24
9358 7
9359 7
9360 21
9361 6
9362 2
9363 0
9364 7
9365 24
9366 0
9367 20
9368 0
9369 13
9370 6
9371 3
9372 1
9373 6
9374 2
9375 1
9376 9
9377 3
9378 0
9379 1
9380 7
9381 19
9382 24
9383 27
9384 3
9385 7
9386 3
9387 7
9388 0
9389 6
9390 0
9391 4
9392 1
9393 23
9394 0
9395 6
9396 9
9397 0
9398 4
9399 2
9400 3
9401 3
9402 7
9403 9
9404 0
9405 5
9406 12
9407 2
9408 4
9409 6
9410 7
9411 4
9412 13
9413 3
9414 7
9415 7
9416 3
9417 25
9418 9
9419 21
9420 12
9421 7
9422 7
9423 20
9424 7
9425 5
9426 20
9427 3
9428 0
9429 6
9430 5
9431 7
9432 4
9433 0
9434 0
9435 7
9436 19
9437 1
9438 13
9439 12
9440 4
9441 7
9442 7
9443 3
9444 3
9445 0
9446 13
9447 21
9448 4
9449 7
9450 7
9451 6
9452 7
9453 9
9454 20
9455 3
9456 7
9457 6
9458 24
9459 6
9460 7
9461 7
9462 1
9463 7
9464 3
9465 23
9466 16
9467 0
9468 7
9469 10
9470 28
9471 20
9472 6
9473 23
9474 21
9475 9
9476 4
9477 6
9478 5
9479 7
9480 4
9481 13
9482 6
9483 7
9484 16
9485 7
9486 3
9487 3
9488 7
9489 9
9490 2
9491 0
9492 9
9493 2
9494 21
9495 3
9496 21
9497 13
9498 4
9499 4
9500 0
9501 1
9502 7
9503 1
9504 4
9505 6
9506 8
9507 2
9508 0
9509 3
9510 23
9511 0
9512 3
9513 3
9514 17
9515 10
9516 8
9517 0
9518 3
9519 0
9520 0
9521 5
9522 1
9523 25
9524 1
9525 2
9526 7
9527 1
9528 6
9529 0
9530 16
9531 2
9532 9
9533 7
9534 2
9535 7
9536 26
9537 0
9538 6
9539 13
9540 6
9541 7
9542 6
9543 13
9544 0
9545 0
9546 21
9547 3
9548 8
9549 4
9550 4
9551 0
9552 0
9553 7
9554 19
9555 0
9556 8
9557 9
9558 1
9559 4
9560 8
9561 7
9562 9
9563 13
9564 4
9565 0
9566 7
9567 16
9568 7
9569 3
9570 6
9571 1
9572 8
9573 3
9574 6
9575 1
9576 0
9577 0
9578 4
9579 1
9580 1
9581 2
9582 4
9583 7
9584 9
9585 7
9586 10
9587 7
9588 7
9589 6
9590 7
9591 0
9592 0
9593 2
9594 6
9595 9
9596 7
9597 19
9598 4
9599 4
9600 0
9601 6
9602 0
9603 15
9604 7
9605 18
9606 7
9607 1
9608 13
9609 7
9610 0
9611 4
9612 7
9613 9
9614 0
9615 17
9616 16
9617 25
9618 2
9619 2
9620 0
9621 3
9622 12
9623 0
9624 21
9625 1
9626 4
9627 0
9628 4
9629 3
9630 3
9631 7
9632 19
9633 27
9634 0
9635 3
9636 0
9637 6
9638 6
9639 15
9640 7
9641 4
9642 4
9643 8
9644 13
9645 1
9646 18
9647 4
9648 4
9649 7
9650 6
9651 3
9652 6
9653 16
9654 24
9655 0
9656 4
9657 6
9658 21
9659 24
9660 1
9661 2
9662 2
9663 7
9664 12
9665 7
9666 4
9667 4
9668 3
9669 9
9670 4
9671 9
9672 0
9673 7
9674 13
9675 4
9676 27
9677 16
9678 3
9679 4
9680 8
9681 2
9682 27
9683 3
9684 19
9685 19
9686 16
9687 2
9688 16
9689 3
9690 0
9691 0
9692 0
9693 6
9694 9
9695 7
9696 19
9697 0
9698 2
9699 3
9700 7
9701 4
9702 4
9703 7
9704 4
9705 2
9706 19
9707 19
9708 19
9709 0
9710 0
9711 13
9712 24
9713 2
9714 7
9715 0
9716 1
9717 8
9718 0
9719 7
9720 2
9721 12
9722 0
9723 3
9724 7
9725 1
9726 2
9727 0
9728 1
9729 7
9730 3
9731 24
9732 2
9733 9
9734 0
9735 16
9736 4
9737 7
9738 12
9739 7
9740 0
9741 7
9742 13
9743 19
9744 4
9745 7
9746 9
9747 0
9748 15
9749 13
9750 4
9751 20
9752 6
9753 3
9754 16
9755 10
9756 20
9757 2
9758 0
9759 13
9760 13
9761 15
9762 2
9763 0
9764 7
9765 15
9766 3
9767 6
9768 12
9769 6
9770 7
9771 7
9772 22
9773 7
9774 4
9775 15
9776 1
9777 2
9778 0
9779 7
9780 13
9781 6
9782 30
9783 3
9784 4
9785 0
9786 25
9787 2
9788 4
9789 8
9790 9
9791 0
9792 0
9793 4
9794 3
9795 3
9796 6
9797 0
9798 1
9799 3
9800 7
9801 9
9802 1
9803 6
9804 1
9805 30
9806 4
9807 0
9808 3
9809 0
9810 29
9811 3
9812 2
9813 20
9814 12
9815 1
9816 4
9817 3
9818 9
9819 9
9820 10
9821 4
9822 4
9823 0
9824 6
9825 18
9826 15
9827 1
9828 27
9829 7
9830 3
9831 1
9832 3
9833 7
9834 9
9835 27
9836 13
9837 6
9838 13
9839 16
9840 25
9841 6
9842 0
9843 16
9844 9
9845 7
9846 17
9847 13
9848 19
9849 7
9850 0
9851 10
9852 15
9853 3
9854 7
9855 13
9856 0
9857 2
9858 8
9859 1
9860 0
9861 11
9862 7
9863 13
9864 0
9865 18
9866 4
9867 7
9868 7
9869 4
9870 0
9871 2
9872 9
9873 7
9874 16
9875 20
9876 0
9877 1
9878 4
9879 7
9880 6
9881 3
9882 2
9883 8
9884 9
9885 27
9886 9
9887 3
9888 3
9889 19
9890 18
9891 4
9892 1
9893 3
9894 0
9895 2
9896 9
9897 2
9898 4
9899 27
9900 19
9901 2
9902 22
9903 26
9904 7
9905 1
9906 4
9907 1
9908 7
9909 2
9910 8
9911 0
9912 4
9913 16
9914 9
9915 13
9916 4
9917 0
9918 23
9919 0
9920 2
9921 1
9922 19
9923 19
9924 3
9925 9
9926 3
9927 4
9928 8
9929 1
9930 7
9931 21
9932 4
9933 0
9934 1
9935 0
9936 0
9937 7
9938 13
9939 4
9940 4
9941 3
9942 0
9943 0
9944 0
9945 1
9946 2
9947 0
9948 7
9949 3
9950 24
9951 2
9952 4
9953 3
9954 1
9955 6
9956 3
9957 24
9958 8
9959 0
9960 19
9961 4
9962 9
9963 19
9964 9
9965 7
9966 7
9967 3
9968 27
9969 3
9970 0
9971 12
9972 5
9973 7
9974 7
9975 4
9976 4
9977 9
9978 1
9979 1
9980 2
9981 2
9982 3
9983 8
9984 6
9985 8
9986 19
9987 10
9988 16
9989 3
9990 0
9991 5
9992 6
9993 3
9994 16
9995 9
9996 7
9997 2
9998 3
9999 12
