0 0
1 1
2 2
3 3
4 2
5 4
6 0
7 5
8 6
9 7
10 8
11 9
12 7
13 10
14 9
15 8
16 6
17 0
18 3
19 11
20 12
21 3
22 13
23 1
24 0
25 14
26 12
27 0
28 0
29 6
30 1
31 15
32 12
33 11
34 16
35 17
36 1
37 7
38 4
39 18
40 19
41 12
42 9
43 7
44 12
45 7
46 4
47 2
48 1
49 0
50 11
51 11
52 3
53 6
54 7
55 7
56 4
57 2
58 17
59 20
60 0
61 7
62 0
63 7
64 9
65 6
66 0
67 17
68 11
69 2
70 17
71 5
72 7
73 12
74 8
75 0
76 17
77 12
78 7
79 1
80 12
81 11
82 11
83 10
84 17
85 4
86 3
87 10
88 7
89 6
90 21
91 17
92 15
93 9
94 17
95 0
96 22
97 2
98 12
99 21
100 19
101 23
102 3
103 17
104 12
105 24
106 20
107 12
108 7
109 1
110 6
111 23
112 25
113 11
114 17
115 26
116 4
117 19
118 11
119 8
120 7
121 7
122 17
123 7
124 24
125 0
126 6
127 3
128 0
129 6
130 3
131 15
132 3
133 25
134 7
135 0
136 0
137 23
138 2
139 0
140 10
141 17
142 11
143 4
144 7
145 0
146 3
147 0
148 11
149 1
150 24
151 2
152 16
153 7
154 0
155 17
156 0
157 0
158 15
159 4
160 7
161 12
162 10
163 0
164 2
165 7
166 4
167 11
168 25
169 2
170 18
171 21
172 4
173 18
174 12
175 7
176 26
177 12
178 11
179 7
180 21
181 7
182 15
183 7
184 20
185 4
186 0
187 12
188 6
189 7
190 7
191 19
192 17
193 6
194 2
195 10
196 4
197 12
198 6
199 0
200 11
201 26
202 8
203 8
204 4
205 17
206 6
207 13
208 17
209 1
210 22
211 21
212 2
213 6
214 12
215 11
216 8
217 22
218 12
219 8
220 23
221 12
222 12
223 0
224 24
225 2
226 6
227 4
228 12
229 4
230 11
231 2
232 7
233 7
234 15
235 1
236 24
237 2
238 16
239 8
240 17
241 18
242 2
243 0
244 7
245 0
246 7
247 23
248 24
249 0
250 16
251 2
252 11
253 27
254 0
255 7
256 7
257 15
258 6
259 0
260 17
261 7
262 11
263 3
264 23
265 8
266 17
267 7
268 21
269 16
270 11
271 6
272 0
273 1
274 3
275 17
276 7
277 14
278 6
279 12
280 22
281 11
282 24
283 4
284 9
285 20
286 3
287 8
288 2
289 0
290 7
291 22
292 7
293 6
294 7
295 0
296 0
297 0
298 2
299 0
300 2
301 0
302 0
303 6
304 3
305 7
306 0
307 1
308 2
309 2
310 10
311 2
312 21
313 7
314 0
315 11
316 6
317 15
318 21
319 2
320 26
321 3
322 12
323 17
324 7
325 11
326 11
327 7
328 7
329 6
330 22
331 17
332 26
333 3
334 17
335 12
336 7
337 7
338 6
339 7
340 10
341 6
342 7
343 0
344 25
345 17
346 3
347 3
348 6
349 3
350 23
351 3
352 2
353 0
354 6
355 0
356 6
357 6
358 12
359 4
360 2
361 0
362 7
363 4
364 0
365 4
366 6
367 12
368 4
369 16
370 11
371 20
372 25
373 20
374 14
375 8
376 17
377 20
378 7
379 12
380 12
381 8
382 8
383 0
384 0
385 22
386 4
387 7
388 1
389 0
390 7
391 27
392 28
393 29
394 0
395 7
396 12
397 7
398 17
399 3
400 1
401 12
402 7
403 17
404 18
405 21
406 2
407 0
408 12
409 12
410 6
411 17
412 22
413 0
414 7
415 7
416 6
417 14
418 11
419 7
420 10
421 21
422 22
423 12
424 24
425 15
426 7
427 12
428 0
429 0
430 24
431 12
432 0
433 0
434 21
435 0
436 7
437 6
438 0
439 0
440 6
441 11
442 17
443 4
444 0
445 15
446 17
447 1
448 17
449 7
450 26
451 12
452 12
453 7
454 7
455 12
456 10
457 0
458 0
459 7
460 0
461 8
462 6
463 3
464 9
465 15
466 6
467 1
468 24
469 0
470 0
471 15
472 11
473 6
474 7
475 6
476 12
477 12
478 0
479 20
480 7
481 11
482 0
483 6
484 11
485 3
486 21
487 17
488 22
489 8
490 8
491 6
492 22
493 17
494 22
495 15
496 18
497 7
498 3
499 6
500 3
501 12
502 7
503 0
504 7
505 7
506 21
507 8
508 3
509 9
510 6
511 3
512 3
513 7
514 0
515 7
516 7
517 17
518 6
519 0
520 7
521 0
522 7
523 12
524 11
525 10
526 2
527 21
528 15
529 7
530 9
531 11
532 17
533 6
534 11
535 16
536 6
537 13
538 0
539 8
540 11
541 7
542 16
543 2
544 0
545 15
546 4
547 11
548 0
549 8
550 22
551 0
552 11
553 17
554 4
555 11
556 3
557 18
558 12
559 0
560 11
561 4
562 0
563 3
564 20
565 17
566 11
567 7
568 17
569 1
570 27
571 7
572 0
573 21
574 1
575 12
576 2
577 0
578 0
579 1
580 7
581 3
582 1
583 10
584 0
585 9
586 0
587 11
588 11
589 16
590 6
591 11
592 17
593 0
594 6
595 7
596 0
597 20
598 2
599 0
600 4
601 0
602 11
603 7
604 12
605 19
606 6
607 19
608 25
609 14
610 0
611 17
612 0
613 3
614 2
615 8
616 8
617 21
618 7
619 22
620 24
621 11
622 22
623 0
624 2
625 11
626 20
627 7
628 16
629 16
630 7
631 17
632 3
633 7
634 12
635 3
636 2
637 11
638 1
639 17
640 0
641 0
642 6
643 16
644 2
645 21
646 15
647 3
648 2
649 18
650 11
651 2
652 1
653 3
654 17
655 0
656 10
657 9
658 9
659 6
660 0
661 20
662 0
663 7
664 3
665 7
666 0
667 2
668 11
669 10
670 0
671 7
672 17
673 12
674 22
675 15
676 4
677 6
678 18
679 19
680 11
681 21
682 23
683 24
684 6
685 15
686 17
687 15
688 21
689 0
690 12
691 7
692 23
693 0
694 22
695 20
696 17
697 2
698 2
699 2
700 17
701 21
702 0
703 21
704 2
705 7
706 2
707 12
708 13
709 17
710 6
711 7
712 1
713 7
714 3
715 22
716 6
717 20
718 0
719 20
720 25
721 0
722 11
723 0
724 2
725 0
726 7
727 0
728 12
729 3
730 1
731 21
732 2
733 11
734 28
735 11
736 30
737 3
738 17
739 6
740 11
741 0
742 20
743 22
744 0
745 12
746 0
747 0
748 21
749 6
750 12
751 17
752 11
753 12
754 7
755 21
756 12
757 16
758 12
759 11
760 7
761 21
762 0
763 24
764 23
765 2
766 11
767 1
768 11
769 3
770 17
771 2
772 8
773 0
774 7
775 23
776 3
777 22
778 21
779 0
780 12
781 0
782 2
783 9
784 11
785 2
786 9
787 7
788 8
789 11
790 26
791 3
792 0
793 0
794 6
795 0
796 0
797 20
798 27
799 17
800 7
801 7
802 6
803 17
804 11
805 0
806 7
807 15
808 15
809 22
810 17
811 7
812 0
813 23
814 6
815 11
816 12
817 6
818 15
819 1
820 8
821 11
822 8
823 6
824 0
825 17
826 3
827 11
828 3
829 0
830 3
831 11
832 21
833 19
834 2
835 6
836 4
837 12
838 0
839 9
840 7
841 0
842 12
843 7
844 15
845 0
846 0
847 7
848 24
849 25
850 2
851 21
852 12
853 24
854 12
855 6
856 11
857 17
858 7
859 1
860 11
861 3
862 6
863 15
864 7
865 0
866 12
867 7
868 6
869 1
870 6
871 17
872 19
873 3
874 1
875 2
876 3
877 11
878 0
879 7
880 0
881 10
882 4
883 11
884 25
885 17
886 12
887 22
888 0
889 11
890 11
891 17
892 19
893 6
894 3
895 7
896 2
897 0
898 7
899 7
900 3
901 11
902 3
903 0
904 17
905 0
906 3
907 17
908 6
909 23
910 17
911 7
912 27
913 1
914 0
915 2
916 21
917 6
918 0
919 21
920 7
921 7
922 2
923 7
924 17
925 12
926 12
927 7
928 6
929 11
930 11
931 0
932 1
933 17
934 17
935 0
936 11
937 15
938 13
939 6
940 1
941 3
942 0
943 17
944 20
945 0
946 11
947 0
948 21
949 7
950 3
951 12
952 19
953 20
954 2
955 11
956 7
957 12
958 12
959 12
960 2
961 7
962 3
963 0
964 17
965 0
966 6
967 16
968 3
969 7
970 2
971 7
972 11
973 2
974 4
975 7
976 7
977 7
978 12
979 15
980 17
981 11
982 2
983 17
984 0
985 3
986 21
987 0
988 21
989 7
990 1
991 2
992 15
993 2
994 22
995 15
996 0
997 8
998 11
999 22
1000 2
1001 12
1002 5
1003 28
1004 17
1005 15
1006 6
1007 11
1008 17
1009 6
1010 7
1011 11
1012 23
1013 0
1014 13
1015 0
1016 1
1017 7
1018 0
1019 17
1020 15
1021 11
1022 7
1023 0
1024 11
1025 7
1026 17
1027 17
1028 3
1029 12
1030 11
1031 6
1032 21
1033 22
1034 12
1035 12
1036 12
1037 7
1038 22
1039 17
1040 11
1041 19
1042 6
1043 6
1044 8
1045 22
1046 6
1047 29
1048 4
1049 4
1050 7
1051 19
1052 4
1053 11
1054 0
1055 4
1056 18
1057 11
1058 7
1059 18
1060 0
1061 7
1062 8
1063 10
1064 15
1065 27
1066 17
1067 6
1068 21
1069 7
1070 11
1071 10
1072 6
1073 1
1074 21
1075 12
1076 20
1077 0
1078 7
1079 7
1080 0
1081 2
1082 3
1083 12
1084 7
1085 22
1086 0
1087 3
1088 11
1089 12
1090 9
1091 0
1092 12
1093 5
1094 27
1095 20
1096 2
1097 17
1098 0
1099 7
1100 0
1101 0
1102 6
1103 22
1104 2
1105 11
1106 12
1107 9
1108 24
1109 8
1110 6
1111 17
1112 17
1113 11
1114 13
1115 24
1116 0
1117 16
1118 11
1119 6
1120 11
1121 7
1122 8
1123 6
1124 8
1125 15
1126 2
1127 21
1128 11
1129 6
1130 7
1131 22
1132 2
1133 0
1134 7
1135 11
1136 15
1137 0
1138 12
1139 7
1140 7
1141 6
1142 15
1143 0
1144 17
1145 20
1146 7
1147 16
1148 7
1149 16
1150 12
1151 7
1152 12
1153 20
1154 21
1155 15
1156 20
1157 3
1158 11
1159 11
1160 27
1161 15
1162 0
1163 0
1164 6
1165 0
1166 2
1167 6
1168 21
1169 3
1170 0
1171 7
1172 7
1173 7
1174 15
1175 7
1176 7
1177 2
1178 22
1179 12
1180 4
1181 11
1182 7
1183 0
1184 15
1185 21
1186 4
1187 1
1188 2
1189 17
1190 3
1191 21
1192 7
1193 3
1194 21
1195 11
1196 2
1197 11
1198 17
1199 0
1200 6
1201 7
1202 28
1203 0
1204 0
1205 10
1206 7
1207 0
1208 0
1209 17
1210 0
1211 3
1212 12
1213 17
1214 7
1215 11
1216 3
1217 7
1218 0
1219 7
1220 21
1221 3
1222 1
1223 0
1224 2
1225 17
1226 3
1227 8
1228 25
1229 0
1230 3
1231 0
1232 13
1233 9
1234 21
1235 7
1236 15
1237 13
1238 27
1239 12
1240 10
1241 2
1242 11
1243 2
1244 12
1245 18
1246 7
1247 9
1248 23
1249 9
1250 21
1251 12
1252 29
1253 3
1254 12
1255 7
1256 0
1257 12
1258 17
1259 2
1260 2
1261 11
1262 15
1263 1
1264 17
1265 18
1266 12
1267 2
1268 11
1269 6
1270 0
1271 0
1272 12
1273 7
1274 7
1275 0
1276 7
1277 4
1278 1
1279 19
1280 7
1281 0
1282 28
1283 16
1284 7
1285 7
1286 4
1287 17
1288 21
1289 15
1290 0
1291 7
1292 2
1293 17
1294 22
1295 7
1296 7
1297 0
1298 24
1299 21
1300 1
1301 6
1302 15
1303 6
1304 12
1305 12
1306 17
1307 0
1308 0
1309 11
1310 16
1311 13
1312 4
1313 0
1314 2
1315 28
1316 22
1317 11
1318 10
1319 7
1320 6
1321 10
1322 12
1323 6
1324 17
1325 7
1326 3
1327 1
1328 19
1329 1
1330 0
1331 3
1332 23
1333 2
1334 0
1335 6
1336 22
1337 3
1338 0
1339 23
1340 6
1341 22
1342 7
1343 1
1344 11
1345 12
1346 16
1347 0
1348 25
1349 11
1350 11
1351 22
1352 4
1353 0
1354 17
1355 18
1356 16
1357 3
1358 9
1359 6
1360 12
1361 0
1362 0
1363 7
1364 11
1365 21
1366 0
1367 12
1368 0
1369 22
1370 0
1371 0
1372 7
1373 0
1374 11
1375 3
1376 15
1377 17
1378 6
1379 0
1380 7
1381 10
1382 6
1383 3
1384 11
1385 5
1386 7
1387 0
1388 22
1389 15
1390 21
1391 11
1392 9
1393 2
1394 7
1395 16
1396 0
1397 1
1398 11
1399 7
1400 7
1401 19
1402 0
1403 21
1404 5
1405 12
1406 15
1407 0
1408 0
1409 7
1410 3
1411 0
1412 22
1413 7
1414 11
1415 7
1416 0
1417 11
1418 22
1419 2
1420 21
1421 0
1422 15
1423 8
1424 0
1425 0
1426 7
1427 4
1428 15
1429 1
1430 2
1431 0
1432 12
1433 8
1434 7
1435 7
1436 7
1437 0
1438 12
1439 8
1440 11
1441 2
1442 11
1443 3
1444 6
1445 11
1446 8
1447 0
1448 20
1449 3
1450 1
1451 12
1452 0
1453 6
1454 7
1455 13
1456 21
1457 17
1458 11
1459 0
1460 8
1461 21
1462 27
1463 12
1464 15
1465 0
1466 11
1467 3
1468 6
1469 8
1470 3
1471 12
1472 26
1473 1
1474 0
1475 11
1476 17
1477 19
1478 0
1479 7
1480 12
1481 0
1482 6
1483 17
1484 7
1485 7
1486 1
1487 0
1488 12
1489 15
1490 17
1491 6
1492 11
1493 7
1494 15
1495 12
1496 17
1497 2
1498 1
1499 28
1500 17
1501 10
1502 0
1503 17
1504 0
1505 22
1506 12
1507 12
1508 8
1509 12
1510 6
1511 28
1512 7
1513 1
1514 7
1515 6
1516 8
1517 10
1518 8
1519 8
1520 6
1521 0
1522 22
1523 15
1524 1
1525 8
1526 0
1527 1
1528 0
1529 2
1530 11
1531 7
1532 7
1533 28
1534 15
1535 6
1536 1
1537 12
1538 1
1539 2
1540 7
1541 7
1542 12
1543 0
1544 20
1545 5
1546 11
1547 12
1548 1
1549 11
1550 2
1551 17
1552 0
1553 21
1554 1
1555 1
1556 29
1557 15
1558 12
1559 3
1560 0
1561 7
1562 3
1563 2
1564 0
1565 11
1566 6
1567 15
1568 21
1569 2
1570 12
1571 0
1572 17
1573 7
1574 1
1575 0
1576 7
1577 3
1578 7
1579 7
1580 21
1581 11
1582 12
1583 7
1584 22
1585 6
1586 0
1587 15
1588 3
1589 7
1590 16
1591 11
1592 16
1593 22
1594 0
1595 2
1596 4
1597 22
1598 10
1599 0
1600 2
1601 5
1602 7
1603 17
1604 2
1605 2
1606 11
1607 11
1608 20
1609 19
1610 10
1611 2
1612 7
1613 7
1614 15
1615 0
1616 2
1617 7
1618 11
1619 0
1620 24
1621 17
1622 3
1623 21
1624 29
1625 3
1626 12
1627 9
1628 22
1629 1
1630 16
1631 18
1632 2
1633 7
1634 3
1635 17
1636 4
1637 9
1638 11
1639 6
1640 17
1641 0
1642 3
1643 11
1644 8
1645 6
1646 7
1647 3
1648 17
1649 22
1650 7
1651 7
1652 2
1653 8
1654 1
1655 2
1656 8
1657 22
1658 7
1659 12
1660 0
1661 11
1662 13
1663 6
1664 17
1665 2
1666 11
1667 11
1668 22
1669 7
1670 12
1671 23
1672 7
1673 7
1674 20
1675 3
1676 17
1677 19
1678 8
1679 11
1680 20
1681 0
1682 2
1683 7
1684 7
1685 7
1686 6
1687 7
1688 3
1689 3
1690 8
1691 17
1692 12
1693 1
1694 1
1695 21
1696 2
1697 3
1698 0
1699 0
1700 12
1701 20
1702 1
1703 22
1704 2
1705 7
1706 15
1707 7
1708 22
1709 8
1710 0
1711 1
1712 2
1713 0
1714 5
1715 16
1716 16
1717 20
1718 7
1719 0
1720 2
1721 6
1722 7
1723 13
1724 15
1725 11
1726 7
1727 5
1728 11
1729 0
1730 2
1731 0
1732 0
1733 15
1734 7
1735 23
1736 3
1737 22
1738 12
1739 20
1740 21
1741 6
1742 11
1743 20
1744 19
1745 3
1746 2
1747 15
1748 6
1749 12
1750 4
1751 21
1752 0
1753 17
1754 16
1755 17
1756 7
1757 9
1758 7
1759 11
1760 22
1761 7
1762 2
1763 7
1764 6
1765 8
1766 12
1767 15
1768 7
1769 4
1770 11
1771 0
1772 11
1773 0
1774 7
1775 20
1776 0
1777 1
1778 17
1779 7
1780 22
1781 2
1782 7
1783 10
1784 7
1785 21
1786 3
1787 6
1788 11
1789 3
1790 0
1791 4
1792 7
1793 17
1794 0
1795 20
1796 17
1797 3
1798 11
1799 22
1800 11
1801 0
1802 15
1803 17
1804 17
1805 7
1806 7
1807 0
1808 12
1809 2
1810 11
1811 4
1812 0
1813 7
1814 15
1815 21
1816 0
1817 0
1818 0
1819 4
1820 4
1821 3
1822 0
1823 7
1824 0
1825 15
1826 4
1827 1
1828 15
1829 0
1830 0
1831 6
1832 11
1833 13
1834 3
1835 0
1836 6
1837 22
1838 7
1839 4
1840 11
1841 21
1842 7
1843 0
1844 0
1845 7
1846 10
1847 6
1848 20
1849 0
1850 11
1851 0
1852 30
1853 0
1854 11
1855 7
1856 15
1857 0
1858 3
1859 7
1860 20
1861 17
1862 0
1863 0
1864 3
1865 8
1866 2
1867 7
1868 3
1869 19
1870 7
1871 11
1872 12
1873 6
1874 15
1875 4
1876 7
1877 7
1878 10
1879 12
1880 11
1881 11
1882 19
1883 7
1884 6
1885 15
1886 11
1887 0
1888 10
1889 11
1890 0
1891 10
1892 6
1893 7
1894 3
1895 0
1896 8
1897 17
1898 6
1899 6
1900 22
1901 17
1902 17
1903 23
1904 12
1905 7
1906 6
1907 0
1908 2
1909 12
1910 21
1911 11
1912 7
1913 3
1914 22
1915 17
1916 11
1917 7
1918 6
1919 7
1920 12
1921 7
1922 0
1923 6
1924 0
1925 12
1926 0
1927 17
1928 15
1929 17
1930 0
1931 7
1932 2
1933 3
1934 9
1935 2
1936 0
1937 0
1938 11
1939 13
1940 8
1941 12
1942 17
1943 7
1944 22
1945 0
1946 26
1947 12
1948 0
1949 6
1950 6
1951 7
1952 15
1953 11
1954 6
1955 3
1956 17
1957 0
1958 0
1959 6
1960 7
1961 8
1962 11
1963 22
1964 17
1965 0
1966 24
1967 7
1968 0
1969 17
1970 22
1971 0
1972 11
1973 17
1974 0
1975 0
1976 12
1977 17
1978 7
1979 6
1980 13
1981 11
1982 15
1983 17
1984 4
1985 7
1986 3
1987 0
1988 0
1989 25
1990 7
1991 12
1992 16
1993 0
1994 2
1995 7
1996 0
1997 6
1998 6
1999 11
2000 24
2001 11
2002 0
2003 11
2004 11
2005 8
2006 11
2007 4
2008 7
2009 7
2010 3
2011 11
2012 7
2013 0
2014 3
2015 15
2016 0
2017 5
2018 3
2019 15
2020 6
2021 21
2022 24
2023 0
2024 17
2025 12
2026 0
2027 11
2028 20
2029 22
2030 27
2031 12
2032 4
2033 11
2034 2
2035 3
2036 6
2037 7
2038 7
2039 0
2040 15
2041 6
2042 24
2043 26
2044 0
2045 3
2046 0
2047 0
2048 7
2049 11
2050 7
2051 11
2052 0
2053 11
2054 17
2055 3
2056 7
2057 17
2058 0
2059 2
2060 3
2061 0
2062 17
2063 12
2064 7
2065 16
2066 12
2067 7
2068 15
2069 17
2070 24
2071 11
2072 3
2073 1
2074 7
2075 17
2076 22
2077 1
2078 17
2079 0
2080 17
2081 0
2082 7
2083 21
2084 22
2085 11
2086 7
2087 17
2088 2
2089 7
2090 0
2091 12
2092 1
2093 21
2094 7
2095 0
2096 1
2097 0
2098 12
2099 11
2100 1
2101 8
2102 5
2103 17
2104 12
2105 11
2106 7
2107 0
2108 2
2109 17
2110 1
2111 4
2112 7
2113 12
2114 2
2115 7
2116 7
2117 12
2118 0
2119 5
2120 2
2121 7
2122 11
2123 4
2124 4
2125 3
2126 1
2127 20
2128 22
2129 12
2130 0
2131 4
2132 2
2133 0
2134 13
2135 0
2136 0
2137 0
2138 0
2139 7
2140 14
2141 1
2142 11
2143 6
2144 6
2145 0
2146 28
2147 20
2148 2
2149 7
2150 4
2151 18
2152 0
2153 8
2154 6
2155 3
2156 16
2157 11
2158 17
2159 19
2160 0
2161 11
2162 12
2163 7
2164 7
2165 17
2166 3
2167 7
2168 26
2169 22
2170 12
2171 15
2172 7
2173 12
2174 4
2175 11
2176 7
2177 27
2178 17
2179 2
2180 21
2181 12
2182 2
2183 30
2184 3
2185 16
2186 17
2187 7
2188 1
2189 7
2190 21
2191 17
2192 27
2193 7
2194 0
2195 11
2196 11
2197 17
2198 15
2199 0
2200 12
2201 3
2202 6
2203 11
2204 3
2205 11
2206 11
2207 12
2208 7
2209 20
2210 0
2211 6
2212 3
2213 6
2214 0
2215 15
2216 12
2217 12
2218 1
2219 0
2220 12
2221 7
2222 23
2223 0
2224 7
2225 7
2226 0
2227 29
2228 6
2229 16
2230 15
2231 7
2232 15
2233 0
2234 17
2235 1
2236 22
2237 11
2238 6
2239 15
2240 13
2241 2
2242 0
2243 7
2244 20
2245 7
2246 7
2247 12
2248 3
2249 12
2250 0
2251 22
2252 12
2253 20
2254 20
2255 17
2256 11
2257 9
2258 3
2259 21
2260 8
2261 22
2262 7
2263 0
2264 3
2265 7
2266 15
2267 13
2268 19
2269 7
2270 7
2271 11
2272 2
2273 11
2274 12
2275 21
2276 0
2277 8
2278 15
2279 0
2280 12
2281 0
2282 4
2283 0
2284 0
2285 22
2286 16
2287 7
2288 12
2289 21
2290 16
2291 0
2292 17
2293 15
2294 0
2295 12
2296 0
2297 24
2298 16
2299 2
2300 18
2301 2
2302 2
2303 12
2304 6
2305 6
2306 7
2307 3
2308 1
2309 0
2310 2
2311 3
2312 11
2313 22
2314 12
2315 3
2316 11
2317 22
2318 11
2319 21
2320 7
2321 7
2322 12
2323 7
2324 11
2325 20
2326 10
2327 1
2328 20
2329 7
2330 0
2331 11
2332 16
2333 2
2334 23
2335 3
2336 9
2337 3
2338 0
2339 0
2340 2
2341 15
2342 11
2343 7
2344 6
2345 17
2346 7
2347 3
2348 1
2349 17
2350 11
2351 1
2352 11
2353 6
2354 20
2355 7
2356 11
2357 6
2358 11
2359 11
2360 6
2361 29
2362 13
2363 7
2364 11
2365 7
2366 4
2367 15
2368 2
2369 1
2370 10
2371 15
2372 19
2373 0
2374 15
2375 2
2376 1
2377 1
2378 15
2379 2
2380 11
2381 0
2382 3
2383 17
2384 15
2385 12
2386 1
2387 7
2388 22
2389 0
2390 7
2391 21
2392 2
2393 2
2394 2
2395 17
2396 17
2397 7
2398 12
2399 3
2400 6
2401 22
2402 11
2403 11
2404 12
2405 2
2406 2
2407 10
2408 7
2409 7
2410 27
2411 6
2412 9
2413 0
2414 7
2415 21
2416 11
2417 20
2418 28
2419 14
2420 6
2421 20
2422 8
2423 22
2424 11
2425 1
2426 28
2427 3
2428 7
2429 7
2430 0
2431 17
2432 20
2433 3
2434 3
2435 12
2436 21
2437 6
2438 0
2439 7
2440 29
2441 0
2442 0
2443 15
2444 15
2445 7
2446 21
2447 0
2448 9
2449 0
2450 7
2451 7
2452 20
2453 0
2454 7
2455 17
2456 3
2457 7
2458 9
2459 0
2460 21
2461 17
2462 0
2463 0
2464 22
2465 3
2466 2
2467 22
2468 24
2469 12
2470 28
2471 22
2472 11
2473 11
2474 0
2475 7
2476 17
2477 6
2478 12
2479 21
2480 9
2481 0
2482 17
2483 7
2484 12
2485 7
2486 17
2487 6
2488 17
2489 1
2490 8
2491 8
2492 17
2493 3
2494 27
2495 15
2496 6
2497 17
2498 11
2499 22
2500 0
2501 23
2502 22
2503 2
2504 15
2505 16
2506 2
2507 17
2508 0
2509 11
2510 3
2511 12
2512 11
2513 8
2514 0
2515 17
2516 8
2517 18
2518 9
2519 11
2520 11
2521 7
2522 1
2523 12
2524 3
2525 17
2526 6
2527 7
2528 12
2529 12
2530 6
2531 7
2532 0
2533 2
2534 12
2535 17
2536 17
2537 7
2538 6
2539 22
2540 11
2541 12
2542 2
2543 7
2544 22
2545 3
2546 6
2547 22
2548 7
2549 6
2550 6
2551 7
2552 11
2553 2
2554 0
2555 2
2556 11
2557 9
2558 22
2559 21
2560 0
2561 3
2562 2
2563 1
2564 2
2565 17
2566 13
2567 7
2568 17
2569 12
2570 8
2571 18
2572 21
2573 0
2574 12
2575 11
2576 28
2577 27
2578 9
2579 21
2580 20
2581 7
2582 2
2583 22
2584 0
2585 16
2586 22
2587 0
2588 17
2589 0
2590 4
2591 1
2592 0
2593 7
2594 0
2595 21
2596 3
2597 16
2598 0
2599 30
2600 28
2601 7
2602 6
2603 1
2604 17
2605 6
2606 0
2607 16
2608 0
2609 0
2610 6
2611 0
2612 4
2613 7
2614 2
2615 11
2616 10
2617 0
2618 15
2619 11
2620 7
2621 12
2622 0
2623 17
2624 2
2625 11
2626 0
2627 2
2628 7
2629 6
2630 11
2631 4
2632 6
2633 3
2634 2
2635 17
2636 22
2637 7
2638 22
2639 19
2640 7
2641 28
2642 2
2643 0
2644 17
2645 2
2646 12
2647 6
2648 6
2649 0
2650 12
2651 0
2652 2
2653 15
2654 23
2655 7
2656 6
2657 7
2658 2
2659 5
2660 7
2661 11
2662 6
2663 22
2664 4
2665 22
2666 17
2667 4
2668 0
2669 11
2670 15
2671 11
2672 15
2673 2
2674 17
2675 7
2676 11
2677 6
2678 17
2679 7
2680 11
2681 11
2682 12
2683 17
2684 15
2685 4
2686 2
2687 11
2688 0
2689 11
2690 2
2691 20
2692 7
2693 0
2694 2
2695 0
2696 7
2697 12
2698 3
2699 12
2700 16
2701 8
2702 21
2703 7
2704 11
2705 21
2706 12
2707 6
2708 6
2709 22
2710 0
2711 0
2712 3
2713 2
2714 5
2715 6
2716 20
2717 7
2718 0
2719 22
2720 11
2721 2
2722 2
2723 15
2724 11
2725 3
2726 0
2727 0
2728 21
2729 0
2730 7
2731 11
2732 0
2733 17
2734 7
2735 3
2736 2
2737 11
2738 7
2739 0
2740 6
2741 21
2742 0
2743 11
2744 8
2745 0
2746 3
2747 7
2748 15
2749 7
2750 0
2751 0
2752 0
2753 3
2754 7
2755 17
2756 11
2757 0
2758 1
2759 2
2760 17
2761 11
2762 2
2763 0
2764 15
2765 0
2766 0
2767 21
2768 0
2769 15
2770 0
2771 11
2772 3
2773 6
2774 6
2775 6
2776 12
2777 23
2778 7
2779 3
2780 6
2781 0
2782 1
2783 7
2784 7
2785 0
2786 27
2787 2
2788 3
2789 4
2790 18
2791 23
2792 6
2793 21
2794 7
2795 7
2796 6
2797 11
2798 15
2799 2
2800 15
2801 1
2802 6
2803 7
2804 7
2805 15
2806 0
2807 2
2808 9
2809 2
2810 3
2811 15
2812 11
2813 15
2814 6
2815 8
2816 9
2817 8
2818 19
2819 11
2820 22
2821 2
2822 7
2823 0
2824 6
2825 15
2826 11
2827 11
2828 6
2829 11
2830 7
2831 6
2832 0
2833 12
2834 0
2835 6
2836 22
2837 1
2838 15
2839 17
2840 7
2841 0
2842 15
2843 11
2844 17
2845 11
2846 12
2847 7
2848 7
2849 10
2850 11
2851 24
2852 17
2853 27
2854 12
2855 6
2856 6
2857 4
2858 0
2859 15
2860 17
2861 2
2862 11
2863 29
2864 21
2865 0
2866 3
2867 9
2868 6
2869 9
2870 16
2871 21
2872 7
2873 7
2874 0
2875 2
2876 3
2877 7
2878 12
2879 2
2880 23
2881 3
2882 13
2883 6
2884 3
2885 2
2886 3
2887 7
2888 0
2889 14
2890 21
2891 7
2892 11
2893 8
2894 6
2895 2
2896 10
2897 13
2898 17
2899 2
2900 3
2901 7
2902 15
2903 21
2904 0
2905 4
2906 4
2907 0
2908 21
2909 7
2910 11
2911 15
2912 7
2913 7
2914 6
2915 0
2916 7
2917 17
2918 8
2919 12
2920 0
2921 7
2922 28
2923 17
2924 24
2925 21
2926 6
2927 12
2928 15
2929 2
2930 2
2931 6
2932 17
2933 7
2934 7
2935 0
2936 6
2937 6
2938 6
2939 7
2940 21
2941 12
2942 15
2943 8
2944 7
2945 27
2946 22
2947 7
2948 6
2949 6
2950 11
2951 0
2952 20
2953 10
2954 12
2955 0
2956 0
2957 21
2958 10
2959 21
2960 22
2961 21
2962 0
2963 0
2964 8
2965 0
2966 6
2967 15
2968 2
2969 15
2970 7
2971 7
2972 22
2973 6
2974 17
2975 26
2976 16
2977 6
2978 11
2979 16
2980 3
2981 20
2982 22
2983 0
2984 17
2985 17
2986 7
2987 15
2988 2
2989 6
2990 0
2991 6
2992 19
2993 3
2994 12
2995 15
2996 22
2997 22
2998 0
2999 0
3000 2
3001 12
3002 8
3003 11
3004 7
3005 8
3006 12
3007 2
3008 15
3009 11
3010 22
3011 6
3012 27
3013 8
3014 17
3015 7
3016 22
3017 12
3018 7
3019 15
3020 17
3021 4
3022 11
3023 11
3024 22
3025 29
3026 3
3027 15
3028 0
3029 23
3030 2
3031 24
3032 21
3033 7
3034 0
3035 2
3036 13
3037 12
3038 12
3039 2
3040 3
3041 28
3042 0
3043 12
3044 24
3045 12
3046 3
3047 27
3048 1
3049 7
3050 13
3051 1
3052 11
3053 22
3054 22
3055 2
3056 0
3057 15
3058 15
3059 17
3060 0
3061 6
3062 11
3063 13
3064 1
3065 2
3066 21
3067 17
3068 3
3069 17
3070 17
3071 7
3072 3
3073 6
3074 6
3075 17
3076 7
3077 20
3078 3
3079 1
3080 12
3081 8
3082 11
3083 0
3084 22
3085 12
3086 7
3087 7
3088 17
3089 8
3090 7
3091 28
3092 17
3093 20
3094 12
3095 12
3096 20
3097 0
3098 0
3099 11
3100 7
3101 11
3102 9
3103 20
3104 0
3105 20
3106 30
3107 0
3108 18
3109 11
3110 12
3111 17
3112 24
3113 17
3114 6
3115 7
3116 13
3117 7
3118 21
3119 7
3120 11
3121 12
3122 15
3123 7
3124 14
3125 6
3126 22
3127 6
3128 6
3129 2
3130 1
3131 14
3132 0
3133 1
3134 6
3135 21
3136 17
3137 2
3138 18
3139 11
3140 13
3141 2
3142 30
3143 7
3144 12
3145 6
3146 7
3147 21
3148 17
3149 12
3150 8
3151 15
3152 8
3153 1
3154 0
3155 0
3156 12
3157 11
3158 21
3159 1
3160 15
3161 6
3162 17
3163 17
3164 12
3165 6
3166 4
3167 22
3168 15
3169 3
3170 22
3171 17
3172 7
3173 8
3174 22
3175 0
3176 2
3177 17
3178 3
3179 21
3180 7
3181 0
3182 0
3183 11
3184 11
3185 17
3186 8
3187 7
3188 12
3189 0
3190 11
3191 6
3192 11
3193 15
3194 7
3195 4
3196 7
3197 0
3198 4
3199 2
3200 24
3201 6
3202 6
3203 11
3204 7
3205 9
3206 7
3207 0
3208 7
3209 11
3210 7
3211 24
3212 1
3213 7
3214 11
3215 22
3216 7
3217 4
3218 11
3219 6
3220 11
3221 17
3222 7
3223 11
3224 0
3225 7
3226 15
3227 6
3228 25
3229 15
3230 7
3231 0
3232 21
3233 21
3234 2
3235 22
3236 6
3237 7
3238 6
3239 7
3240 11
3241 0
3242 8
3243 4
3244 25
3245 17
3246 0
3247 21
3248 11
3249 21
3250 17
3251 12
3252 0
3253 11
3254 6
3255 7
3256 2
3257 12
3258 12
3259 15
3260 6
3261 22
3262 0
3263 0
3264 6
3265 6
3266 7
3267 0
3268 7
3269 7
3270 11
3271 11
3272 0
3273 3
3274 7
3275 15
3276 7
3277 0
3278 2
3279 15
3280 17
3281 0
3282 7
3283 7
3284 6
3285 0
3286 1
3287 7
3288 12
3289 7
3290 0
3291 11
3292 2
3293 0
3294 2
3295 21
3296 6
3297 6
3298 0
3299 1
3300 11
3301 11
3302 2
3303 0
3304 6
3305 2
3306 7
3307 2
3308 15
3309 23
3310 0
3311 6
3312 4
3313 6
3314 22
3315 22
3316 20
3317 4
3318 21
3319 7
3320 21
3321 29
3322 1
3323 0
3324 6
3325 23
3326 4
3327 22
3328 6
3329 17
3330 11
3331 11
3332 18
3333 0
3334 13
3335 11
3336 24
3337 11
3338 12
3339 15
3340 22
3341 12
3342 19
3343 21
3344 0
3345 7
3346 0
3347 11
3348 0
3349 13
3350 0
3351 0
3352 7
3353 2
3354 15
3355 21
3356 15
3357 3
3358 7
3359 12
3360 20
3361 27
3362 7
3363 0
3364 7
3365 6
3366 0
3367 15
3368 21
3369 7
3370 3
3371 24
3372 3
3373 17
3374 11
3375 6
3376 2
3377 3
3378 12
3379 17
3380 2
3381 0
3382 12
3383 12
3384 4
3385 7
3386 17
3387 2
3388 5
3389 20
3390 12
3391 12
3392 16
3393 19
3394 0
3395 0
3396 21
3397 7
3398 29
3399 6
3400 0
3401 3
3402 3
3403 4
3404 12
3405 7
3406 0
3407 7
3408 19
3409 7
3410 13
3411 16
3412 11
3413 0
3414 4
3415 6
3416 6
3417 3
3418 2
3419 11
3420 0
3421 0
3422 22
3423 9
3424 4
3425 1
3426 11
3427 9
3428 2
3429 6
3430 6
3431 6
3432 17
3433 2
3434 9
3435 7
3436 0
3437 17
3438 9
3439 0
3440 2
3441 1
3442 7
3443 24
3444 2
3445 15
3446 11
3447 0
3448 3
3449 11
3450 0
3451 26
3452 7
3453 7
3454 29
3455 0
3456 2
3457 3
3458 10
3459 25
3460 22
3461 1
3462 15
3463 10
3464 11
3465 6
3466 0
3467 12
3468 4
3469 17
3470 1
3471 7
3472 6
3473 22
3474 15
3475 12
3476 2
3477 2
3478 22
3479 7
3480 16
3481 25
3482 7
3483 3
3484 7
3485 6
3486 6
3487 0
3488 7
3489 20
3490 9
3491 7
3492 17
3493 7
3494 21
3495 11
3496 17
3497 19
3498 11
3499 7
3500 17
3501 6
3502 12
3503 11
3504 3
3505 11
3506 17
3507 3
3508 0
3509 7
3510 12
3511 2
3512 22
3513 6
3514 17
3515 7
3516 15
3517 20
3518 7
3519 16
3520 6
3521 11
3522 2
3523 12
3524 0
3525 21
3526 19
3527 12
3528 17
3529 6
3530 17
3531 20
3532 11
3533 15
3534 2
3535 17
3536 6
3537 0
3538 16
3539 5
3540 12
3541 17
3542 1
3543 12
3544 24
3545 16
3546 19
3547 7
3548 2
3549 21
3550 17
3551 22
3552 11
3553 7
3554 11
3555 11
3556 2
3557 0
3558 21
3559 2
3560 0
3561 7
3562 0
3563 0
3564 6
3565 11
3566 4
3567 17
3568 2
3569 0
3570 12
3571 2
3572 6
3573 17
3574 2
3575 18
3576 9
3577 20
3578 7
3579 12
3580 3
3581 2
3582 22
3583 18
3584 2
3585 12
3586 0
3587 17
3588 17
3589 9
3590 24
3591 18
3592 23
3593 7
3594 17
3595 24
3596 2
3597 22
3598 20
3599 7
3600 17
3601 6
3602 22
3603 2
3604 0
3605 11
3606 3
3607 12
3608 2
3609 6
3610 1
3611 28
3612 7
3613 9
3614 1
3615 0
3616 7
3617 12
3618 3
3619 12
3620 22
3621 7
3622 23
3623 7
3624 2
3625 3
3626 22
3627 12
3628 7
3629 2
3630 4
3631 7
3632 17
3633 2
3634 6
3635 6
3636 7
3637 12
3638 6
3639 0
3640 7
3641 6
3642 2
3643 1
3644 11
3645 17
3646 7
3647 2
3648 2
3649 2
3650 0
3651 12
3652 30
3653 3
3654 17
3655 3
3656 7
3657 7
3658 7
3659 0
3660 17
3661 6
3662 15
3663 24
3664 7
3665 20
3666 7
3667 7
3668 0
3669 23
3670 0
3671 21
3672 7
3673 2
3674 0
3675 7
3676 7
3677 17
3678 27
3679 20
3680 0
3681 21
3682 22
3683 12
3684 0
3685 7
3686 11
3687 0
3688 7
3689 7
3690 12
3691 17
3692 6
3693 4
3694 0
3695 0
3696 7
3697 14
3698 0
3699 0
3700 5
3701 6
3702 7
3703 21
3704 7
3705 7
3706 11
3707 2
3708 27
3709 4
3710 12
3711 2
3712 22
3713 17
3714 11
3715 12
3716 4
3717 8
3718 7
3719 7
3720 7
3721 6
3722 11
3723 22
3724 3
3725 2
3726 12
3727 2
3728 8
3729 15
3730 0
3731 7
3732 3
3733 3
3734 20
3735 11
3736 2
3737 11
3738 2
3739 17
3740 0
3741 7
3742 7
3743 15
3744 21
3745 6
3746 16
3747 11
3748 7
3749 7
3750 21
3751 7
3752 6
3753 4
3754 6
3755 6
3756 12
3757 13
3758 22
3759 7
3760 0
3761 4
3762 12
3763 19
3764 2
3765 4
3766 21
3767 0
3768 21
3769 17
3770 0
3771 0
3772 22
3773 3
3774 7
3775 7
3776 8
3777 2
3778 11
3779 12
3780 3
3781 21
3782 7
3783 11
3784 7
3785 21
3786 7
3787 17
3788 7
3789 3
3790 6
3791 12
3792 17
3793 7
3794 7
3795 16
3796 7
3797 3
3798 12
3799 7
3800 22
3801 0
3802 2
3803 5
3804 17
3805 7
3806 6
3807 26
3808 0
3809 15
3810 7
3811 12
3812 0
3813 11
3814 6
3815 12
3816 21
3817 15
3818 2
3819 22
3820 3
3821 17
3822 15
3823 7
3824 11
3825 9
3826 7
3827 11
3828 21
3829 11
3830 2
3831 3
3832 7
3833 12
3834 7
3835 13
3836 17
3837 11
3838 17
3839 2
3840 7
3841 7
3842 7
3843 17
3844 15
3845 17
3846 7
3847 0
3848 2
3849 16
3850 6
3851 7
3852 0
3853 3
3854 21
3855 27
3856 7
3857 21
3858 11
3859 22
3860 12
3861 11
3862 0
3863 7
3864 12
3865 12
3866 7
3867 12
3868 7
3869 17
3870 12
3871 6
3872 7
3873 0
3874 6
3875 6
3876 0
3877 7
3878 12
3879 15
3880 0
3881 3
3882 3
3883 18
3884 17
3885 11
3886 7
3887 22
3888 6
3889 0
3890 17
3891 0
3892 3
3893 11
3894 22
3895 12
3896 0
3897 2
3898 0
3899 22
3900 17
3901 8
3902 7
3903 3
3904 11
3905 15
3906 12
3907 8
3908 4
3909 20
3910 7
3911 11
3912 2
3913 22
3914 11
3915 6
3916 12
3917 7
3918 15
3919 28
3920 21
3921 17
3922 2
3923 3
3924 5
3925 12
3926 2
3927 22
3928 27
3929 13
3930 12
3931 6
3932 11
3933 26
3934 7
3935 4
3936 0
3937 7
3938 11
3939 20
3940 11
3941 7
3942 22
3943 7
3944 2
3945 11
3946 11
3947 3
3948 10
3949 12
3950 17
3951 2
3952 11
3953 12
3954 7
3955 6
3956 7
3957 22
3958 9
3959 0
3960 7
3961 16
3962 10
3963 23
3964 16
3965 3
3966 7
3967 6
3968 15
3969 19
3970 17
3971 3
3972 7
3973 6
3974 15
3975 12
3976 7
3977 3
3978 11
3979 7
3980 3
3981 12
3982 17
3983 7
3984 20
3985 7
3986 12
3987 3
3988 22
3989 9
3990 0
3991 8
3992 24
3993 0
3994 21
3995 27
3996 1
3997 22
3998 1
3999 15
4000 14
4001 11
4002 2
4003 0
4004 0
4005 6
4006 21
4007 4
4008 0
4009 1
4010 21
4011 7
4012 4
4013 7
4014 0
4015 7
4016 4
4017 12
4018 1
4019 0
4020 12
4021 20
4022 17
4023 7
4024 11
4025 0
4026 0
4027 7
4028 2
4029 20
4030 17
4031 11
4032 7
4033 0
4034 17
4035 6
4036 22
4037 11
4038 7
4039 6
4040 1
4041 8
4042 6
4043 7
4044 8
4045 4
4046 0
4047 20
4048 7
4049 11
4050 21
4051 6
4052 2
4053 6
4054 2
4055 17
4056 7
4057 12
4058 0
4059 12
4060 17
4061 7
4062 1
4063 20
4064 6
4065 15
4066 2
4067 19
4068 11
4069 2
4070 3
4071 0
4072 7
4073 20
4074 17
4075 10
4076 16
4077 0
4078 13
4079 13
4080 21
4081 3
4082 1
4083 7
4084 7
4085 6
4086 0
4087 17
4088 21
4089 16
4090 24
4091 16
4092 7
4093 27
4094 2
4095 29
4096 7
4097 12
4098 2
4099 7
4100 7
4101 12
4102 7
4103 7
4104 1
4105 0
4106 16
4107 0
4108 6
4109 4
4110 7
4111 20
4112 7
4113 24
4114 11
4115 17
4116 6
4117 11
4118 1
4119 2
4120 17
4121 0
4122 17
4123 24
4124 17
4125 12
4126 7
4127 17
4128 0
4129 20
4130 6
4131 1
4132 15
4133 7
4134 11
4135 22
4136 17
4137 7
4138 3
4139 0
4140 7
4141 5
4142 12
4143 3
4144 0
4145 17
4146 7
4147 0
4148 24
4149 22
4150 15
4151 3
4152 0
4153 11
4154 26
4155 15
4156 23
4157 11
4158 7
4159 12
4160 4
4161 0
4162 18
4163 12
4164 17
4165 13
4166 7
4167 3
4168 5
4169 0
4170 29
4171 2
4172 12
4173 7
4174 12
4175 7
4176 5
4177 15
4178 2
4179 19
4180 7
4181 8
4182 17
4183 7
4184 29
4185 6
4186 1
4187 15
4188 0
4189 11
4190 0
4191 1
4192 19
4193 9
4194 17
4195 21
4196 0
4197 12
4198 2
4199 0
4200 25
4201 7
4202 12
4203 12
4204 0
4205 22
4206 12
4207 1
4208 6
4209 11
4210 23
4211 1
4212 6
4213 11
4214 0
4215 24
4216 21
4217 0
4218 15
4219 15
4220 7
4221 2
4222 15
4223 1
4224 15
4225 7
4226 2
4227 15
4228 0
4229 18
4230 3
4231 11
4232 16
4233 12
4234 12
4235 20
4236 17
4237 29
4238 0
4239 18
4240 16
4241 15
4242 11
4243 11
4244 1
4245 2
4246 20
4247 12
4248 7
4249 6
4250 21
4251 2
4252 22
4253 11
4254 22
4255 28
4256 0
4257 20
4258 0
4259 12
4260 20
4261 0
4262 0
4263 19
4264 4
4265 12
4266 3
4267 12
4268 6
4269 7
4270 14
4271 19
4272 0
4273 4
4274 0
4275 0
4276 7
4277 15
4278 12
4279 11
4280 7
4281 0
4282 19
4283 15
4284 11
4285 6
4286 11
4287 17
4288 11
4289 23
4290 0
4291 15
4292 1
4293 15
4294 11
4295 17
4296 11
4297 6
4298 10
4299 9
4300 18
4301 11
4302 15
4303 2
4304 11
4305 8
4306 0
4307 0
4308 29
4309 21
4310 1
4311 4
4312 12
4313 7
4314 20
4315 11
4316 18
4317 6
4318 17
4319 13
4320 12
4321 0
4322 2
4323 12
4324 17
4325 12
4326 0
4327 12
4328 20
4329 17
4330 17
4331 12
4332 24
4333 7
4334 2
4335 11
4336 3
4337 7
4338 0
4339 2
4340 15
4341 15
4342 17
4343 3
4344 3
4345 4
4346 18
4347 9
4348 6
4349 17
4350 11
4351 21
4352 1
4353 7
4354 7
4355 21
4356 1
4357 14
4358 0
4359 18
4360 15
4361 17
4362 9
4363 2
4364 6
4365 3
4366 2
4367 0
4368 6
4369 3
4370 28
4371 20
4372 2
4373 7
4374 0
4375 0
4376 3
4377 12
4378 7
4379 7
4380 2
4381 11
4382 15
4383 0
4384 15
4385 1
4386 7
4387 23
4388 15
4389 3
4390 0
4391 2
4392 15
4393 0
4394 18
4395 2
4396 6
4397 6
4398 12
4399 3
4400 4
4401 2
4402 23
4403 7
4404 6
4405 8
4406 11
4407 10
4408 7
4409 15
4410 19
4411 6
4412 7
4413 25
4414 7
4415 0
4416 8
4417 6
4418 7
4419 15
4420 8
4421 0
4422 15
4423 17
4424 17
4425 2
4426 3
4427 0
4428 20
4429 0
4430 19
4431 12
4432 12
4433 24
4434 2
4435 20
4436 15
4437 2
4438 3
4439 2
4440 2
4441 3
4442 2
4443 2
4444 20
4445 0
4446 3
4447 12
4448 30
4449 7
4450 11
4451 17
4452 10
4453 15
4454 1
4455 0
4456 22
4457 6
4458 6
4459 0
4460 12
4461 2
4462 15
4463 9
4464 6
4465 27
4466 1
4467 7
4468 7
4469 2
4470 2
4471 0
4472 7
4473 7
4474 3
4475 7
4476 20
4477 6
4478 22
4479 28
4480 23
4481 20
4482 20
4483 7
4484 21
4485 15
4486 17
4487 17
4488 0
4489 24
4490 12
4491 0
4492 0
4493 20
4494 19
4495 12
4496 4
4497 1
4498 7
4499 28
4500 17
4501 0
4502 20
4503 11
4504 11
4505 11
4506 6
4507 20
4508 15
4509 7
4510 0
4511 7
4512 4
4513 3
4514 4
4515 7
4516 11
4517 12
4518 3
4519 20
4520 3
4521 0
4522 0
4523 0
4524 15
4525 20
4526 3
4527 12
4528 6
4529 0
4530 0
4531 2
4532 17
4533 0
4534 12
4535 9
4536 3
4537 11
4538 20
4539 21
4540 15
4541 7
4542 11
4543 11
4544 11
4545 12
4546 0
4547 11
4548 16
4549 7
4550 11
4551 12
4552 3
4553 8
4554 11
4555 11
4556 6
4557 12
4558 17
4559 7
4560 6
4561 7
4562 7
4563 0
4564 0
4565 12
4566 7
4567 12
4568 17
4569 24
4570 21
4571 12
4572 7
4573 3
4574 8
4575 0
4576 30
4577 12
4578 11
4579 0
4580 12
4581 2
4582 8
4583 1
4584 0
4585 7
4586 2
4587 0
4588 12
4589 17
4590 11
4591 2
4592 7
4593 0
4594 17
4595 0
4596 11
4597 12
4598 0
4599 3
4600 7
4601 17
4602 7
4603 21
4604 0
4605 0
4606 0
4607 11
4608 17
4609 1
4610 2
4611 19
4612 7
4613 15
4614 17
4615 28
4616 7
4617 7
4618 11
4619 22
4620 17
4621 11
4622 16
4623 15
4624 21
4625 11
4626 0
4627 7
4628 24
4629 20
4630 7
4631 1
4632 11
4633 6
4634 0
4635 21
4636 2
4637 7
4638 15
4639 15
4640 13
4641 17
4642 0
4643 26
4644 0
4645 11
4646 0
4647 11
4648 4
4649 17
4650 27
4651 6
4652 1
4653 0
4654 17
4655 24
4656 16
4657 0
4658 11
4659 9
4660 2
4661 7
4662 15
4663 0
4664 0
4665 1
4666 12
4667 20
4668 0
4669 21
4670 11
4671 26
4672 7
4673 0
4674 0
4675 12
4676 17
4677 2
4678 11
4679 7
4680 4
4681 22
4682 6
4683 7
4684 3
4685 4
4686 1
4687 21
4688 8
4689 0
4690 17
4691 7
4692 15
4693 0
4694 11
4695 17
4696 15
4697 2
4698 14
4699 8
4700 24
4701 2
4702 21
4703 7
4704 3
4705 2
4706 5
4707 11
4708 1
4709 17
4710 0
4711 12
4712 7
4713 20
4714 7
4715 0
4716 3
4717 10
4718 1
4719 1
4720 0
4721 16
4722 12
4723 0
4724 21
4725 11
4726 15
4727 4
4728 16
4729 0
4730 14
4731 22
4732 12
4733 0
4734 21
4735 7
4736 2
4737 2
4738 7
4739 23
4740 21
4741 12
4742 7
4743 18
4744 7
4745 17
4746 7
4747 7
4748 10
4749 27
4750 15
4751 10
4752 22
4753 3
4754 11
4755 7
4756 12
4757 20
4758 12
4759 0
4760 23
4761 6
4762 1
4763 22
4764 27
4765 11
4766 8
4767 6
4768 7
4769 11
4770 3
4771 16
4772 7
4773 15
4774 0
4775 2
4776 1
4777 3
4778 11
4779 2
4780 18
4781 7
4782 20
4783 0
4784 0
4785 12
4786 7
4787 23
4788 11
4789 7
4790 2
4791 12
4792 29
4793 8
4794 7
4795 0
4796 2
4797 0
4798 6
4799 24
4800 22
4801 15
4802 4
4803 11
4804 12
4805 15
4806 7
4807 11
4808 2
4809 12
4810 0
4811 8
4812 12
4813 7
4814 1
4815 12
4816 12
4817 3
4818 7
4819 6
4820 16
4821 6
4822 0
4823 14
4824 7
4825 22
4826 20
4827 7
4828 3
4829 21
4830 9
4831 16
4832 0
4833 12
4834 8
4835 11
4836 7
4837 17
4838 11
4839 24
4840 9
4841 18
4842 16
4843 6
4844 15
4845 7
4846 22
4847 20
4848 22
4849 8
4850 11
4851 15
4852 0
4853 0
4854 7
4855 7
4856 20
4857 0
4858 6
4859 7
4860 24
4861 15
4862 7
4863 15
4864 17
4865 7
4866 15
4867 17
4868 20
4869 9
4870 12
4871 11
4872 7
4873 15
4874 7
4875 20
4876 11
4877 0
4878 2
4879 3
4880 10
4881 11
4882 6
4883 21
4884 12
4885 22
4886 11
4887 2
4888 6
4889 2
4890 21
4891 11
4892 4
4893 7
4894 0
4895 6
4896 12
4897 18
4898 7
4899 11
4900 11
4901 0
4902 12
4903 7
4904 17
4905 3
4906 7
4907 0
4908 0
4909 8
4910 15
4911 22
4912 11
4913 11
4914 6
4915 4
4916 3
4917 23
4918 7
4919 7
4920 15
4921 7
4922 15
4923 11
4924 3
4925 4
4926 21
4927 11
4928 13
4929 7
4930 28
4931 1
4932 11
4933 3
4934 7
4935 12
4936 0
4937 7
4938 2
4939 0
4940 1
4941 0
4942 17
4943 12
4944 22
4945 12
4946 0
4947 5
4948 22
4949 6
4950 19
4951 15
4952 7
4953 7
4954 0
4955 0
4956 0
4957 0
4958 3
4959 0
4960 12
4961 4
4962 22
4963 17
4964 8
4965 8
4966 3
4967 7
4968 8
4969 15
4970 3
4971 12
4972 12
4973 12
4974 20
4975 2
4976 12
4977 7
4978 0
4979 0
4980 7
4981 17
4982 0
4983 0
4984 17
4985 21
4986 17
4987 0
4988 0
4989 12
4990 0
4991 3
4992 11
4993 6
4994 12
4995 2
4996 12
4997 1
4998 7
4999 2
5000 0
5001 7
5002 12
5003 6
5004 22
5005 0
5006 3
5007 15
5008 11
5009 17
5010 12
5011 11
5012 4
5013 0
5014 20
5015 10
5016 11
5017 3
5018 0
5019 12
5020 0
5021 12
5022 7
5023 7
5024 5
5025 4
5026 0
5027 7
5028 4
5029 0
5030 10
5031 0
5032 11
5033 0
5034 11
5035 3
5036 7
5037 11
5038 17
5039 0
5040 1
5041 21
5042 9
5043 15
5044 22
5045 2
5046 11
5047 12
5048 22
5049 7
5050 6
5051 7
5052 3
5053 3
5054 8
5055 7
5056 11
5057 0
5058 11
5059 7
5060 17
5061 11
5062 11
5063 0
5064 12
5065 12
5066 7
5067 2
5068 7
5069 0
5070 3
5071 7
5072 11
5073 0
5074 16
5075 2
5076 22
5077 17
5078 0
5079 25
5080 11
5081 21
5082 0
5083 11
5084 7
5085 12
5086 7
5087 6
5088 21
5089 0
5090 12
5091 2
5092 21
5093 17
5094 9
5095 11
5096 21
5097 0
5098 0
5099 12
5100 24
5101 2
5102 0
5103 11
5104 11
5105 0
5106 12
5107 7
5108 12
5109 7
5110 11
5111 0
5112 7
5113 0
5114 7
5115 12
5116 6
5117 3
5118 22
5119 1
5120 9
5121 15
5122 16
5123 13
5124 12
5125 20
5126 11
5127 2
5128 9
5129 0
5130 4
5131 11
5132 0
5133 17
5134 0
5135 15
5136 7
5137 0
5138 7
5139 12
5140 11
5141 22
5142 29
5143 3
5144 17
5145 15
5146 10
5147 4
5148 6
5149 7
5150 2
5151 7
5152 17
5153 17
5154 0
5155 21
5156 7
5157 5
5158 2
5159 21
5160 11
5161 12
5162 6
5163 6
5164 15
5165 16
5166 14
5167 23
5168 0
5169 9
5170 0
5171 8
5172 6
5173 12
5174 7
5175 6
5176 7
5177 11
5178 17
5179 12
5180 11
5181 0
5182 29
5183 17
5184 8
5185 12
5186 6
5187 7
5188 8
5189 15
5190 7
5191 0
5192 19
5193 1
5194 1
5195 22
5196 9
5197 6
5198 0
5199 2
5200 23
5201 23
5202 1
5203 17
5204 24
5205 17
5206 6
5207 18
5208 21
5209 0
5210 7
5211 2
5212 11
5213 11
5214 7
5215 3
5216 7
5217 15
5218 11
5219 22
5220 2
5221 11
5222 3
5223 17
5224 7
5225 1
5226 3
5227 2
5228 18
5229 11
5230 17
5231 11
5232 19
5233 17
5234 21
5235 24
5236 0
5237 5
5238 2
5239 7
5240 6
5241 15
5242 8
5243 0
5244 6
5245 17
5246 22
5247 7
5248 6
5249 8
5250 6
5251 12
5252 2
5253 6
5254 2
5255 23
5256 0
5257 15
5258 17
5259 7
5260 7
5261 21
5262 11
5263 7
5264 0
5265 12
5266 7
5267 1
5268 11
5269 0
5270 6
5271 17
5272 1
5273 1
5274 11
5275 12
5276 7
5277 15
5278 7
5279 3
5280 17
5281 0
5282 4
5283 30
5284 0
5285 4
5286 9
5287 29
5288 4
5289 20
5290 21
5291 6
5292 7
5293 12
5294 2
5295 1
5296 0
5297 8
5298 19
5299 7
5300 22
5301 13
5302 15
5303 7
5304 6
5305 7
5306 2
5307 21
5308 22
5309 7
5310 1
5311 2
5312 0
5313 3
5314 3
5315 3
5316 7
5317 12
5318 0
5319 7
5320 15
5321 20
5322 11
5323 22
5324 11
5325 6
5326 2
5327 8
5328 17
5329 0
5330 15
5331 7
5332 6
5333 0
5334 0
5335 3
5336 17
5337 17
5338 6
5339 0
5340 12
5341 2
5342 7
5343 24
5344 12
5345 22
5346 10
5347 17
5348 4
5349 2
5350 4
5351 20
5352 6
5353 20
5354 28
5355 0
5356 15
5357 1
5358 28
5359 7
5360 24
5361 3
5362 16
5363 2
5364 15
5365 3
5366 0
5367 8
5368 5
5369 21
5370 11
5371 0
5372 3
5373 0
5374 8
5375 18
5376 2
5377 0
5378 3
5379 7
5380 17
5381 1
5382 15
5383 5
5384 0
5385 7
5386 0
5387 0
5388 7
5389 2
5390 12
5391 12
5392 11
5393 1
5394 3
5395 15
5396 12
5397 6
5398 11
5399 0
5400 19
5401 21
5402 0
5403 0
5404 12
5405 7
5406 0
5407 7
5408 4
5409 17
5410 11
5411 2
5412 17
5413 7
5414 2
5415 12
5416 12
5417 7
5418 12
5419 12
5420 12
5421 22
5422 0
5423 11
5424 11
5425 22
5426 8
5427 29
5428 21
5429 17
5430 5
5431 0
5432 0
5433 7
5434 11
5435 7
5436 7
5437 0
5438 7
5439 0
5440 7
5441 16
5442 17
5443 11
5444 11
5445 0
5446 0
5447 3
5448 0
5449 2
5450 7
5451 6
5452 2
5453 2
5454 22
5455 6
5456 11
5457 3
5458 22
5459 7
5460 15
5461 21
5462 3
5463 8
5464 24
5465 19
5466 7
5467 2
5468 7
5469 7
5470 11
5471 2
5472 7
5473 7
5474 7
5475 7
5476 6
5477 6
5478 7
5479 11
5480 2
5481 0
5482 7
5483 2
5484 2
5485 11
5486 11
5487 24
5488 7
5489 7
5490 6
5491 2
5492 3
5493 3
5494 3
5495 0
5496 11
5497 6
5498 12
5499 15
5500 9
5501 4
5502 10
5503 3
5504 7
5505 12
5506 17
5507 14
5508 0
5509 3
5510 7
5511 11
5512 7
5513 15
5514 12
5515 0
5516 0
5517 7
5518 12
5519 9
5520 12
5521 6
5522 7
5523 21
5524 6
5525 12
5526 22
5527 19
5528 26
5529 2
5530 24
5531 19
5532 6
5533 0
5534 17
5535 22
5536 6
5537 12
5538 19
5539 0
5540 7
5541 1
5542 15
5543 7
5544 0
5545 13
5546 0
5547 16
5548 7
5549 11
5550 4
5551 17
5552 5
5553 8
5554 20
5555 7
5556 12
5557 12
5558 0
5559 7
5560 17
5561 28
5562 2
5563 8
5564 11
5565 7
5566 0
5567 2
5568 11
5569 0
5570 11
5571 4
5572 0
5573 15
5574 17
5575 19
5576 2
5577 3
5578 24
5579 2
5580 15
5581 0
5582 13
5583 0
5584 11
5585 11
5586 11
5587 3
5588 2
5589 18
5590 2
5591 7
5592 1
5593 7
5594 7
5595 20
5596 17
5597 16
5598 24
5599 3
5600 17
5601 0
5602 19
5603 2
5604 29
5605 11
5606 7
5607 3
5608 12
5609 16
5610 22
5611 2
5612 4
5613 7
5614 22
5615 12
5616 0
5617 12
5618 7
5619 20
5620 12
5621 1
5622 2
5623 1
5624 17
5625 11
5626 4
5627 12
5628 24
5629 4
5630 22
5631 3
5632 3
5633 11
5634 7
5635 12
5636 22
5637 18
5638 1
5639 2
5640 22
5641 4
5642 0
5643 6
5644 12
5645 1
5646 15
5647 3
5648 2
5649 7
5650 1
5651 7
5652 14
5653 0
5654 8
5655 6
5656 17
5657 7
5658 6
5659 7
5660 21
5661 3
5662 7
5663 12
5664 6
5665 9
5666 0
5667 0
5668 17
5669 7
5670 13
5671 11
5672 9
5673 17
5674 11
5675 6
5676 11
5677 17
5678 0
5679 3
5680 1
5681 2
5682 24
5683 15
5684 7
5685 7
5686 2
5687 0
5688 2
5689 17
5690 19
5691 7
5692 16
5693 22
5694 11
5695 0
5696 2
5697 0
5698 7
5699 11
5700 17
5701 1
5702 4
5703 0
5704 7
5705 6
5706 11
5707 29
5708 1
5709 3
5710 22
5711 2
5712 4
5713 6
5714 7
5715 3
5716 11
5717 12
5718 7
5719 12
5720 11
5721 27
5722 22
5723 5
5724 12
5725 1
5726 22
5727 23
5728 22
5729 28
5730 8
5731 13
5732 15
5733 3
5734 7
5735 25
5736 21
5737 18
5738 0
5739 12
5740 7
5741 15
5742 11
5743 1
5744 2
5745 0
5746 20
5747 11
5748 11
5749 0
5750 7
5751 2
5752 7
5753 10
5754 7
5755 0
5756 11
5757 2
5758 16
5759 0
5760 16
5761 1
5762 3
5763 2
5764 21
5765 15
5766 21
5767 7
5768 7
5769 11
5770 18
5771 13
5772 6
5773 7
5774 12
5775 7
5776 2
5777 12
5778 0
5779 2
5780 11
5781 0
5782 20
5783 11
5784 0
5785 21
5786 7
5787 8
5788 0
5789 15
5790 17
5791 7
5792 0
5793 1
5794 7
5795 3
5796 6
5797 4
5798 14
5799 11
5800 20
5801 7
5802 2
5803 0
5804 22
5805 3
5806 0
5807 16
5808 3
5809 7
5810 12
5811 30
5812 15
5813 3
5814 0
5815 11
5816 10
5817 7
5818 8
5819 0
5820 7
5821 0
5822 0
5823 13
5824 15
5825 13
5826 15
5827 11
5828 6
5829 11
5830 1
5831 2
5832 11
5833 2
5834 9
5835 1
5836 7
5837 7
5838 6
5839 0
5840 8
5841 2
5842 6
5843 6
5844 7
5845 22
5846 0
5847 3
5848 22
5849 15
5850 6
5851 2
5852 11
5853 5
5854 17
5855 6
5856 3
5857 0
5858 11
5859 16
5860 22
5861 7
5862 7
5863 4
5864 2
5865 12
5866 0
5867 23
5868 6
5869 11
5870 7
5871 2
5872 7
5873 0
5874 0
5875 0
5876 11
5877 11
5878 0
5879 7
5880 17
5881 13
5882 23
5883 17
5884 11
5885 0
5886 7
5887 3
5888 10
5889 0
5890 12
5891 17
5892 12
5893 11
5894 2
5895 7
5896 10
5897 20
5898 11
5899 7
5900 4
5901 12
5902 16
5903 0
5904 3
5905 0
5906 12
5907 2
5908 7
5909 11
5910 21
5911 7
5912 2
5913 0
5914 23
5915 3
5916 12
5917 8
5918 15
5919 7
5920 17
5921 2
5922 0
5923 11
5924 15
5925 4
5926 1
5927 11
5928 17
5929 2
5930 17
5931 0
5932 1
5933 11
5934 17
5935 17
5936 7
5937 9
5938 28
5939 11
5940 14
5941 21
5942 14
5943 7
5944 12
5945 22
5946 0
5947 11
5948 0
5949 11
5950 7
5951 5
5952 1
5953 0
5954 14
5955 15
5956 0
5957 22
5958 15
5959 12
5960 2
5961 11
5962 11
5963 22
5964 20
5965 17
5966 12
5967 0
5968 0
5969 22
5970 7
5971 1
5972 12
5973 12
5974 6
5975 8
5976 15
5977 22
5978 12
5979 22
5980 6
5981 6
5982 23
5983 0
5984 21
5985 11
5986 17
5987 7
5988 2
5989 22
5990 0
5991 0
5992 0
5993 24
5994 21
5995 16
5996 7
5997 7
5998 17
5999 12
6000 7
6001 12
6002 15
6003 15
6004 11
6005 11
6006 8
6007 11
6008 2
6009 26
6010 7
6011 17
6012 22
6013 11
6014 7
6015 6
6016 3
6017 7
6018 3
6019 17
6020 0
6021 22
6022 0
6023 10
6024 12
6025 1
6026 2
6027 7
6028 6
6029 2
6030 2
6031 0
6032 20
6033 7
6034 22
6035 0
6036 22
6037 20
6038 3
6039 11
6040 0
6041 11
6042 28
6043 0
6044 22
6045 1
6046 11
6047 11
6048 1
6049 16
6050 11
6051 7
6052 2
6053 3
6054 0
6055 0
6056 11
6057 20
6058 7
6059 0
6060 0
6061 27
6062 3
6063 0
6064 10
6065 11
6066 7
6067 0
6068 2
6069 6
6070 0
6071 1
6072 15
6073 7
6074 11
6075 9
6076 7
6077 0
6078 0
6079 7
6080 11
6081 17
6082 6
6083 0
6084 7
6085 2
6086 7
6087 4
6088 12
6089 20
6090 6
6091 11
6092 1
6093 7
6094 22
6095 0
6096 7
6097 7
6098 20
6099 3
6100 7
6101 17
6102 8
6103 15
6104 17
6105 6
6106 12
6107 2
6108 2
6109 22
6110 8
6111 1
6112 21
6113 12
6114 11
6115 3
6116 0
6117 12
6118 2
6119 22
6120 15
6121 21
6122 0
6123 18
6124 8
6125 17
6126 7
6127 12
6128 20
6129 6
6130 7
6131 11
6132 11
6133 6
6134 0
6135 8
6136 29
6137 24
6138 0
6139 3
6140 17
6141 7
6142 2
6143 7
6144 12
6145 11
6146 3
6147 3
6148 17
6149 7
6150 1
6151 10
6152 10
6153 17
6154 7
6155 24
6156 21
6157 3
6158 15
6159 9
6160 7
6161 11
6162 17
6163 7
6164 9
6165 11
6166 11
6167 2
6168 4
6169 0
6170 0
6171 12
6172 21
6173 6
6174 24
6175 22
6176 2
6177 0
6178 11
6179 17
6180 21
6181 11
6182 0
6183 11
6184 7
6185 10
6186 0
6187 0
6188 6
6189 0
6190 2
6191 22
6192 1
6193 16
6194 1
6195 0
6196 21
6197 15
6198 17
6199 0
6200 12
6201 0
6202 22
6203 3
6204 7
6205 18
6206 2
6207 8
6208 23
6209 7
6210 17
6211 7
6212 22
6213 20
6214 17
6215 17
6216 11
6217 2
6218 12
6219 17
6220 19
6221 17
6222 17
6223 0
6224 4
6225 7
6226 7
6227 2
6228 11
6229 7
6230 17
6231 0
6232 21
6233 7
6234 21
6235 0
6236 24
6237 7
6238 8
6239 3
6240 2
6241 17
6242 11
6243 0
6244 21
6245 0
6246 7
6247 9
6248 4
6249 12
6250 0
6251 17
6252 0
6253 0
6254 11
6255 12
6256 0
6257 12
6258 11
6259 17
6260 6
6261 4
6262 11
6263 20
6264 11
6265 12
6266 21
6267 11
6268 4
6269 17
6270 20
6271 6
6272 0
6273 7
6274 12
6275 26
6276 0
6277 3
6278 20
6279 0
6280 0
6281 15
6282 7
6283 12
6284 12
6285 4
6286 12
6287 2
6288 12
6289 7
6290 1
6291 30
6292 12
6293 4
6294 3
6295 12
6296 7
6297 11
6298 7
6299 6
6300 17
6301 15
6302 11
6303 25
6304 3
6305 7
6306 7
6307 1
6308 17
6309 12
6310 0
6311 11
6312 11
6313 28
6314 7
6315 17
6316 21
6317 21
6318 12
6319 7
6320 3
6321 0
6322 0
6323 11
6324 7
6325 17
6326 0
6327 0
6328 6
6329 21
6330 15
6331 0
6332 22
6333 0
6334 24
6335 0
6336 0
6337 6
6338 11
6339 7
6340 1
6341 15
6342 2
6343 3
6344 6
6345 3
6346 2
6347 12
6348 7
6349 12
6350 23
6351 17
6352 16
6353 7
6354 15
6355 0
6356 17
6357 24
6358 2
6359 3
6360 22
6361 12
6362 17
6363 11
6364 28
6365 7
6366 2
6367 12
6368 12
6369 6
6370 21
6371 0
6372 2
6373 29
6374 22
6375 23
6376 1
6377 7
6378 0
6379 7
6380 6
6381 7
6382 12
6383 21
6384 12
6385 17
6386 17
6387 7
6388 22
6389 7
6390 22
6391 6
6392 0
6393 0
6394 8
6395 22
6396 21
6397 21
6398 17
6399 7
6400 22
6401 0
6402 17
6403 21
6404 21
6405 6
6406 12
6407 0
6408 11
6409 17
6410 21
6411 1
6412 2
6413 2
6414 2
6415 12
6416 7
6417 12
6418 18
6419 2
6420 6
6421 4
6422 17
6423 15
6424 22
6425 21
6426 21
6427 12
6428 7
6429 12
6430 0
6431 6
6432 0
6433 24
6434 3
6435 3
6436 11
6437 7
6438 3
6439 2
6440 17
6441 0
6442 2
6443 11
6444 0
6445 11
6446 0
6447 12
6448 22
6449 12
6450 7
6451 22
6452 17
6453 2
6454 28
6455 0
6456 7
6457 20
6458 5
6459 1
6460 11
6461 8
6462 0
6463 0
6464 0
6465 6
6466 20
6467 7
6468 6
6469 7
6470 17
6471 12
6472 7
6473 12
6474 22
6475 7
6476 12
6477 6
6478 6
6479 6
6480 12
6481 11
6482 12
6483 27
6484 9
6485 0
6486 7
6487 7
6488 21
6489 10
6490 2
6491 6
6492 21
6493 2
6494 17
6495 6
6496 17
6497 3
6498 0
6499 12
6500 15
6501 4
6502 22
6503 7
6504 14
6505 0
6506 12
6507 11
6508 12
6509 0
6510 0
6511 12
6512 22
6513 0
6514 2
6515 0
6516 7
6517 3
6518 15
6519 6
6520 3
6521 6
6522 2
6523 22
6524 7
6525 11
6526 7
6527 28
6528 28
6529 12
6530 0
6531 0
6532 7
6533 0
6534 22
6535 0
6536 21
6537 1
6538 4
6539 12
6540 1
6541 11
6542 7
6543 7
6544 7
6545 7
6546 7
6547 22
6548 0
6549 17
6550 2
6551 28
6552 0
6553 11
6554 7
6555 0
6556 1
6557 11
6558 3
6559 11
6560 11
6561 7
6562 23
6563 0
6564 16
6565 8
6566 0
6567 21
6568 0
6569 12
6570 20
6571 15
6572 2
6573 11
6574 7
6575 0
6576 3
6577 6
6578 8
6579 0
6580 5
6581 0
6582 3
6583 21
6584 7
6585 7
6586 10
6587 0
6588 7
6589 20
6590 0
6591 7
6592 2
6593 2
6594 3
6595 12
6596 8
6597 4
6598 13
6599 17
6600 0
6601 3
6602 20
6603 17
6604 11
6605 1
6606 2
6607 6
6608 24
6609 11
6610 12
6611 7
6612 11
6613 17
6614 21
6615 11
6616 15
6617 9
6618 17
6619 12
6620 13
6621 6
6622 13
6623 7
6624 9
6625 11
6626 27
6627 11
6628 6
6629 12
6630 20
6631 0
6632 0
6633 24
6634 28
6635 16
6636 22
6637 2
6638 2
6639 11
6640 11
6641 7
6642 21
6643 24
6644 5
6645 28
6646 0
6647 20
6648 4
6649 1
6650 8
6651 12
6652 4
6653 17
6654 3
6655 7
6656 7
6657 2
6658 15
6659 3
6660 17
6661 11
6662 8
6663 9
6664 15
6665 13
6666 7
6667 17
6668 3
6669 15
6670 9
6671 4
6672 11
6673 22
6674 28
6675 12
6676 1
6677 7
6678 17
6679 2
6680 22
6681 7
6682 0
6683 0
6684 1
6685 26
6686 13
6687 28
6688 7
6689 5
6690 0
6691 20
6692 3
6693 17
6694 4
6695 17
6696 17
6697 0
6698 1
6699 12
6700 17
6701 3
6702 13
6703 12
6704 3
6705 0
6706 11
6707 21
6708 5
6709 6
6710 0
6711 11
6712 2
6713 17
6714 16
6715 17
6716 6
6717 4
6718 11
6719 2
6720 0
6721 12
6722 11
6723 8
6724 7
6725 2
6726 8
6727 7
6728 11
6729 6
6730 10
6731 6
6732 0
6733 17
6734 17
6735 11
6736 5
6737 6
6738 0
6739 21
6740 2
6741 10
6742 15
6743 8
6744 7
6745 22
6746 6
6747 17
6748 2
6749 22
6750 3
6751 30
6752 7
6753 0
6754 17
6755 0
6756 12
6757 2
6758 7
6759 3
6760 2
6761 9
6762 7
6763 4
6764 12
6765 27
6766 0
6767 7
6768 9
6769 7
6770 7
6771 12
6772 15
6773 17
6774 11
6775 0
6776 7
6777 7
6778 0
6779 4
6780 17
6781 12
6782 12
6783 4
6784 7
6785 11
6786 12
6787 2
6788 17
6789 11
6790 6
6791 0
6792 12
6793 12
6794 1
6795 15
6796 16
6797 0
6798 6
6799 4
6800 8
6801 1
6802 7
6803 20
6804 11
6805 7
6806 11
6807 12
6808 11
6809 15
6810 11
6811 21
6812 7
6813 21
6814 3
6815 3
6816 8
6817 12
6818 16
6819 0
6820 6
6821 12
6822 2
6823 0
6824 2
6825 0
6826 20
6827 11
6828 8
6829 3
6830 6
6831 7
6832 16
6833 7
6834 7
6835 8
6836 12
6837 22
6838 15
6839 22
6840 7
6841 7
6842 0
6843 11
6844 15
6845 6
6846 7
6847 7
6848 11
6849 6
6850 3
6851 9
6852 7
6853 2
6854 17
6855 0
6856 1
6857 15
6858 15
6859 24
6860 2
6861 11
6862 0
6863 7
6864 3
6865 15
6866 6
6867 2
6868 7
6869 11
6870 7
6871 3
6872 2
6873 7
6874 0
6875 3
6876 21
6877 7
6878 7
6879 7
6880 0
6881 11
6882 17
6883 12
6884 11
6885 8
6886 0
6887 7
6888 22
6889 15
6890 10
6891 12
6892 0
6893 11
6894 11
6895 7
6896 7
6897 2
6898 4
6899 6
6900 12
6901 0
6902 2
6903 7
6904 12
6905 3
6906 12
6907 9
6908 1
6909 7
6910 17
6911 29
6912 2
6913 15
6914 12
6915 2
6916 8
6917 0
6918 6
6919 1
6920 12
6921 11
6922 11
6923 2
6924 16
6925 12
6926 1
6927 0
6928 1
6929 7
6930 11
6931 11
6932 7
6933 0
6934 12
6935 0
6936 27
6937 22
6938 3
6939 3
6940 12
6941 0
6942 16
6943 7
6944 17
6945 11
6946 4
6947 22
6948 0
6949 7
6950 7
6951 2
6952 7
6953 21
6954 2
6955 2
6956 12
6957 12
6958 29
6959 11
6960 18
6961 12
6962 7
6963 1
6964 0
6965 12
6966 9
6967 0
6968 17
6969 17
6970 12
6971 2
6972 2
6973 0
6974 20
6975 17
6976 4
6977 6
6978 15
6979 3
6980 1
6981 4
6982 11
6983 7
6984 3
6985 2
6986 0
6987 12
6988 11
6989 7
6990 7
6991 2
6992 6
6993 6
6994 7
6995 6
6996 12
6997 0
6998 12
6999 3
7000 0
7001 11
7002 11
7003 12
7004 4
7005 17
7006 2
7007 11
7008 22
7009 11
7010 2
7011 6
7012 6
7013 0
7014 20
7015 11
7016 12
7017 15
7018 8
7019 27
7020 17
7021 27
7022 17
7023 2
7024 6
7025 2
7026 7
7027 2
7028 2
7029 7
7030 11
7031 6
7032 6
7033 1
7034 11
7035 0
7036 2
7037 28
7038 1
7039 7
7040 8
7041 11
7042 0
7043 4
7044 22
7045 7
7046 7
7047 11
7048 2
7049 17
7050 4
7051 7
7052 10
7053 17
7054 0
7055 11
7056 0
7057 7
7058 7
7059 12
7060 0
7061 18
7062 7
7063 11
7064 11
7065 7
7066 11
7067 0
7068 20
7069 11
7070 13
7071 6
7072 27
7073 0
7074 2
7075 3
7076 8
7077 15
7078 2
7079 22
7080 17
7081 20
7082 20
7083 11
7084 17
7085 17
7086 0
7087 6
7088 0
7089 21
7090 17
7091 17
7092 7
7093 2
7094 12
7095 0
7096 11
7097 12
7098 12
7099 22
7100 17
7101 17
7102 13
7103 22
7104 7
7105 11
7106 15
7107 11
7108 6
7109 3
7110 12
7111 17
7112 22
7113 11
7114 12
7115 21
7116 0
7117 20
7118 1
7119 2
7120 0
7121 4
7122 0
7123 0
7124 22
7125 2
7126 2
7127 0
7128 1
7129 3
7130 12
7131 1
7132 11
7133 11
7134 9
7135 21
7136 22
7137 3
7138 0
7139 11
7140 4
7141 7
7142 11
7143 22
7144 16
7145 24
7146 8
7147 6
7148 0
7149 21
7150 6
7151 6
7152 7
7153 12
7154 3
7155 12
7156 4
7157 6
7158 22
7159 12
7160 11
7161 7
7162 3
7163 15
7164 22
7165 10
7166 11
7167 4
7168 12
7169 0
7170 7
7171 12
7172 11
7173 11
7174 9
7175 21
7176 17
7177 11
7178 6
7179 0
7180 17
7181 0
7182 17
7183 6
7184 20
7185 0
7186 11
7187 0
7188 17
7189 12
7190 6
7191 5
7192 0
7193 8
7194 23
7195 17
7196 7
7197 20
7198 17
7199 11
7200 24
7201 7
7202 11
7203 15
7204 0
7205 15
7206 10
7207 0
7208 11
7209 5
7210 0
7211 12
7212 0
7213 22
7214 22
7215 17
7216 4
7217 17
7218 24
7219 17
7220 2
7221 27
7222 11
7223 17
7224 27
7225 7
7226 11
7227 12
7228 0
7229 7
7230 17
7231 10
7232 2
7233 7
7234 0
7235 11
7236 17
7237 22
7238 0
7239 12
7240 11
7241 2
7242 7
7243 22
7244 4
7245 2
7246 11
7247 7
7248 5
7249 4
7250 25
7251 23
7252 21
7253 6
7254 16
7255 6
7256 7
7257 7
7258 6
7259 22
7260 2
7261 12
7262 21
7263 11
7264 16
7265 2
7266 20
7267 4
7268 0
7269 16
7270 4
7271 8
7272 15
7273 3
7274 13
7275 0
7276 20
7277 17
7278 1
7279 12
7280 7
7281 4
7282 11
7283 7
7284 2
7285 12
7286 14
7287 15
7288 6
7289 0
7290 22
7291 12
7292 15
7293 3
7294 17
7295 17
7296 0
7297 0
7298 11
7299 20
7300 7
7301 6
7302 11
7303 15
7304 0
7305 17
7306 7
7307 19
7308 2
7309 6
7310 7
7311 17
7312 3
7313 11
7314 15
7315 4
7316 7
7317 7
7318 7
7319 17
7320 2
7321 24
7322 6
7323 0
7324 0
7325 17
7326 4
7327 7
7328 7
7329 11
7330 2
7331 17
7332 7
7333 17
7334 0
7335 14
7336 0
7337 12
7338 11
7339 4
7340 21
7341 3
7342 20
7343 7
7344 0
7345 12
7346 1
7347 12
7348 21
7349 0
7350 7
7351 2
7352 16
7353 19
7354 11
7355 6
7356 0
7357 7
7358 0
7359 12
7360 5
7361 0
7362 3
7363 0
7364 11
7365 17
7366 0
7367 2
7368 17
7369 11
7370 11
7371 7
7372 6
7373 6
7374 11
7375 20
7376 8
7377 2
7378 19
7379 7
7380 8
7381 6
7382 4
7383 29
7384 8
7385 11
7386 0
7387 7
7388 22
7389 17
7390 4
7391 12
7392 6
7393 12
7394 30
7395 12
7396 6
7397 11
7398 21
7399 0
7400 0
7401 16
7402 0
7403 7
7404 2
7405 10
7406 28
7407 23
7408 6
7409 3
7410 3
7411 11
7412 0
7413 12
7414 3
7415 0
7416 6
7417 17
7418 2
7419 0
7420 15
7421 0
7422 11
7423 2
7424 17
7425 11
7426 6
7427 27
7428 21
7429 7
7430 16
7431 5
7432 0
7433 7
7434 11
7435 11
7436 15
7437 0
7438 8
7439 2
7440 8
7441 1
7442 2
7443 0
7444 0
7445 7
7446 22
7447 6
7448 0
7449 11
7450 22
7451 0
7452 7
7453 7
7454 17
7455 4
7456 17
7457 7
7458 20
7459 2
7460 22
7461 3
7462 11
7463 2
7464 17
7465 21
7466 3
7467 23
7468 19
7469 12
7470 21
7471 7
7472 5
7473 4
7474 20
7475 17
7476 21
7477 12
7478 7
7479 0
7480 1
7481 7
7482 7
7483 7
7484 0
7485 0
7486 0
7487 0
7488 0
7489 6
7490 17
7491 22
7492 12
7493 0
7494 12
7495 7
7496 24
7497 7
7498 2
7499 12
7500 11
7501 21
7502 11
7503 0
7504 17
7505 1
7506 7
7507 2
7508 8
7509 7
7510 6
7511 12
7512 3
7513 11
7514 0
7515 6
7516 17
7517 0
7518 15
7519 22
7520 22
7521 11
7522 7
7523 7
7524 6
7525 7
7526 11
7527 28
7528 2
7529 21
7530 0
7531 7
7532 0
7533 20
7534 0
7535 22
7536 7
7537 7
7538 0
7539 9
7540 7
7541 12
7542 8
7543 12
7544 3
7545 4
7546 1
7547 3
7548 17
7549 12
7550 21
7551 11
7552 15
7553 11
7554 22
7555 7
7556 1
7557 11
7558 3
7559 6
7560 17
7561 6
7562 30
7563 3
7564 1
7565 6
7566 6
7567 7
7568 12
7569 11
7570 0
7571 0
7572 2
7573 22
7574 10
7575 15
7576 7
7577 2
7578 0
7579 15
7580 12
7581 7
7582 0
7583 7
7584 5
7585 6
7586 7
7587 2
7588 7
7589 4
7590 29
7591 17
7592 3
7593 17
7594 6
7595 7
7596 0
7597 3
7598 7
7599 17
7600 3
7601 4
7602 17
7603 12
7604 7
7605 6
7606 22
7607 6
7608 6
7609 22
7610 0
7611 12
7612 7
7613 17
7614 21
7615 11
7616 8
7617 21
7618 17
7619 16
7620 16
7621 7
7622 22
7623 12
7624 28
7625 21
7626 11
7627 0
7628 2
7629 2
7630 3
7631 15
7632 12
7633 12
7634 11
7635 12
7636 8
7637 2
7638 7
7639 6
7640 7
7641 28
7642 11
7643 0
7644 17
7645 9
7646 0
7647 13
7648 0
7649 3
7650 7
7651 12
7652 1
7653 6
7654 6
7655 11
7656 3
7657 11
7658 17
7659 6
7660 29
7661 12
7662 8
7663 2
7664 12
7665 12
7666 3
7667 2
7668 15
7669 26
7670 11
7671 11
7672 2
7673 7
7674 11
7675 11
7676 7
7677 12
7678 0
7679 0
7680 0
7681 11
7682 11
7683 15
7684 21
7685 0
7686 12
7687 0
7688 19
7689 0
7690 6
7691 20
7692 2
7693 17
7694 6
7695 11
7696 6
7697 22
7698 15
7699 20
7700 12
7701 0
7702 0
7703 7
7704 23
7705 4
7706 12
7707 7
7708 2
7709 7
7710 12
7711 17
7712 4
7713 0
7714 6
7715 6
7716 2
7717 0
7718 6
7719 17
7720 8
7721 0
7722 7
7723 29
7724 1
7725 17
7726 23
7727 2
7728 17
7729 15
7730 22
7731 21
7732 11
7733 19
7734 17
7735 6
7736 0
7737 11
7738 6
7739 0
7740 21
7741 2
7742 12
7743 12
7744 2
7745 16
7746 24
7747 27
7748 11
7749 15
7750 1
7751 12
7752 9
7753 7
7754 2
7755 7
7756 8
7757 2
7758 9
7759 8
7760 0
7761 3
7762 6
7763 12
7764 0
7765 2
7766 21
7767 2
7768 17
7769 7
7770 0
7771 7
7772 10
7773 6
7774 12
7775 7
7776 0
7777 21
7778 3
7779 22
7780 0
7781 9
7782 19
7783 8
7784 11
7785 3
7786 12
7787 11
7788 0
7789 9
7790 9
7791 0
7792 26
7793 11
7794 8
7795 7
7796 8
7797 0
7798 1
7799 7
7800 12
7801 4
7802 22
7803 17
7804 7
7805 7
7806 15
7807 17
7808 22
7809 0
7810 7
7811 23
7812 12
7813 11
7814 0
7815 0
7816 15
7817 2
7818 11
7819 12
7820 7
7821 8
7822 17
7823 0
7824 12
7825 8
7826 6
7827 0
7828 4
7829 6
7830 15
7831 15
7832 17
7833 0
7834 7
7835 2
7836 11
7837 2
7838 7
7839 2
7840 11
7841 7
7842 15
7843 7
7844 20
7845 0
7846 21
7847 16
7848 7
7849 17
7850 15
7851 15
7852 6
7853 20
7854 6
7855 15
7856 0
7857 2
7858 7
7859 22
7860 22
7861 12
7862 13
7863 27
7864 0
7865 28
7866 2
7867 11
7868 11
7869 22
7870 11
7871 0
7872 12
7873 7
7874 2
7875 22
7876 11
7877 6
7878 1
7879 0
7880 17
7881 17
7882 7
7883 0
7884 0
7885 0
7886 0
7887 17
7888 0
7889 15
7890 2
7891 12
7892 12
7893 0
7894 3
7895 3
7896 4
7897 7
7898 10
7899 0
7900 4
7901 22
7902 11
7903 3
7904 0
7905 4
7906 7
7907 1
7908 2
7909 7
7910 7
7911 17
7912 0
7913 7
7914 12
7915 0
7916 6
7917 12
7918 7
7919 11
7920 11
7921 7
7922 7
7923 22
7924 23
7925 0
7926 7
7927 11
7928 21
7929 3
7930 7
7931 11
7932 11
7933 22
7934 0
7935 12
7936 11
7937 3
7938 7
7939 11
7940 12
7941 8
7942 21
7943 15
7944 16
7945 11
7946 15
7947 12
7948 7
7949 17
7950 11
7951 7
7952 6
7953 0
7954 11
7955 0
7956 4
7957 12
7958 12
7959 13
7960 0
7961 7
7962 7
7963 11
7964 3
7965 1
7966 22
7967 22
7968 11
7969 3
7970 4
7971 27
7972 2
7973 0
7974 11
7975 11
7976 0
7977 0
7978 8
7979 17
7980 16
7981 23
7982 11
7983 16
7984 12
7985 12
7986 12
7987 15
7988 7
7989 6
7990 6
7991 7
7992 17
7993 11
7994 15
7995 7
7996 0
7997 1
7998 0
7999 8
8000 7
8001 7
8002 8
8003 0
8004 7
8005 2
8006 2
8007 12
8008 0
8009 7
8010 7
8011 3
8012 3
8013 22
8014 7
8015 17
8016 0
8017 17
8018 12
8019 12
8020 7
8021 7
8022 11
8023 7
8024 12
8025 18
8026 22
8027 12
8028 7
8029 12
8030 15
8031 7
8032 8
8033 2
8034 7
8035 17
8036 3
8037 0
8038 2
8039 7
8040 13
8041 4
8042 3
8043 12
8044 0
8045 0
8046 0
8047 7
8048 7
8049 20
8050 11
8051 11
8052 8
8053 21
8054 0
8055 7
8056 11
8057 0
8058 3
8059 6
8060 19
8061 15
8062 14
8063 27
8064 3
8065 0
8066 4
8067 20
8068 17
8069 11
8070 8
8071 6
8072 0
8073 22
8074 4
8075 12
8076 3
8077 28
8078 7
8079 2
8080 0
8081 2
8082 11
8083 20
8084 7
8085 0
8086 8
8087 5
8088 7
8089 7
8090 7
8091 12
8092 2
8093 0
8094 0
8095 12
8096 8
8097 0
8098 17
8099 11
8100 15
8101 3
8102 2
8103 15
8104 21
8105 7
8106 11
8107 0
8108 22
8109 8
8110 0
8111 24
8112 8
8113 3
8114 11
8115 8
8116 3
8117 12
8118 3
8119 2
8120 16
8121 2
8122 7
8123 0
8124 21
8125 7
8126 6
8127 23
8128 2
8129 6
8130 6
8131 7
8132 2
8133 11
8134 12
8135 11
8136 7
8137 12
8138 7
8139 5
8140 22
8141 6
8142 10
8143 11
8144 0
8145 0
8146 4
8147 7
8148 17
8149 26
8150 11
8151 7
8152 12
8153 7
8154 2
8155 12
8156 7
8157 2
8158 6
8159 6
8160 8
8161 6
8162 12
8163 11
8164 20
8165 0
8166 11
8167 7
8168 7
8169 21
8170 0
8171 16
8172 12
8173 7
8174 6
8175 0
8176 7
8177 6
8178 17
8179 10
8180 22
8181 8
8182 2
8183 1
8184 11
8185 7
8186 2
8187 11
8188 0
8189 21
8190 1
8191 14
8192 12
8193 6
8194 11
8195 17
8196 11
8197 17
8198 27
8199 19
8200 0
8201 21
8202 22
8203 19
8204 7
8205 21
8206 15
8207 7
8208 11
8209 1
8210 2
8211 7
8212 17
8213 11
8214 22
8215 11
8216 6
8217 15
8218 4
8219 0
8220 7
8221 11
8222 6
8223 12
8224 7
8225 12
8226 15
8227 11
8228 0
8229 1
8230 17
8231 0
8232 19
8233 15
8234 0
8235 7
8236 2
8237 11
8238 12
8239 21
8240 0
8241 0
8242 7
8243 17
8244 11
8245 22
8246 7
8247 15
8248 0
8249 6
8250 3
8251 23
8252 17
8253 4
8254 7
8255 5
8256 6
8257 6
8258 12
8259 17
8260 0
8261 3
8262 12
8263 7
8264 17
8265 22
8266 12
8267 2
8268 21
8269 28
8270 12
8271 1
8272 1
8273 4
8274 0
8275 12
8276 12
8277 22
8278 3
8279 15
8280 11
8281 3
8282 0
8283 28
8284 9
8285 17
8286 3
8287 21
8288 7
8289 15
8290 12
8291 1
8292 7
8293 19
8294 17
8295 20
8296 17
8297 14
8298 0
8299 7
8300 0
8301 0
8302 2
8303 24
8304 12
8305 11
8306 12
8307 2
8308 17
8309 12
8310 22
8311 12
8312 17
8313 7
8314 7
8315 12
8316 7
8317 7
8318 0
8319 12
8320 11
8321 7
8322 7
8323 12
8324 15
8325 1
8326 0
8327 17
8328 22
8329 1
8330 19
8331 17
8332 10
8333 24
8334 12
8335 7
8336 12
8337 27
8338 6
8339 0
8340 7
8341 7
8342 1
8343 8
8344 6
8345 7
8346 11
8347 22
8348 0
8349 3
8350 0
8351 2
8352 11
8353 3
8354 7
8355 12
8356 28
8357 10
8358 0
8359 21
8360 2
8361 0
8362 8
8363 8
8364 20
8365 12
8366 11
8367 12
8368 22
8369 2
8370 27
8371 7
8372 3
8373 0
8374 22
8375 7
8376 3
8377 0
8378 2
8379 0
8380 6
8381 16
8382 17
8383 0
8384 22
8385 9
8386 9
8387 9
8388 7
8389 21
8390 0
8391 7
8392 6
8393 6
8394 7
8395 20
8396 0
8397 22
8398 21
8399 0
8400 0
8401 4
8402 0
8403 6
8404 12
8405 17
8406 15
8407 2
8408 20
8409 7
8410 7
8411 25
8412 0
8413 2
8414 0
8415 3
8416 9
8417 3
8418 11
8419 1
8420 3
8421 3
8422 2
8423 0
8424 4
8425 0
8426 0
8427 22
8428 11
8429 27
8430 2
8431 16
8432 17
8433 8
8434 17
8435 7
8436 0
8437 17
8438 25
8439 0
8440 5
8441 15
8442 7
8443 0
8444 23
8445 7
8446 6
8447 0
8448 15
8449 22
8450 11
8451 1
8452 11
8453 17
8454 17
8455 17
8456 3
8457 18
8458 12
8459 1
8460 2
8461 2
8462 11
8463 0
8464 0
8465 12
8466 9
8467 0
8468 2
8469 7
8470 17
8471 12
8472 6
8473 17
8474 20
8475 9
8476 7
8477 22
8478 3
8479 7
8480 2
8481 15
8482 0
8483 7
8484 0
8485 12
8486 4
8487 0
8488 0
8489 6
8490 0
8491 7
8492 7
8493 6
8494 17
8495 8
8496 19
8497 0
8498 6
8499 0
8500 9
8501 0
8502 11
8503 6
8504 2
8505 0
8506 1
8507 8
8508 8
8509 7
8510 7
8511 29
8512 22
8513 17
8514 17
8515 1
8516 8
8517 17
8518 10
8519 7
8520 12
8521 0
8522 11
8523 15
8524 0
8525 0
8526 7
8527 22
8528 6
8529 0
8530 6
8531 0
8532 15
8533 13
8534 19
8535 22
8536 12
8537 23
8538 12
8539 0
8540 0
8541 12
8542 22
8543 11
8544 7
8545 3
8546 13
8547 0
8548 12
8549 11
8550 4
8551 6
8552 21
8553 0
8554 11
8555 17
8556 6
8557 17
8558 0
8559 8
8560 6
8561 15
8562 20
8563 0
8564 6
8565 0
8566 15
8567 7
8568 4
8569 2
8570 11
8571 3
8572 11
8573 7
8574 19
8575 1
8576 7
8577 4
8578 21
8579 15
8580 15
8581 11
8582 6
8583 7
8584 15
8585 7
8586 16
8587 15
8588 0
8589 15
8590 7
8591 22
8592 22
8593 6
8594 12
8595 11
8596 1
8597 7
8598 6
8599 17
8600 20
8601 11
8602 21
8603 7
8604 0
8605 17
8606 17
8607 10
8608 0
8609 12
8610 4
8611 7
8612 13
8613 13
8614 7
8615 21
8616 10
8617 10
8618 0
8619 11
8620 0
8621 7
8622 7
8623 15
8624 4
8625 17
8626 12
8627 7
8628 3
8629 8
8630 7
8631 20
8632 0
8633 23
8634 12
8635 0
8636 6
8637 17
8638 12
8639 12
8640 6
8641 2
8642 9
8643 11
8644 11
8645 0
8646 10
8647 11
8648 6
8649 7
8650 15
8651 6
8652 26
8653 6
8654 11
8655 17
8656 11
8657 7
8658 17
8659 15
8660 7
8661 7
8662 20
8663 27
8664 11
8665 11
8666 0
8667 0
8668 11
8669 18
8670 12
8671 7
8672 12
8673 20
8674 7
8675 7
8676 7
8677 7
8678 6
8679 2
8680 15
8681 11
8682 6
8683 17
8684 0
8685 7
8686 15
8687 22
8688 2
8689 7
8690 7
8691 25
8692 11
8693 12
8694 7
8695 7
8696 2
8697 0
8698 22
8699 21
8700 21
8701 20
8702 0
8703 0
8704 22
8705 12
8706 17
8707 12
8708 0
8709 17
8710 15
8711 3
8712 7
8713 7
8714 0
8715 7
8716 22
8717 3
8718 17
8719 7
8720 11
8721 9
8722 17
8723 0
8724 3
8725 7
8726 11
8727 3
8728 8
8729 11
8730 1
8731 24
8732 24
8733 11
8734 0
8735 13
8736 22
8737 7
8738 7
8739 2
8740 7
8741 21
8742 11
8743 9
8744 10
8745 7
8746 2
8747 10
8748 12
8749 1
8750 28
8751 0
8752 3
8753 11
8754 11
8755 0
8756 0
8757 17
8758 7
8759 2
8760 11
8761 11
8762 21
8763 9
8764 7
8765 2
8766 20
8767 7
8768 3
8769 7
8770 17
8771 12
8772 0
8773 0
8774 0
8775 0
8776 2
8777 3
8778 13
8779 7
8780 17
8781 28
8782 6
8783 21
8784 3
8785 11
8786 0
8787 3
8788 23
8789 21
8790 3
8791 17
8792 7
8793 2
8794 0
8795 8
8796 7
8797 3
8798 11
8799 9
8800 28
8801 12
8802 2
8803 2
8804 0
8805 2
8806 0
8807 3
8808 15
8809 15
8810 0
8811 7
8812 0
8813 7
8814 7
8815 9
8816 6
8817 6
8818 7
8819 3
8820 20
8821 0
8822 15
8823 1
8824 4
8825 2
8826 23
8827 21
8828 0
8829 7
8830 11
8831 12
8832 15
8833 9
8834 7
8835 17
8836 7
8837 2
8838 21
8839 7
8840 7
8841 7
8842 21
8843 17
8844 17
8845 21
8846 21
8847 2
8848 12
8849 7
8850 26
8851 4
8852 7
8853 11
8854 0
8855 19
8856 15
8857 24
8858 12
8859 12
8860 16
8861 7
8862 2
8863 3
8864 12
8865 23
8866 0
8867 7
8868 8
8869 3
8870 21
8871 17
8872 20
8873 12
8874 7
8875 6
8876 11
8877 7
8878 11
8879 21
8880 2
8881 2
8882 11
8883 11
8884 1
8885 3
8886 11
8887 21
8888 26
8889 6
8890 0
8891 7
8892 3
8893 11
8894 11
8895 0
8896 7
8897 28
8898 2
8899 1
8900 5
8901 7
8902 0
8903 11
8904 7
8905 7
8906 3
8907 7
8908 0
8909 7
8910 7
8911 6
8912 1
8913 7
8914 0
8915 20
8916 0
8917 16
8918 2
8919 22
8920 6
8921 0
8922 7
8923 17
8924 2
8925 15
8926 8
8927 2
8928 16
8929 21
8930 12
8931 9
8932 11
8933 15
8934 7
8935 27
8936 28
8937 6
8938 7
8939 11
8940 0
8941 22
8942 7
8943 12
8944 16
8945 6
8946 11
8947 20
8948 11
8949 6
8950 7
8951 12
8952 0
8953 28
8954 11
8955 7
8956 7
8957 10
8958 11
8959 24
8960 7
8961 7
8962 12
8963 7
8964 7
8965 11
8966 7
8967 7
8968 8
8969 13
8970 17
8971 11
8972 1
8973 7
8974 0
8975 2
8976 7
8977 0
8978 2
8979 2
8980 3
8981 4
8982 7
8983 16
8984 18
8985 12
8986 7
8987 11
8988 6
8989 7
8990 17
8991 24
8992 7
8993 21
8994 11
8995 12
8996 8
8997 0
8998 7
8999 2
9000 12
9001 21
9002 11
9003 7
9004 11
9005 12
9006 2
9007 1
9008 18
9009 7
9010 0
9011 7
9012 7
9013 23
9014 3
9015 7
9016 15
9017 26
9018 7
9019 7
9020 17
9021 11
9022 2
9023 11
9024 21
9025 0
9026 2
9027 17
9028 17
9029 26
9030 7
9031 8
9032 0
9033 0
9034 0
9035 6
9036 0
9037 8
9038 8
9039 7
9040 0
9041 7
9042 11
9043 7
9044 7
9045 27
9046 27
9047 3
9048 17
9049 7
9050 4
9051 24
9052 20
9053 17
9054 22
9055 11
9056 11
9057 11
9058 7
9059 0
9060 3
9061 2
9062 5
9063 17
9064 6
9065 0
9066 23
9067 7
9068 17
9069 2
9070 6
9071 12
9072 7
9073 0
9074 2
9075 11
9076 7
9077 11
9078 7
9079 12
9080 9
9081 22
9082 15
9083 20
9084 17
9085 0
9086 11
9087 12
9088 11
9089 0
9090 0
9091 2
9092 28
9093 6
9094 4
9095 17
9096 7
9097 11
9098 15
9099 17
9100 2
9101 7
9102 15
9103 7
9104 0
9105 15
9106 27
9107 2
9108 8
9109 0
9110 11
9111 0
9112 0
9113 7
9114 2
9115 7
9116 20
9117 0
9118 1
9119 7
9120 11
9121 20
9122 7
9123 2
9124 0
9125 7
9126 1
9127 19
9128 7
9129 22
9130 0
9131 22
9132 7
9133 0
9134 7
9135 17
9136 7
9137 7
9138 0
9139 6
9140 22
9141 0
9142 7
9143 9
9144 6
9145 0
9146 6
9147 2
9148 0
9149 7
9150 7
9151 7
9152 15
9153 0
9154 6
9155 15
9156 20
9157 18
9158 12
9159 7
9160 3
9161 1
9162 8
9163 0
9164 7
9165 0
9166 15
9167 11
9168 17
9169 8
9170 20
9171 6
9172 17
9173 7
9174 22
9175 0
9176 12
9177 2
9178 22
9179 12
9180 6
9181 7
9182 0
9183 0
9184 21
9185 6
9186 11
9187 0
9188 17
9189 0
9190 12
9191 12
9192 2
9193 11
9194 15
9195 7
9196 4
9197 6
9198 3
9199 21
9200 16
9201 11
9202 3
9203 2
9204 2
9205 20
9206 6
9207 21
9208 11
9209 28
9210 21
9211 15
9212 0
9213 12
9214 0
9215 7
9216 15
9217 2
9218 12
9219 1
9220 6
9221 13
9222 6
9223 9
9224 17
9225 0
9226 20
9227 8
9228 10
9229 3
9230 20
9231 6
9232 1
9233 21
9234 1
9235 12
9236 23
9237 7
9238 0
9239 13
9240 29
9241 11
9242 2
9243 8
9244 12
9245 11
9246 21
9247 6
9248 12
9249 1
9250 7
9251 14
9252 3
9253 8
9254 12
9255 5
9256 21
9257 22
9258 0
9259 17
9260 6
9261 17
9262 6
9263 22
9264 17
9265 23
9266 0
9267 6
9268 17
9269 12
9270 0
9271 21
9272 24
9273 7
9274 6
9275 0
9276 3
9277 6
9278 0
9279 3
9280 1
9281 15
9282 22
9283 6
9284 7
9285 12
9286 12
9287 4
9288 29
9289 26
9290 1
9291 11
9292 17
9293 0
9294 2
9295 11
9296 17
9297 7
9298 11
9299 11
9300 23
9301 17
9302 9
9303 7
9304 11
9305 8
9306 12
9307 0
9308 21
9309 2
9310 21
9311 17
9312 2
9313 0
9314 12
9315 2
9316 21
9317 20
9318 0
9319 20
9320 3
9321 11
9322 2
9323 18
9324 21
9325 17
9326 17
9327 7
9328 2
9329 7
9330 1
9331 7
9332 11
9333 0
9334 7
9335 11
9336 2
9337 7
9338 2
9339 2
9340 12
9341 18
9342 17
9343 0
9344 11
9345 3
9346 7
9347 2
9348 6
9349 17
9350 23
9351 24
9352 7
9353 1
9354 0
9355 22
9356 4
9357 21
9358 7
9359 7
9360 20
9361 22
9362 17
9363 9
9364 7
9365 11
9366 3
9367 11
9368 4
9369 17
9370 11
9371 11
9372 11
9373 6
9374 1
9375 15
9376 3
9377 11
9378 2
9379 21
9380 7
9381 0
9382 21
9383 16
9384 7
9385 11
9386 11
9387 7
9388 6
9389 2
9390 0
9391 10
9392 15
9393 11
9394 7
9395 21
9396 22
9397 17
9398 8
9399 6
9400 12
9401 11
9402 11
9403 11
9404 0
9405 20
9406 24
9407 7
9408 12
9409 7
9410 7
9411 12
9412 4
9413 11
9414 7
9415 7
9416 0
9417 24
9418 0
9419 0
9420 15
9421 7
9422 6
9423 22
9424 7
9425 20
9426 6
9427 11
9428 7
9429 6
9430 4
9431 0
9432 6
9433 7
9434 0
9435 7
9436 0
9437 15
9438 17
9439 6
9440 17
9441 7
9442 1
9443 6
9444 21
9445 3
9446 0
9447 20
9448 0
9449 6
9450 11
9451 3
9452 7
9453 8
9454 9
9455 11
9456 8
9457 7
9458 19
9459 22
9460 7
9461 6
9462 3
9463 7
9464 6
9465 2
9466 21
9467 0
9468 6
9469 28
9470 0
9471 6
9472 22
9473 7
9474 21
9475 9
9476 7
9477 12
9478 26
9479 17
9480 6
9481 10
9482 0
9483 7
9484 11
9485 7
9486 15
9487 21
9488 7
9489 11
9490 3
9491 0
9492 11
9493 6
9494 20
9495 17
9496 2
9497 22
9498 17
9499 6
9500 21
9501 0
9502 7
9503 15
9504 0
9505 22
9506 1
9507 10
9508 13
9509 2
9510 5
9511 0
9512 2
9513 11
9514 19
9515 15
9516 6
9517 0
9518 11
9519 4
9520 21
9521 11
9522 0
9523 7
9524 17
9525 17
9526 7
9527 0
9528 22
9529 0
9530 12
9531 17
9532 17
9533 6
9534 17
9535 7
9536 25
9537 11
9538 3
9539 11
9540 11
9541 7
9542 1
9543 23
9544 7
9545 6
9546 20
9547 12
9548 1
9549 2
9550 8
9551 0
9552 0
9553 7
9554 12
9555 0
9556 28
9557 3
9558 21
9559 0
9560 28
9561 7
9562 0
9563 27
9564 0
9565 13
9566 7
9567 0
9568 7
9569 5
9570 21
9571 8
9572 28
9573 6
9574 11
9575 11
9576 0
9577 21
9578 5
9579 15
9580 6
9581 21
9582 0
9583 1
9584 7
9585 6
9586 7
9587 7
9588 2
9589 22
9590 7
9591 0
9592 0
9593 11
9594 2
9595 15
9596 7
9597 15
9598 0
9599 20
9600 0
9601 22
9602 0
9603 7
9604 7
9605 7
9606 7
9607 6
9608 22
9609 7
9610 8
9611 0
9612 7
9613 11
9614 0
9615 19
9616 20
9617 24
9618 15
9619 21
9620 4
9621 23
9622 17
9623 0
9624 3
9625 7
9626 2
9627 7
9628 2
9629 11
9630 12
9631 7
9632 21
9633 16
9634 8
9635 11
9636 0
9637 22
9638 22
9639 22
9640 22
9641 2
9642 6
9643 7
9644 21
9645 7
9646 12
9647 4
9648 20
9649 7
9650 22
9651 9
9652 3
9653 2
9654 3
9655 7
9656 17
9657 10
9658 21
9659 7
9660 7
9661 17
9662 17
9663 7
9664 12
9665 7
9666 6
9667 2
9668 12
9669 2
9670 8
9671 17
9672 0
9673 7
9674 22
9675 0
9676 16
9677 3
9678 11
9679 15
9680 20
9681 17
9682 6
9683 20
9684 1
9685 8
9686 11
9687 10
9688 22
9689 12
9690 0
9691 11
9692 7
9693 22
9694 7
9695 7
9696 11
9697 0
9698 18
9699 11
9700 7
9701 3
9702 8
9703 2
9704 1
9705 21
9706 11
9707 12
9708 17
9709 9
9710 0
9711 27
9712 24
9713 17
9714 7
9715 12
9716 7
9717 17
9718 0
9719 2
9720 17
9721 2
9722 0
9723 17
9724 7
9725 2
9726 17
9727 15
9728 23
9729 7
9730 11
9731 4
9732 17
9733 0
9734 21
9735 6
9736 12
9737 17
9738 15
9739 7
9740 0
9741 7
9742 4
9743 12
9744 13
9745 7
9746 11
9747 0
9748 11
9749 12
9750 12
9751 7
9752 12
9753 1
9754 15
9755 13
9756 0
9757 17
9758 6
9759 17
9760 0
9761 6
9762 11
9763 0
9764 21
9765 0
9766 11
9767 22
9768 8
9769 12
9770 11
9771 7
9772 4
9773 7
9774 2
9775 1
9776 0
9777 0
9778 15
9779 11
9780 4
9781 2
9782 23
9783 11
9784 6
9785 20
9786 24
9787 17
9788 22
9789 9
9790 3
9791 4
9792 0
9793 17
9794 2
9795 28
9796 14
9797 7
9798 12
9799 11
9800 7
9801 3
9802 6
9803 22
9804 23
9805 23
9806 19
9807 0
9808 2
9809 4
9810 3
9811 11
9812 22
9813 6
9814 7
9815 7
9816 7
9817 11
9818 3
9819 2
9820 2
9821 0
9822 11
9823 0
9824 22
9825 12
9826 1
9827 1
9828 16
9829 6
9830 11
9831 11
9832 11
9833 7
9834 4
9835 12
9836 0
9837 22
9838 1
9839 2
9840 24
9841 17
9842 21
9843 0
9844 3
9845 7
9846 19
9847 2
9848 12
9849 12
9850 0
9851 11
9852 12
9853 7
9854 6
9855 7
9856 28
9857 7
9858 12
9859 15
9860 0
9861 29
9862 7
9863 23
9864 0
9865 7
9866 6
9867 7
9868 0
9869 2
9870 0
9871 8
9872 2
9873 3
9874 11
9875 0
9876 8
9877 15
9878 2
9879 7
9880 19
9881 11
9882 3
9883 12
9884 7
9885 16
9886 17
9887 2
9888 20
9889 12
9890 0
9891 8
9892 12
9893 11
9894 0
9895 21
9896 15
9897 4
9898 2
9899 2
9900 2
9901 22
9902 19
9903 25
9904 7
9905 11
9906 2
9907 11
9908 7
9909 6
9910 28
9911 0
9912 21
9913 11
9914 3
9915 17
9916 30
9917 0
9918 0
9919 0
9920 10
9921 15
9922 1
9923 12
9924 1
9925 7
9926 0
9927 2
9928 20
9929 20
9930 2
9931 20
9932 15
9933 22
9934 12
9935 0
9936 0
9937 7
9938 0
9939 0
9940 2
9941 0
9942 3
9943 17
9944 0
9945 17
9946 11
9947 17
9948 15
9949 15
9950 11
9951 9
9952 0
9953 3
9954 15
9955 15
9956 11
9957 3
9958 17
9959 12
9960 12
9961 2
9962 0
9963 12
9964 8
9965 7
9966 7
9967 17
9968 2
9969 11
9970 0
9971 7
9972 0
9973 7
9974 7
9975 15
9976 15
9977 6
9978 12
9979 7
9980 17
9981 11
9982 12
9983 7
9984 8
9985 17
9986 4
9987 28
9988 11
9989 2
9990 0
9991 30
9992 12
9993 11
9994 0
9995 3
9996 11
9997 0
9998 11
9999 8
