0 0
1 1
2 2
3 3
4 3
5 3
6 4
7 5
8 6
9 7
10 8
11 9
12 2
13 2
14 10
15 11
16 12
17 13
18 11
19 14
20 15
21 7
22 16
23 17
24 11
25 4
26 18
27 14
28 19
29 2
30 1
31 20
32 21
33 22
34 19
35 0
36 23
37 20
38 24
39 25
40 7
41 26
42 14
43 20
44 2
45 27
46 28
47 24
48 2
49 21
50 1
51 20
52 29
53 29
54 7
55 2
56 30
57 7
58 2
59 12
60 11
61 31
62 32
63 22
64 33
65 3
66 12
67 34
68 11
69 35
70 29
71 36
72 37
73 38
74 39
75 40
76 22
77 33
78 22
79 23
80 41
81 14
82 42
83 43
84 28
85 44
86 6
87 2
88 11
89 17
90 11
91 34
92 14
93 39
94 20
95 32
96 36
97 14
98 11
99 45
100 11
101 46
102 1
103 29
104 28
105 14
106 14
107 17
108 9
109 26
110 12
111 40
112 47
113 23
114 37
115 48
116 14
117 12
118 11
119 34
120 6
121 49
122 50
123 7
124 14
125 6
126 32
127 7
128 33
129 51
130 35
131 37
132 6
133 39
134 4
135 1
136 15
137 4
138 45
139 7
140 11
141 43
142 34
143 14
144 52
145 45
146 28
147 28
148 14
149 4
150 12
151 42
152 17
153 39
154 11
155 1
156 53
157 47
158 11
159 20
160 7
161 7
162 24
163 47
164 4
165 7
166 54
167 20
168 15
169 7
170 27
171 3
172 14
173 25
174 3
175 6
176 42
177 32
178 39
179 7
180 11
181 26
182 2
183 21
184 50
185 53
186 39
187 20
188 11
189 12
190 3
191 2
192 32
193 13
194 7
195 24
196 14
197 7
198 47
199 32
200 20
201 14
202 34
203 15
204 1
205 24
206 14
207 40
208 2
209 7
210 1
211 1
212 20
213 11
214 24
215 1
216 20
217 12
218 33
219 24
220 37
221 33
222 3
223 12
224 41
225 24
226 9
227 17
228 39
229 39
230 47
231 55
232 37
233 2
234 14
235 32
236 34
237 43
238 2
239 2
240 3
241 14
242 20
243 10
244 4
245 17
246 7
247 12
248 14
249 7
250 7
251 20
252 55
253 4
254 11
255 25
256 20
257 20
258 11
259 14
260 21
261 20
262 14
263 13
264 20
265 43
266 39
267 27
268 49
269 4
270 1
271 54
272 0
273 4
274 11
275 21
276 50
277 39
278 42
279 14
280 20
281 15
282 7
283 56
284 0
285 24
286 51
287 11
288 22
289 20
290 7
291 14
292 24
293 37
294 39
295 20
296 41
297 7
298 20
299 28
300 16
301 43
302 2
303 43
304 11
305 46
306 2
307 20
308 28
309 56
310 1
311 48
312 6
313 43
314 39
315 45
316 3
317 51
318 1
319 7
320 28
321 33
322 14
323 46
324 32
325 17
326 3
327 46
328 25
329 2
330 14
331 42
332 1
333 7
334 11
335 22
336 1
337 7
338 27
339 36
340 57
341 26
342 20
343 20
344 33
345 4
346 0
347 40
348 36
349 14
350 4
351 11
352 48
353 1
354 20
355 7
356 3
357 17
358 26
359 14
360 14
361 20
362 7
363 6
364 17
365 22
366 6
367 7
368 11
369 11
370 14
371 39
372 33
373 24
374 42
375 32
376 18
377 41
378 32
379 55
380 22
381 32
382 32
383 7
384 7
385 7
386 15
387 14
388 3
389 41
390 2
391 57
392 24
393 14
394 5
395 42
396 2
397 38
398 21
399 2
400 20
401 5
402 7
403 32
404 14
405 11
406 18
407 7
408 56
409 7
410 38
411 33
412 7
413 20
414 7
415 7
416 3
417 11
418 7
419 53
420 1
421 43
422 7
423 7
424 20
425 21
426 27
427 11
428 20
429 1
430 51
431 45
432 20
433 2
434 2
435 32
436 34
437 24
438 11
439 14
440 38
441 11
442 13
443 6
444 12
445 16
446 11
447 19
448 45
449 22
450 27
451 15
452 20
453 41
454 20
455 20
456 14
457 11
458 41
459 7
460 14
461 18
462 34
463 3
464 17
465 38
466 52
467 23
468 2
469 11
470 14
471 2
472 25
473 1
474 13
475 12
476 7
477 2
478 7
479 13
480 7
481 12
482 25
483 12
484 14
485 38
486 2
487 2
488 1
489 2
490 14
491 38
492 32
493 20
494 14
495 0
496 1
497 17
498 7
499 34
500 9
501 2
502 3
503 7
504 42
505 11
506 7
507 32
508 24
509 26
510 11
511 14
512 31
513 7
514 7
515 7
516 31
517 32
518 2
519 11
520 7
521 43
522 7
523 11
524 14
525 12
526 22
527 1
528 14
529 11
530 27
531 20
532 20
533 25
534 7
535 26
536 45
537 32
538 14
539 20
540 42
541 9
542 17
543 7
544 15
545 47
546 24
547 7
548 28
549 41
550 32
551 2
552 13
553 14
554 24
555 24
556 2
557 7
558 23
559 15
560 52
561 31
562 14
563 2
564 11
565 47
566 47
567 26
568 12
569 20
570 32
571 14
572 7
573 11
574 2
575 14
576 20
577 6
578 20
579 48
580 28
581 48
582 1
583 40
584 14
585 31
586 24
587 7
588 32
589 2
590 14
591 39
592 0
593 11
594 1
595 58
596 14
597 2
598 43
599 11
600 32
601 14
602 7
603 16
604 32
605 17
606 11
607 55
608 0
609 14
610 1
611 14
612 7
613 12
614 11
615 0
616 17
617 34
618 13
619 14
620 2
621 11
622 33
623 11
624 11
625 14
626 23
627 11
628 26
629 39
630 4
631 7
632 20
633 35
634 26
635 21
636 7
637 0
638 33
639 28
640 0
641 21
642 11
643 14
644 11
645 19
646 11
647 14
648 14
649 58
650 14
651 32
652 26
653 11
654 20
655 11
656 36
657 41
658 20
659 11
660 34
661 29
662 38
663 7
664 6
665 7
666 33
667 2
668 8
669 17
670 32
671 20
672 3
673 31
674 11
675 14
676 35
677 20
678 2
679 20
680 14
681 47
682 11
683 33
684 14
685 14
686 21
687 20
688 11
689 14
690 28
691 2
692 7
693 19
694 14
695 28
696 47
697 5
698 47
699 7
700 9
701 32
702 3
703 1
704 4
705 1
706 26
707 21
708 14
709 2
710 33
711 13
712 11
713 21
714 12
715 14
716 17
717 32
718 56
719 11
720 33
721 12
722 33
723 17
724 11
725 7
726 10
727 32
728 1
729 33
730 47
731 14
732 17
733 2
734 14
735 7
736 14
737 2
738 20
739 42
740 47
741 11
742 4
743 47
744 7
745 12
746 7
747 20
748 12
749 24
750 42
751 39
752 33
753 33
754 33
755 11
756 13
757 38
758 18
759 29
760 11
761 14
762 22
763 49
764 20
765 20
766 18
767 14
768 20
769 6
770 29
771 11
772 32
773 2
774 56
775 30
776 1
777 7
778 14
779 40
780 12
781 33
782 43
783 20
784 1
785 20
786 14
787 14
788 41
789 20
790 1
791 7
792 20
793 41
794 2
795 47
796 11
797 1
798 3
799 7
800 0
801 11
802 7
803 17
804 7
805 53
806 29
807 11
808 43
809 14
810 20
811 14
812 11
813 32
814 32
815 43
816 2
817 39
818 14
819 11
820 30
821 29
822 26
823 14
824 39
825 41
826 7
827 26
828 34
829 32
830 7
831 11
832 2
833 7
834 1
835 4
836 11
837 7
838 32
839 47
840 14
841 12
842 32
843 17
844 20
845 14
846 47
847 11
848 20
849 11
850 14
851 14
852 29
853 34
854 11
855 7
856 20
857 2
858 20
859 7
860 11
861 6
862 47
863 7
864 20
865 17
866 0
867 32
868 26
869 29
870 39
871 14
872 11
873 11
874 11
875 49
876 28
877 37
878 15
879 31
880 17
881 14
882 30
883 26
884 18
885 14
886 2
887 32
888 47
889 20
890 7
891 47
892 1
893 20
894 17
895 1
896 32
897 58
898 7
899 14
900 32
901 11
902 24
903 1
904 1
905 11
906 14
907 20
908 7
909 34
910 47
911 20
912 17
913 24
914 6
915 20
916 14
917 14
918 12
919 38
920 14
921 1
922 20
923 43
924 26
925 11
926 12
927 32
928 14
929 14
930 14
931 41
932 14
933 12
934 14
935 14
936 46
937 3
938 7
939 14
940 4
941 11
942 38
943 20
944 7
945 21
946 3
947 25
948 11
949 33
950 13
951 38
952 1
953 7
954 20
955 11
956 23
957 11
958 42
959 5
960 7
961 7
962 10
963 39
964 7
965 7
966 52
967 12
968 2
969 34
970 1
971 35
972 2
973 23
974 20
975 7
976 7
977 11
978 14
979 0
980 7
981 11
982 59
983 35
984 2
985 30
986 11
987 14
988 45
989 14
990 7
991 14
992 49
993 14
994 53
995 14
996 7
997 14
998 14
999 20
1000 14
1001 2
1002 32
1003 1
1004 20
1005 49
1006 14
1007 7
1008 5
1009 14
1010 20
1011 1
1012 30
1013 23
1014 3
1015 38
1016 31
1017 14
1018 7
1019 33
1020 18
1021 26
1022 20
1023 39
1024 3
1025 43
1026 20
1027 2
1028 12
1029 2
1030 45
1031 24
1032 26
1033 0
1034 14
1035 15
1036 11
1037 11
1038 14
1039 7
1040 7
1041 39
1042 42
1043 11
1044 4
1045 43
1046 11
1047 25
1048 2
1049 18
1050 2
1051 24
1052 20
1053 29
1054 9
1055 32
1056 33
1057 7
1058 39
1059 7
1060 33
1061 2
1062 14
1063 7
1064 7
1065 23
1066 26
1067 3
1068 59
1069 6
1070 7
1071 2
1072 7
1073 13
1074 20
1075 14
1076 35
1077 46
1078 20
1079 4
1080 20
1081 14
1082 22
1083 11
1084 12
1085 7
1086 43
1087 34
1088 2
1089 34
1090 11
1091 51
1092 57
1093 34
1094 1
1095 7
1096 11
1097 21
1098 26
1099 7
1100 26
1101 1
1102 23
1103 7
1104 0
1105 14
1106 11
1107 14
1108 1
1109 12
1110 13
1111 14
1112 32
1113 7
1114 20
1115 0
1116 41
1117 2
1118 33
1119 56
1120 12
1121 47
1122 32
1123 20
1124 7
1125 2
1126 23
1127 38
1128 2
1129 7
1130 17
1131 7
1132 14
1133 7
1134 11
1135 11
1136 10
1137 35
1138 14
1139 20
1140 7
1141 12
1142 0
1143 29
1144 56
1145 32
1146 16
1147 37
1148 11
1149 40
1150 33
1151 12
1152 7
1153 45
1154 21
1155 50
1156 30
1157 11
1158 2
1159 12
1160 2
1161 7
1162 32
1163 49
1164 11
1165 31
1166 7
1167 30
1168 2
1169 14
1170 20
1171 14
1172 7
1173 17
1174 18
1175 7
1176 14
1177 3
1178 20
1179 2
1180 14
1181 14
1182 20
1183 20
1184 20
1185 33
1186 23
1187 11
1188 28
1189 25
1190 39
1191 7
1192 12
1193 39
1194 7
1195 24
1196 22
1197 35
1198 20
1199 14
1200 11
1201 14
1202 14
1203 0
1204 33
1205 11
1206 20
1207 3
1208 47
1209 33
1210 14
1211 14
1212 35
1213 7
1214 12
1215 23
1216 24
1217 20
1218 10
1219 24
1220 17
1221 10
1222 11
1223 41
1224 25
1225 50
1226 25
1227 20
1228 7
1229 7
1230 5
1231 30
1232 11
1233 3
1234 2
1235 7
1236 1
1237 14
1238 43
1239 14
1240 12
1241 2
1242 42
1243 11
1244 2
1245 20
1246 20
1247 1
1248 7
1249 26
1250 39
1251 7
1252 2
1253 33
1254 11
1255 11
1256 20
1257 27
1258 15
1259 29
1260 45
1261 14
1262 14
1263 20
1264 20
1265 20
1266 12
1267 58
1268 11
1269 7
1270 11
1271 20
1272 56
1273 20
1274 7
1275 20
1276 14
1277 33
1278 15
1279 35
1280 32
1281 20
1282 41
1283 43
1284 7
1285 2
1286 7
1287 26
1288 7
1289 24
1290 20
1291 11
1292 0
1293 55
1294 14
1295 47
1296 7
1297 3
1298 33
1299 7
1300 25
1301 14
1302 38
1303 7
1304 13
1305 3
1306 20
1307 30
1308 20
1309 4
1310 20
1311 0
1312 20
1313 14
1314 20
1315 52
1316 26
1317 33
1318 11
1319 11
1320 41
1321 20
1322 7
1323 32
1324 33
1325 14
1326 28
1327 19
1328 24
1329 14
1330 38
1331 7
1332 43
1333 28
1334 20
1335 39
1336 46
1337 20
1338 43
1339 7
1340 20
1341 3
1342 51
1343 24
1344 7
1345 20
1346 0
1347 14
1348 7
1349 7
1350 20
1351 12
1352 14
1353 17
1354 20
1355 14
1356 0
1357 39
1358 29
1359 2
1360 43
1361 24
1362 7
1363 13
1364 2
1365 11
1366 28
1367 2
1368 11
1369 34
1370 37
1371 11
1372 11
1373 39
1374 34
1375 1
1376 2
1377 1
1378 9
1379 7
1380 14
1381 47
1382 37
1383 29
1384 39
1385 7
1386 7
1387 2
1388 14
1389 14
1390 20
1391 20
1392 7
1393 7
1394 43
1395 2
1396 7
1397 50
1398 20
1399 14
1400 48
1401 14
1402 2
1403 14
1404 7
1405 2
1406 14
1407 20
1408 7
1409 40
1410 12
1411 14
1412 20
1413 32
1414 41
1415 3
1416 26
1417 17
1418 30
1419 6
1420 32
1421 14
1422 31
1423 20
1424 3
1425 20
1426 14
1427 2
1428 1
1429 17
1430 11
1431 11
1432 32
1433 2
1434 3
1435 19
1436 11
1437 7
1438 11
1439 17
1440 13
1441 14
1442 1
1443 25
1444 7
1445 3
1446 48
1447 7
1448 7
1449 28
1450 7
1451 34
1452 45
1453 1
1454 7
1455 2
1456 2
1457 2
1458 31
1459 3
1460 34
1461 24
1462 2
1463 32
1464 7
1465 0
1466 11
1467 7
1468 3
1469 33
1470 11
1471 41
1472 34
1473 20
1474 20
1475 14
1476 24
1477 20
1478 10
1479 34
1480 7
1481 7
1482 32
1483 7
1484 15
1485 11
1486 7
1487 11
1488 20
1489 3
1490 11
1491 43
1492 30
1493 3
1494 32
1495 27
1496 14
1497 11
1498 20
1499 7
1500 7
1501 12
1502 33
1503 0
1504 20
1505 7
1506 11
1507 7
1508 1
1509 21
1510 11
1511 46
1512 1
1513 20
1514 29
1515 31
1516 20
1517 11
1518 7
1519 11
1520 23
1521 14
1522 46
1523 38
1524 30
1525 32
1526 56
1527 1
1528 20
1529 26
1530 17
1531 1
1532 2
1533 1
1534 11
1535 32
1536 29
1537 20
1538 32
1539 7
1540 13
1541 7
1542 39
1543 2
1544 6
1545 21
1546 11
1547 29
1548 3
1549 14
1550 20
1551 7
1552 3
1553 2
1554 12
1555 34
1556 37
1557 2
1558 5
1559 52
1560 14
1561 11
1562 32
1563 27
1564 35
1565 59
1566 41
1567 7
1568 20
1569 24
1570 1
1571 30
1572 24
1573 34
1574 7
1575 2
1576 7
1577 30
1578 26
1579 12
1580 14
1581 52
1582 30
1583 20
1584 41
1585 18
1586 7
1587 2
1588 24
1589 32
1590 20
1591 7
1592 0
1593 15
1594 10
1595 33
1596 2
1597 14
1598 39
1599 20
1600 2
1601 37
1602 7
1603 24
1604 2
1605 38
1606 14
1607 39
1608 10
1609 7
1610 30
1611 24
1612 9
1613 7
1614 6
1615 59
1616 11
1617 7
1618 14
1619 20
1620 24
1621 24
1622 2
1623 39
1624 32
1625 32
1626 20
1627 7
1628 29
1629 7
1630 11
1631 47
1632 14
1633 7
1634 20
1635 20
1636 33
1637 11
1638 1
1639 14
1640 14
1641 23
1642 49
1643 3
1644 26
1645 17
1646 47
1647 14
1648 24
1649 17
1650 7
1651 14
1652 17
1653 49
1654 7
1655 20
1656 20
1657 37
1658 14
1659 11
1660 41
1661 11
1662 7
1663 20
1664 20
1665 14
1666 26
1667 30
1668 33
1669 17
1670 32
1671 11
1672 1
1673 7
1674 7
1675 23
1676 26
1677 20
1678 2
1679 7
1680 0
1681 14
1682 14
1683 17
1684 14
1685 11
1686 7
1687 2
1688 47
1689 24
1690 37
1691 15
1692 1
1693 46
1694 21
1695 55
1696 20
1697 11
1698 41
1699 14
1700 17
1701 11
1702 30
1703 7
1704 11
1705 14
1706 25
1707 7
1708 7
1709 7
1710 11
1711 7
1712 3
1713 32
1714 11
1715 0
1716 14
1717 21
1718 13
1719 7
1720 54
1721 55
1722 3
1723 7
1724 46
1725 49
1726 20
1727 2
1728 7
1729 2
1730 20
1731 7
1732 14
1733 7
1734 8
1735 27
1736 3
1737 11
1738 21
1739 59
1740 7
1741 14
1742 7
1743 17
1744 20
1745 29
1746 11
1747 7
1748 14
1749 14
1750 20
1751 7
1752 48
1753 42
1754 20
1755 3
1756 14
1757 33
1758 29
1759 14
1760 14
1761 49
1762 47
1763 20
1764 11
1765 45
1766 11
1767 39
1768 33
1769 2
1770 32
1771 20
1772 47
1773 48
1774 14
1775 2
1776 20
1777 11
1778 2
1779 14
1780 14
1781 7
1782 29
1783 11
1784 14
1785 5
1786 29
1787 25
1788 2
1789 40
1790 11
1791 7
1792 14
1793 38
1794 7
1795 11
1796 51
1797 32
1798 14
1799 41
1800 20
1801 20
1802 26
1803 33
1804 27
1805 0
1806 7
1807 2
1808 3
1809 14
1810 14
1811 20
1812 7
1813 22
1814 41
1815 32
1816 20
1817 11
1818 32
1819 12
1820 23
1821 11
1822 2
1823 3
1824 20
1825 7
1826 20
1827 2
1828 7
1829 21
1830 39
1831 49
1832 38
1833 11
1834 45
1835 7
1836 11
1837 45
1838 38
1839 47
1840 2
1841 3
1842 2
1843 46
1844 2
1845 43
1846 14
1847 7
1848 7
1849 12
1850 20
1851 47
1852 7
1853 14
1854 2
1855 14
1856 7
1857 47
1858 14
1859 7
1860 11
1861 14
1862 18
1863 37
1864 33
1865 32
1866 23
1867 29
1868 20
1869 36
1870 2
1871 12
1872 7
1873 7
1874 2
1875 11
1876 7
1877 11
1878 1
1879 7
1880 20
1881 47
1882 2
1883 0
1884 20
1885 14
1886 32
1887 20
1888 41
1889 33
1890 30
1891 1
1892 14
1893 20
1894 0
1895 11
1896 20
1897 3
1898 14
1899 12
1900 7
1901 29
1902 39
1903 4
1904 7
1905 11
1906 12
1907 43
1908 32
1909 7
1910 0
1911 14
1912 14
1913 14
1914 20
1915 20
1916 36
1917 7
1918 38
1919 42
1920 12
1921 31
1922 2
1923 36
1924 20
1925 21
1926 2
1927 11
1928 2
1929 11
1930 14
1931 7
1932 26
1933 46
1934 14
1935 22
1936 31
1937 20
1938 14
1939 20
1940 24
1941 2
1942 11
1943 7
1944 11
1945 32
1946 2
1947 11
1948 7
1949 14
1950 1
1951 7
1952 47
1953 7
1954 14
1955 7
1956 14
1957 20
1958 26
1959 18
1960 30
1961 7
1962 47
1963 7
1964 34
1965 7
1966 3
1967 3
1968 26
1969 12
1970 20
1971 7
1972 43
1973 0
1974 7
1975 11
1976 20
1977 14
1978 14
1979 2
1980 20
1981 2
1982 2
1983 7
1984 14
1985 14
1986 3
1987 0
1988 7
1989 12
1990 7
1991 3
1992 7
1993 2
1994 7
1995 2
1996 20
1997 28
1998 24
1999 20
2000 17
2001 11
2002 14
2003 20
2004 2
2005 11
2006 14
2007 9
2008 14
2009 7
2010 39
2011 11
2012 7
2013 29
2014 13
2015 7
2016 32
2017 12
2018 11
2019 39
2020 44
2021 12
2022 38
2023 15
2024 33
2025 14
2026 1
2027 24
2028 1
2029 32
2030 11
2031 2
2032 47
2033 2
2034 29
2035 7
2036 14
2037 7
2038 20
2039 1
2040 11
2041 7
2042 12
2043 38
2044 14
2045 32
2046 0
2047 11
2048 12
2049 3
2050 11
2051 14
2052 11
2053 38
2054 14
2055 11
2056 4
2057 32
2058 24
2059 56
2060 5
2061 32
2062 41
2063 2
2064 46
2065 14
2066 38
2067 7
2068 59
2069 34
2070 43
2071 34
2072 30
2073 12
2074 7
2075 5
2076 4
2077 39
2078 26
2079 45
2080 7
2081 12
2082 11
2083 1
2084 52
2085 7
2086 20
2087 13
2088 2
2089 6
2090 47
2091 31
2092 3
2093 12
2094 20
2095 0
2096 34
2097 12
2098 14
2099 7
2100 14
2101 14
2102 12
2103 33
2104 20
2105 26
2106 2
2107 2
2108 18
2109 3
2110 24
2111 3
2112 11
2113 7
2114 3
2115 12
2116 51
2117 12
2118 34
2119 26
2120 22
2121 20
2122 32
2123 7
2124 11
2125 32
2126 41
2127 20
2128 33
2129 43
2130 24
2131 32
2132 39
2133 47
2134 7
2135 14
2136 14
2137 14
2138 17
2139 7
2140 24
2141 50
2142 45
2143 2
2144 7
2145 20
2146 20
2147 2
2148 2
2149 20
2150 38
2151 23
2152 9
2153 12
2154 50
2155 33
2156 11
2157 11
2158 11
2159 11
2160 20
2161 7
2162 0
2163 23
2164 7
2165 33
2166 2
2167 34
2168 39
2169 11
2170 34
2171 7
2172 4
2173 20
2174 7
2175 7
2176 44
2177 42
2178 14
2179 20
2180 4
2181 11
2182 18
2183 27
2184 25
2185 7
2186 44
2187 29
2188 11
2189 4
2190 20
2191 35
2192 17
2193 59
2194 7
2195 47
2196 3
2197 7
2198 14
2199 11
2200 40
2201 7
2202 42
2203 26
2204 42
2205 14
2206 31
2207 21
2208 52
2209 39
2210 11
2211 14
2212 27
2213 7
2214 41
2215 25
2216 20
2217 3
2218 3
2219 34
2220 20
2221 33
2222 47
2223 3
2224 23
2225 20
2226 0
2227 7
2228 7
2229 23
2230 47
2231 20
2232 4
2233 7
2234 4
2235 32
2236 9
2237 2
2238 20
2239 20
2240 22
2241 20
2242 45
2243 20
2244 7
2245 56
2246 52
2247 1
2248 30
2249 32
2250 48
2251 2
2252 7
2253 39
2254 32
2255 14
2256 45
2257 47
2258 42
2259 9
2260 7
2261 20
2262 21
2263 14
2264 2
2265 11
2266 3
2267 48
2268 6
2269 39
2270 20
2271 12
2272 43
2273 11
2274 12
2275 21
2276 20
2277 20
2278 6
2279 11
2280 43
2281 7
2282 34
2283 26
2284 36
2285 7
2286 1
2287 4
2288 1
2289 42
2290 7
2291 14
2292 14
2293 43
2294 20
2295 7
2296 11
2297 6
2298 14
2299 7
2300 20
2301 20
2302 33
2303 11
2304 22
2305 14
2306 45
2307 39
2308 11
2309 14
2310 28
2311 16
2312 2
2313 41
2314 41
2315 51
2316 58
2317 14
2318 14
2319 11
2320 16
2321 39
2322 2
2323 7
2324 7
2325 11
2326 33
2327 10
2328 0
2329 14
2330 17
2331 11
2332 7
2333 0
2334 1
2335 3
2336 11
2337 14
2338 25
2339 14
2340 36
2341 7
2342 7
2343 16
2344 47
2345 7
2346 56
2347 10
2348 33
2349 11
2350 32
2351 29
2352 7
2353 39
2354 59
2355 7
2356 13
2357 20
2358 22
2359 0
2360 14
2361 11
2362 14
2363 47
2364 23
2365 18
2366 14
2367 42
2368 3
2369 20
2370 46
2371 5
2372 7
2373 24
2374 38
2375 7
2376 26
2377 12
2378 20
2379 47
2380 32
2381 7
2382 53
2383 4
2384 49
2385 55
2386 7
2387 49
2388 41
2389 17
2390 7
2391 1
2392 7
2393 20
2394 11
2395 20
2396 7
2397 7
2398 3
2399 14
2400 17
2401 1
2402 7
2403 2
2404 26
2405 20
2406 11
2407 21
2408 14
2409 1
2410 14
2411 20
2412 42
2413 11
2414 20
2415 38
2416 2
2417 14
2418 7
2419 41
2420 7
2421 42
2422 14
2423 12
2424 20
2425 11
2426 11
2427 24
2428 10
2429 7
2430 14
2431 42
2432 7
2433 33
2434 23
2435 20
2436 7
2437 45
2438 20
2439 39
2440 20
2441 11
2442 7
2443 6
2444 20
2445 39
2446 11
2447 11
2448 11
2449 20
2450 7
2451 7
2452 7
2453 20
2454 38
2455 1
2456 6
2457 11
2458 24
2459 7
2460 42
2461 26
2462 7
2463 2
2464 51
2465 14
2466 14
2467 23
2468 32
2469 39
2470 43
2471 14
2472 7
2473 14
2474 2
2475 8
2476 14
2477 47
2478 20
2479 11
2480 22
2481 14
2482 20
2483 14
2484 14
2485 7
2486 14
2487 32
2488 1
2489 20
2490 20
2491 11
2492 20
2493 14
2494 7
2495 11
2496 7
2497 29
2498 20
2499 6
2500 20
2501 37
2502 33
2503 22
2504 47
2505 14
2506 7
2507 4
2508 47
2509 3
2510 8
2511 32
2512 14
2513 2
2514 11
2515 56
2516 3
2517 7
2518 56
2519 7
2520 2
2521 3
2522 14
2523 11
2524 20
2525 11
2526 21
2527 27
2528 11
2529 12
2530 12
2531 12
2532 34
2533 19
2534 7
2535 7
2536 20
2537 7
2538 2
2539 11
2540 2
2541 6
2542 22
2543 7
2544 2
2545 39
2546 3
2547 7
2548 7
2549 20
2550 14
2551 14
2552 7
2553 20
2554 14
2555 11
2556 20
2557 2
2558 11
2559 7
2560 56
2561 4
2562 11
2563 2
2564 7
2565 7
2566 23
2567 14
2568 18
2569 25
2570 17
2571 20
2572 41
2573 7
2574 38
2575 34
2576 42
2577 14
2578 24
2579 20
2580 2
2581 30
2582 2
2583 29
2584 11
2585 47
2586 11
2587 12
2588 21
2589 11
2590 52
2591 8
2592 55
2593 20
2594 20
2595 20
2596 17
2597 8
2598 20
2599 25
2600 2
2601 1
2602 11
2603 4
2604 0
2605 12
2606 24
2607 7
2608 7
2609 14
2610 14
2611 11
2612 55
2613 34
2614 1
2615 1
2616 0
2617 53
2618 14
2619 20
2620 7
2621 6
2622 11
2623 22
2624 1
2625 12
2626 43
2627 1
2628 48
2629 26
2630 32
2631 14
2632 18
2633 18
2634 24
2635 26
2636 11
2637 14
2638 14
2639 7
2640 7
2641 28
2642 2
2643 14
2644 6
2645 7
2646 20
2647 50
2648 14
2649 7
2650 46
2651 33
2652 2
2653 20
2654 7
2655 32
2656 7
2657 45
2658 26
2659 2
2660 47
2661 7
2662 37
2663 7
2664 7
2665 11
2666 33
2667 7
2668 20
2669 1
2670 21
2671 45
2672 43
2673 12
2674 19
2675 20
2676 7
2677 49
2678 2
2679 49
2680 11
2681 2
2682 37
2683 17
2684 1
2685 20
2686 2
2687 49
2688 33
2689 39
2690 32
2691 35
2692 14
2693 20
2694 7
2695 14
2696 7
2697 7
2698 7
2699 20
2700 7
2701 20
2702 7
2703 7
2704 14
2705 54
2706 3
2707 38
2708 52
2709 41
2710 59
2711 21
2712 12
2713 14
2714 11
2715 7
2716 21
2717 28
2718 2
2719 20
2720 34
2721 40
2722 20
2723 2
2724 2
2725 20
2726 41
2727 32
2728 25
2729 3
2730 7
2731 32
2732 14
2733 32
2734 33
2735 1
2736 57
2737 11
2738 26
2739 26
2740 11
2741 32
2742 20
2743 7
2744 10
2745 11
2746 29
2747 38
2748 11
2749 11
2750 37
2751 14
2752 14
2753 24
2754 7
2755 33
2756 47
2757 7
2758 11
2759 14
2760 20
2761 7
2762 14
2763 20
2764 14
2765 26
2766 56
2767 2
2768 20
2769 20
2770 20
2771 20
2772 7
2773 32
2774 14
2775 14
2776 14
2777 14
2778 11
2779 7
2780 20
2781 29
2782 2
2783 7
2784 32
2785 29
2786 2
2787 17
2788 11
2789 17
2790 32
2791 32
2792 7
2793 43
2794 3
2795 7
2796 39
2797 14
2798 11
2799 7
2800 31
2801 7
2802 11
2803 20
2804 6
2805 7
2806 2
2807 11
2808 14
2809 14
2810 33
2811 7
2812 12
2813 1
2814 1
2815 20
2816 7
2817 2
2818 7
2819 20
2820 43
2821 14
2822 41
2823 7
2824 14
2825 15
2826 47
2827 16
2828 39
2829 20
2830 29
2831 7
2832 54
2833 2
2834 11
2835 7
2836 13
2837 41
2838 3
2839 32
2840 20
2841 23
2842 16
2843 38
2844 11
2845 2
2846 55
2847 7
2848 11
2849 32
2850 11
2851 12
2852 11
2853 32
2854 20
2855 2
2856 7
2857 29
2858 32
2859 20
2860 7
2861 38
2862 35
2863 7
2864 32
2865 32
2866 14
2867 52
2868 1
2869 2
2870 1
2871 14
2872 7
2873 21
2874 14
2875 32
2876 20
2877 22
2878 25
2879 20
2880 32
2881 20
2882 12
2883 38
2884 6
2885 7
2886 1
2887 12
2888 7
2889 7
2890 14
2891 9
2892 32
2893 20
2894 54
2895 21
2896 43
2897 28
2898 29
2899 20
2900 32
2901 32
2902 26
2903 14
2904 32
2905 12
2906 40
2907 20
2908 2
2909 20
2910 14
2911 20
2912 38
2913 45
2914 14
2915 7
2916 14
2917 7
2918 20
2919 7
2920 7
2921 21
2922 2
2923 14
2924 20
2925 11
2926 26
2927 20
2928 11
2929 14
2930 11
2931 3
2932 56
2933 20
2934 33
2935 7
2936 11
2937 20
2938 11
2939 2
2940 7
2941 14
2942 12
2943 20
2944 47
2945 33
2946 20
2947 1
2948 7
2949 39
2950 21
2951 12
2952 7
2953 14
2954 11
2955 12
2956 32
2957 11
2958 38
2959 1
2960 21
2961 58
2962 2
2963 17
2964 21
2965 28
2966 2
2967 34
2968 11
2969 47
2970 20
2971 29
2972 21
2973 1
2974 11
2975 7
2976 14
2977 43
2978 7
2979 14
2980 20
2981 34
2982 7
2983 12
2984 25
2985 20
2986 14
2987 11
2988 22
2989 28
2990 7
2991 12
2992 43
2993 16
2994 21
2995 2
2996 7
2997 29
2998 20
2999 11
3000 14
3001 20
3002 7
3003 32
3004 27
3005 45
3006 2
3007 11
3008 7
3009 32
3010 29
3011 2
3012 2
3013 11
3014 2
3015 20
3016 2
3017 4
3018 14
3019 11
3020 25
3021 28
3022 12
3023 11
3024 35
3025 3
3026 20
3027 24
3028 14
3029 20
3030 20
3031 20
3032 21
3033 2
3034 22
3035 3
3036 13
3037 11
3038 20
3039 14
3040 56
3041 56
3042 6
3043 47
3044 20
3045 45
3046 11
3047 3
3048 14
3049 32
3050 14
3051 20
3052 2
3053 14
3054 24
3055 25
3056 14
3057 38
3058 11
3059 7
3060 11
3061 39
3062 11
3063 1
3064 11
3065 11
3066 20
3067 11
3068 17
3069 7
3070 14
3071 41
3072 31
3073 2
3074 11
3075 31
3076 20
3077 21
3078 39
3079 14
3080 3
3081 24
3082 32
3083 3
3084 20
3085 27
3086 6
3087 12
3088 55
3089 7
3090 7
3091 2
3092 13
3093 2
3094 11
3095 39
3096 6
3097 17
3098 20
3099 59
3100 11
3101 14
3102 4
3103 20
3104 0
3105 7
3106 24
3107 14
3108 14
3109 38
3110 0
3111 7
3112 34
3113 31
3114 12
3115 30
3116 18
3117 20
3118 1
3119 20
3120 14
3121 3
3122 12
3123 36
3124 26
3125 24
3126 41
3127 34
3128 7
3129 7
3130 20
3131 14
3132 11
3133 11
3134 14
3135 11
3136 6
3137 1
3138 14
3139 7
3140 14
3141 20
3142 14
3143 7
3144 2
3145 2
3146 7
3147 7
3148 26
3149 7
3150 34
3151 59
3152 56
3153 23
3154 2
3155 11
3156 2
3157 7
3158 14
3159 2
3160 2
3161 33
3162 14
3163 11
3164 7
3165 7
3166 2
3167 56
3168 7
3169 45
3170 14
3171 16
3172 47
3173 2
3174 45
3175 11
3176 26
3177 7
3178 32
3179 14
3180 46
3181 32
3182 3
3183 24
3184 35
3185 20
3186 20
3187 2
3188 45
3189 20
3190 20
3191 39
3192 11
3193 20
3194 21
3195 14
3196 28
3197 2
3198 14
3199 55
3200 14
3201 47
3202 20
3203 14
3204 36
3205 3
3206 55
3207 24
3208 11
3209 7
3210 1
3211 50
3212 12
3213 2
3214 11
3215 4
3216 1
3217 45
3218 14
3219 18
3220 54
3221 14
3222 54
3223 7
3224 11
3225 14
3226 6
3227 7
3228 11
3229 35
3230 20
3231 7
3232 20
3233 16
3234 58
3235 20
3236 11
3237 11
3238 11
3239 0
3240 11
3241 20
3242 20
3243 56
3244 14
3245 35
3246 55
3247 20
3248 3
3249 7
3250 11
3251 20
3252 17
3253 7
3254 33
3255 7
3256 20
3257 7
3258 14
3259 24
3260 12
3261 20
3262 2
3263 14
3264 18
3265 20
3266 14
3267 33
3268 14
3269 2
3270 2
3271 59
3272 39
3273 26
3274 7
3275 20
3276 7
3277 19
3278 11
3279 1
3280 20
3281 11
3282 39
3283 49
3284 48
3285 7
3286 32
3287 5
3288 32
3289 20
3290 7
3291 33
3292 14
3293 41
3294 2
3295 11
3296 13
3297 47
3298 14
3299 3
3300 7
3301 14
3302 11
3303 2
3304 33
3305 2
3306 47
3307 38
3308 20
3309 1
3310 26
3311 7
3312 33
3313 4
3314 7
3315 2
3316 20
3317 36
3318 20
3319 14
3320 4
3321 11
3322 29
3323 32
3324 11
3325 34
3326 49
3327 31
3328 2
3329 14
3330 15
3331 43
3332 11
3333 2
3334 2
3335 11
3336 20
3337 18
3338 20
3339 2
3340 45
3341 17
3342 11
3343 11
3344 13
3345 13
3346 14
3347 23
3348 3
3349 14
3350 7
3351 39
3352 39
3353 29
3354 2
3355 15
3356 47
3357 11
3358 14
3359 44
3360 15
3361 14
3362 36
3363 14
3364 25
3365 7
3366 46
3367 46
3368 7
3369 33
3370 38
3371 14
3372 8
3373 14
3374 47
3375 14
3376 38
3377 30
3378 49
3379 2
3380 2
3381 24
3382 25
3383 36
3384 30
3385 14
3386 1
3387 11
3388 4
3389 7
3390 2
3391 23
3392 22
3393 11
3394 11
3395 20
3396 25
3397 18
3398 20
3399 39
3400 14
3401 46
3402 11
3403 2
3404 48
3405 34
3406 12
3407 12
3408 24
3409 39
3410 7
3411 33
3412 16
3413 4
3414 11
3415 2
3416 1
3417 31
3418 7
3419 24
3420 21
3421 25
3422 30
3423 11
3424 11
3425 14
3426 1
3427 14
3428 2
3429 59
3430 32
3431 1
3432 1
3433 36
3434 17
3435 36
3436 35
3437 12
3438 29
3439 7
3440 38
3441 7
3442 11
3443 11
3444 19
3445 14
3446 31
3447 7
3448 49
3449 35
3450 11
3451 42
3452 38
3453 7
3454 2
3455 2
3456 1
3457 32
3458 24
3459 11
3460 29
3461 44
3462 32
3463 38
3464 14
3465 0
3466 7
3467 7
3468 1
3469 47
3470 40
3471 20
3472 3
3473 47
3474 11
3475 14
3476 14
3477 32
3478 16
3479 14
3480 39
3481 54
3482 2
3483 7
3484 14
3485 2
3486 7
3487 7
3488 11
3489 20
3490 42
3491 14
3492 14
3493 24
3494 14
3495 26
3496 46
3497 32
3498 3
3499 12
3500 14
3501 14
3502 11
3503 0
3504 11
3505 16
3506 24
3507 27
3508 39
3509 22
3510 39
3511 11
3512 24
3513 7
3514 20
3515 58
3516 32
3517 33
3518 12
3519 14
3520 20
3521 14
3522 20
3523 20
3524 11
3525 7
3526 14
3527 20
3528 11
3529 14
3530 32
3531 41
3532 14
3533 11
3534 28
3535 28
3536 7
3537 4
3538 40
3539 20
3540 7
3541 13
3542 28
3543 7
3544 39
3545 20
3546 7
3547 14
3548 12
3549 14
3550 1
3551 11
3552 11
3553 39
3554 10
3555 32
3556 32
3557 7
3558 32
3559 7
3560 2
3561 39
3562 14
3563 11
3564 2
3565 11
3566 14
3567 20
3568 14
3569 21
3570 24
3571 2
3572 13
3573 7
3574 12
3575 7
3576 7
3577 30
3578 7
3579 46
3580 20
3581 14
3582 34
3583 11
3584 35
3585 20
3586 46
3587 43
3588 1
3589 20
3590 2
3591 0
3592 14
3593 12
3594 26
3595 2
3596 14
3597 57
3598 20
3599 3
3600 14
3601 20
3602 29
3603 14
3604 20
3605 12
3606 2
3607 26
3608 30
3609 46
3610 20
3611 56
3612 7
3613 2
3614 25
3615 20
3616 43
3617 20
3618 20
3619 11
3620 45
3621 14
3622 54
3623 36
3624 47
3625 14
3626 37
3627 26
3628 14
3629 20
3630 0
3631 11
3632 11
3633 39
3634 13
3635 14
3636 2
3637 1
3638 0
3639 30
3640 1
3641 7
3642 1
3643 7
3644 50
3645 23
3646 2
3647 14
3648 20
3649 20
3650 0
3651 11
3652 2
3653 7
3654 20
3655 39
3656 20
3657 34
3658 39
3659 20
3660 21
3661 11
3662 13
3663 14
3664 7
3665 11
3666 38
3667 2
3668 20
3669 39
3670 24
3671 17
3672 13
3673 47
3674 37
3675 7
3676 14
3677 7
3678 20
3679 2
3680 20
3681 47
3682 39
3683 14
3684 11
3685 7
3686 20
3687 2
3688 20
3689 29
3690 3
3691 7
3692 33
3693 11
3694 43
3695 7
3696 0
3697 0
3698 49
3699 3
3700 11
3701 2
3702 12
3703 11
3704 14
3705 11
3706 20
3707 2
3708 41
3709 20
3710 2
3711 7
3712 2
3713 20
3714 20
3715 50
3716 4
3717 43
3718 14
3719 11
3720 2
3721 23
3722 11
3723 25
3724 12
3725 14
3726 4
3727 2
3728 52
3729 2
3730 2
3731 17
3732 24
3733 46
3734 20
3735 11
3736 47
3737 2
3738 14
3739 51
3740 7
3741 14
3742 11
3743 20
3744 7
3745 20
3746 14
3747 20
3748 29
3749 4
3750 33
3751 2
3752 37
3753 12
3754 49
3755 2
3756 20
3757 11
3758 20
3759 14
3760 39
3761 41
3762 14
3763 2
3764 25
3765 24
3766 39
3767 11
3768 23
3769 7
3770 32
3771 33
3772 7
3773 11
3774 7
3775 14
3776 11
3777 20
3778 14
3779 11
3780 32
3781 11
3782 56
3783 20
3784 14
3785 7
3786 32
3787 33
3788 11
3789 38
3790 14
3791 23
3792 14
3793 24
3794 11
3795 7
3796 20
3797 20
3798 12
3799 47
3800 1
3801 7
3802 14
3803 11
3804 14
3805 36
3806 34
3807 47
3808 20
3809 11
3810 33
3811 21
3812 20
3813 29
3814 7
3815 56
3816 43
3817 47
3818 11
3819 7
3820 20
3821 20
3822 11
3823 36
3824 36
3825 14
3826 56
3827 14
3828 7
3829 11
3830 1
3831 6
3832 20
3833 20
3834 7
3835 19
3836 14
3837 26
3838 29
3839 24
3840 14
3841 10
3842 29
3843 56
3844 7
3845 14
3846 12
3847 20
3848 14
3849 17
3850 32
3851 14
3852 20
3853 45
3854 20
3855 55
3856 17
3857 20
3858 1
3859 12
3860 2
3861 32
3862 14
3863 7
3864 24
3865 36
3866 45
3867 32
3868 24
3869 20
3870 29
3871 14
3872 7
3873 14
3874 32
3875 28
3876 2
3877 2
3878 7
3879 14
3880 14
3881 43
3882 2
3883 14
3884 42
3885 20
3886 11
3887 30
3888 5
3889 20
3890 32
3891 14
3892 2
3893 14
3894 3
3895 30
3896 14
3897 45
3898 11
3899 1
3900 12
3901 20
3902 7
3903 32
3904 26
3905 14
3906 14
3907 12
3908 14
3909 32
3910 11
3911 47
3912 2
3913 0
3914 7
3915 7
3916 45
3917 22
3918 20
3919 20
3920 20
3921 39
3922 7
3923 14
3924 46
3925 14
3926 21
3927 14
3928 2
3929 20
3930 14
3931 2
3932 14
3933 47
3934 7
3935 32
3936 11
3937 7
3938 7
3939 7
3940 14
3941 14
3942 20
3943 14
3944 43
3945 21
3946 12
3947 32
3948 14
3949 7
3950 18
3951 11
3952 7
3953 11
3954 2
3955 20
3956 32
3957 12
3958 20
3959 29
3960 14
3961 33
3962 22
3963 18
3964 9
3965 3
3966 40
3967 14
3968 20
3969 3
3970 2
3971 21
3972 3
3973 17
3974 7
3975 2
3976 32
3977 32
3978 21
3979 25
3980 11
3981 20
3982 14
3983 25
3984 11
3985 2
3986 7
3987 54
3988 12
3989 32
3990 14
3991 14
3992 2
3993 14
3994 7
3995 21
3996 1
3997 55
3998 11
3999 20
4000 7
4001 47
4002 2
4003 14
4004 11
4005 11
4006 14
4007 11
4008 13
4009 7
4010 37
4011 26
4012 58
4013 20
4014 7
4015 42
4016 29
4017 41
4018 29
4019 14
4020 11
4021 12
4022 20
4023 24
4024 7
4025 20
4026 29
4027 27
4028 20
4029 7
4030 25
4031 26
4032 7
4033 39
4034 14
4035 18
4036 14
4037 3
4038 3
4039 56
4040 12
4041 11
4042 3
4043 14
4044 37
4045 21
4046 43
4047 20
4048 20
4049 7
4050 7
4051 33
4052 11
4053 20
4054 7
4055 14
4056 20
4057 14
4058 38
4059 47
4060 12
4061 1
4062 32
4063 34
4064 11
4065 7
4066 20
4067 17
4068 20
4069 14
4070 41
4071 11
4072 20
4073 12
4074 14
4075 2
4076 20
4077 3
4078 56
4079 35
4080 7
4081 7
4082 7
4083 11
4084 14
4085 14
4086 24
4087 20
4088 55
4089 11
4090 11
4091 55
4092 7
4093 2
4094 3
4095 52
4096 7
4097 37
4098 12
4099 1
4100 26
4101 11
4102 11
4103 41
4104 2
4105 36
4106 25
4107 20
4108 14
4109 17
4110 14
4111 38
4112 43
4113 25
4114 14
4115 32
4116 14
4117 2
4118 10
4119 7
4120 34
4121 7
4122 22
4123 20
4124 37
4125 11
4126 47
4127 11
4128 53
4129 7
4130 34
4131 30
4132 13
4133 46
4134 26
4135 52
4136 7
4137 24
4138 20
4139 1
4140 9
4141 30
4142 2
4143 14
4144 20
4145 2
4146 30
4147 3
4148 51
4149 1
4150 20
4151 3
4152 7
4153 26
4154 2
4155 11
4156 56
4157 30
4158 11
4159 21
4160 7
4161 11
4162 14
4163 33
4164 44
4165 54
4166 34
4167 36
4168 22
4169 11
4170 20
4171 20
4172 11
4173 14
4174 24
4175 7
4176 7
4177 1
4178 56
4179 43
4180 7
4181 7
4182 20
4183 3
4184 20
4185 44
4186 11
4187 42
4188 14
4189 42
4190 18
4191 17
4192 49
4193 11
4194 18
4195 12
4196 46
4197 29
4198 13
4199 30
4200 11
4201 23
4202 43
4203 32
4204 14
4205 1
4206 17
4207 14
4208 14
4209 47
4210 1
4211 1
4212 6
4213 14
4214 5
4215 20
4216 14
4217 9
4218 14
4219 20
4220 1
4221 51
4222 11
4223 43
4224 14
4225 2
4226 23
4227 3
4228 20
4229 21
4230 19
4231 11
4232 15
4233 19
4234 4
4235 14
4236 39
4237 41
4238 14
4239 11
4240 25
4241 23
4242 51
4243 49
4244 20
4245 36
4246 14
4247 5
4248 34
4249 12
4250 11
4251 24
4252 42
4253 37
4254 5
4255 17
4256 6
4257 14
4258 41
4259 0
4260 47
4261 13
4262 19
4263 20
4264 14
4265 47
4266 31
4267 49
4268 38
4269 7
4270 42
4271 20
4272 2
4273 20
4274 34
4275 17
4276 15
4277 56
4278 26
4279 17
4280 28
4281 23
4282 3
4283 14
4284 14
4285 11
4286 25
4287 38
4288 3
4289 20
4290 14
4291 14
4292 4
4293 3
4294 11
4295 39
4296 20
4297 56
4298 37
4299 42
4300 41
4301 33
4302 7
4303 3
4304 7
4305 1
4306 14
4307 19
4308 28
4309 4
4310 20
4311 32
4312 7
4313 11
4314 49
4315 14
4316 20
4317 14
4318 27
4319 43
4320 9
4321 22
4322 9
4323 39
4324 16
4325 20
4326 36
4327 7
4328 39
4329 11
4330 1
4331 1
4332 11
4333 0
4334 39
4335 9
4336 42
4337 9
4338 12
4339 7
4340 1
4341 41
4342 42
4343 20
4344 36
4345 50
4346 20
4347 32
4348 17
4349 32
4350 25
4351 14
4352 41
4353 7
4354 11
4355 22
4356 7
4357 11
4358 20
4359 7
4360 2
4361 3
4362 7
4363 7
4364 7
4365 2
4366 2
4367 11
4368 14
4369 47
4370 50
4371 3
4372 16
4373 38
4374 20
4375 14
4376 50
4377 20
4378 33
4379 4
4380 22
4381 7
4382 47
4383 1
4384 7
4385 14
4386 24
4387 20
4388 11
4389 41
4390 42
4391 2
4392 4
4393 40
4394 11
4395 20
4396 33
4397 1
4398 20
4399 33
4400 7
4401 53
4402 0
4403 20
4404 30
4405 20
4406 16
4407 18
4408 22
4409 1
4410 21
4411 20
4412 36
4413 20
4414 11
4415 20
4416 43
4417 3
4418 20
4419 20
4420 12
4421 7
4422 14
4423 33
4424 15
4425 23
4426 11
4427 38
4428 32
4429 11
4430 32
4431 8
4432 4
4433 11
4434 46
4435 58
4436 30
4437 7
4438 14
4439 22
4440 14
4441 14
4442 39
4443 14
4444 20
4445 17
4446 28
4447 43
4448 6
4449 45
4450 7
4451 2
4452 20
4453 26
4454 14
4455 33
4456 3
4457 11
4458 3
4459 7
4460 2
4461 12
4462 20
4463 42
4464 20
4465 34
4466 29
4467 29
4468 12
4469 7
4470 14
4471 40
4472 7
4473 7
4474 14
4475 12
4476 20
4477 14
4478 14
4479 11
4480 2
4481 11
4482 14
4483 35
4484 11
4485 14
4486 32
4487 11
4488 26
4489 1
4490 51
4491 16
4492 14
4493 11
4494 18
4495 11
4496 2
4497 11
4498 42
4499 14
4500 43
4501 20
4502 14
4503 11
4504 14
4505 29
4506 33
4507 29
4508 14
4509 7
4510 11
4511 34
4512 20
4513 42
4514 11
4515 11
4516 1
4517 47
4518 7
4519 20
4520 33
4521 7
4522 20
4523 8
4524 32
4525 14
4526 1
4527 15
4528 7
4529 22
4530 58
4531 14
4532 25
4533 11
4534 11
4535 7
4536 39
4537 39
4538 11
4539 24
4540 2
4541 32
4542 2
4543 1
4544 14
4545 14
4546 14
4547 20
4548 8
4549 11
4550 14
4551 46
4552 20
4553 47
4554 3
4555 19
4556 33
4557 20
4558 7
4559 20
4560 14
4561 14
4562 20
4563 34
4564 15
4565 23
4566 46
4567 7
4568 47
4569 43
4570 17
4571 30
4572 7
4573 3
4574 18
4575 14
4576 19
4577 31
4578 11
4579 2
4580 31
4581 12
4582 52
4583 1
4584 14
4585 20
4586 2
4587 11
4588 34
4589 58
4590 14
4591 24
4592 2
4593 17
4594 20
4595 21
4596 29
4597 2
4598 32
4599 18
4600 27
4601 14
4602 11
4603 7
4604 14
4605 7
4606 19
4607 7
4608 52
4609 2
4610 14
4611 7
4612 32
4613 2
4614 31
4615 7
4616 36
4617 7
4618 26
4619 11
4620 21
4621 7
4622 0
4623 33
4624 38
4625 32
4626 12
4627 7
4628 20
4629 14
4630 7
4631 34
4632 34
4633 2
4634 12
4635 22
4636 25
4637 1
4638 20
4639 34
4640 7
4641 2
4642 55
4643 26
4644 14
4645 20
4646 24
4647 38
4648 45
4649 9
4650 26
4651 31
4652 22
4653 14
4654 16
4655 33
4656 5
4657 2
4658 9
4659 26
4660 11
4661 7
4662 37
4663 3
4664 14
4665 20
4666 11
4667 11
4668 33
4669 24
4670 47
4671 1
4672 21
4673 14
4674 33
4675 35
4676 11
4677 11
4678 2
4679 24
4680 59
4681 46
4682 0
4683 0
4684 30
4685 14
4686 20
4687 20
4688 37
4689 14
4690 23
4691 11
4692 20
4693 14
4694 11
4695 14
4696 7
4697 14
4698 38
4699 14
4700 14
4701 11
4702 24
4703 1
4704 14
4705 31
4706 23
4707 7
4708 24
4709 7
4710 2
4711 17
4712 14
4713 47
4714 52
4715 12
4716 55
4717 2
4718 11
4719 7
4720 18
4721 6
4722 20
4723 12
4724 25
4725 43
4726 55
4727 33
4728 24
4729 29
4730 7
4731 11
4732 33
4733 11
4734 1
4735 41
4736 14
4737 7
4738 47
4739 14
4740 20
4741 7
4742 7
4743 2
4744 28
4745 7
4746 13
4747 23
4748 20
4749 14
4750 14
4751 7
4752 4
4753 21
4754 54
4755 32
4756 20
4757 33
4758 39
4759 20
4760 59
4761 7
4762 7
4763 30
4764 7
4765 11
4766 1
4767 17
4768 14
4769 20
4770 20
4771 14
4772 45
4773 23
4774 20
4775 11
4776 7
4777 32
4778 20
4779 52
4780 7
4781 11
4782 11
4783 14
4784 11
4785 32
4786 39
4787 11
4788 11
4789 7
4790 14
4791 5
4792 17
4793 20
4794 3
4795 11
4796 49
4797 11
4798 26
4799 1
4800 11
4801 20
4802 14
4803 47
4804 11
4805 11
4806 5
4807 17
4808 14
4809 7
4810 24
4811 32
4812 1
4813 2
4814 20
4815 20
4816 24
4817 7
4818 7
4819 32
4820 11
4821 18
4822 2
4823 42
4824 11
4825 20
4826 7
4827 3
4828 11
4829 11
4830 14
4831 17
4832 20
4833 14
4834 14
4835 39
4836 20
4837 26
4838 20
4839 7
4840 47
4841 7
4842 7
4843 29
4844 14
4845 14
4846 49
4847 7
4848 29
4849 2
4850 14
4851 20
4852 32
4853 2
4854 20
4855 33
4856 14
4857 37
4858 7
4859 2
4860 47
4861 30
4862 34
4863 20
4864 14
4865 7
4866 7
4867 11
4868 37
4869 2
4870 20
4871 20
4872 3
4873 1
4874 3
4875 11
4876 13
4877 14
4878 11
4879 29
4880 7
4881 23
4882 38
4883 47
4884 47
4885 32
4886 24
4887 56
4888 11
4889 20
4890 39
4891 14
4892 24
4893 29
4894 12
4895 11
4896 7
4897 7
4898 20
4899 33
4900 33
4901 31
4902 20
4903 20
4904 41
4905 12
4906 37
4907 2
4908 11
4909 36
4910 11
4911 20
4912 15
4913 4
4914 14
4915 36
4916 32
4917 11
4918 23
4919 7
4920 20
4921 14
4922 7
4923 1
4924 2
4925 11
4926 18
4927 7
4928 20
4929 23
4930 35
4931 7
4932 48
4933 11
4934 29
4935 7
4936 2
4937 7
4938 29
4939 7
4940 7
4941 24
4942 7
4943 21
4944 57
4945 20
4946 0
4947 22
4948 2
4949 29
4950 12
4951 7
4952 20
4953 7
4954 26
4955 29
4956 29
4957 7
4958 7
4959 1
4960 2
4961 37
4962 14
4963 14
4964 14
4965 21
4966 34
4967 7
4968 11
4969 32
4970 7
4971 12
4972 20
4973 7
4974 7
4975 36
4976 14
4977 20
4978 12
4979 1
4980 2
4981 14
4982 21
4983 2
4984 2
4985 41
4986 1
4987 14
4988 6
4989 2
4990 2
4991 21
4992 14
4993 38
4994 7
4995 2
4996 20
4997 26
4998 30
4999 11
5000 38
5001 2
5002 12
5003 11
5004 14
5005 5
5006 32
5007 25
5008 58
5009 28
5010 7
5011 7
5012 12
5013 14
5014 1
5015 28
5016 41
5017 19
5018 14
5019 46
5020 29
5021 21
5022 14
5023 14
5024 7
5025 11
5026 2
5027 12
5028 11
5029 14
5030 52
5031 11
5032 2
5033 14
5034 11
5035 12
5036 12
5037 15
5038 12
5039 12
5040 2
5041 43
5042 20
5043 7
5044 39
5045 14
5046 46
5047 14
5048 9
5049 11
5050 3
5051 39
5052 20
5053 7
5054 29
5055 20
5056 2
5057 2
5058 20
5059 7
5060 47
5061 7
5062 7
5063 21
5064 7
5065 25
5066 32
5067 20
5068 11
5069 1
5070 47
5071 20
5072 7
5073 2
5074 13
5075 20
5076 20
5077 20
5078 20
5079 14
5080 7
5081 7
5082 2
5083 20
5084 43
5085 9
5086 2
5087 7
5088 41
5089 7
5090 34
5091 11
5092 20
5093 14
5094 7
5095 33
5096 20
5097 2
5098 11
5099 31
5100 11
5101 14
5102 29
5103 14
5104 56
5105 7
5106 26
5107 7
5108 1
5109 7
5110 7
5111 14
5112 7
5113 7
5114 14
5115 20
5116 46
5117 20
5118 7
5119 14
5120 12
5121 7
5122 35
5123 14
5124 56
5125 29
5126 23
5127 11
5128 20
5129 7
5130 20
5131 11
5132 11
5133 55
5134 46
5135 24
5136 47
5137 59
5138 7
5139 21
5140 57
5141 36
5142 24
5143 23
5144 23
5145 1
5146 47
5147 34
5148 30
5149 33
5150 20
5151 7
5152 7
5153 13
5154 7
5155 2
5156 2
5157 7
5158 21
5159 34
5160 18
5161 39
5162 20
5163 3
5164 2
5165 7
5166 14
5167 7
5168 2
5169 7
5170 24
5171 36
5172 1
5173 20
5174 50
5175 14
5176 59
5177 47
5178 14
5179 2
5180 11
5181 20
5182 39
5183 1
5184 14
5185 2
5186 12
5187 20
5188 11
5189 14
5190 2
5191 37
5192 7
5193 2
5194 29
5195 21
5196 7
5197 11
5198 32
5199 0
5200 11
5201 12
5202 1
5203 20
5204 27
5205 47
5206 12
5207 56
5208 34
5209 20
5210 32
5211 17
5212 29
5213 56
5214 1
5215 14
5216 2
5217 12
5218 33
5219 34
5220 11
5221 3
5222 14
5223 7
5224 36
5225 7
5226 45
5227 20
5228 14
5229 43
5230 7
5231 42
5232 7
5233 7
5234 20
5235 45
5236 16
5237 37
5238 22
5239 2
5240 32
5241 20
5242 11
5243 39
5244 19
5245 2
5246 7
5247 12
5248 29
5249 14
5250 34
5251 39
5252 24
5253 14
5254 14
5255 34
5256 11
5257 20
5258 18
5259 14
5260 11
5261 7
5262 51
5263 11
5264 11
5265 7
5266 14
5267 49
5268 14
5269 8
5270 11
5271 20
5272 16
5273 2
5274 11
5275 11
5276 2
5277 11
5278 14
5279 0
5280 12
5281 2
5282 14
5283 21
5284 21
5285 24
5286 37
5287 7
5288 20
5289 7
5290 7
5291 7
5292 33
5293 1
5294 53
5295 33
5296 7
5297 27
5298 0
5299 11
5300 23
5301 35
5302 7
5303 14
5304 7
5305 7
5306 37
5307 2
5308 26
5309 20
5310 29
5311 17
5312 14
5313 7
5314 3
5315 11
5316 20
5317 14
5318 14
5319 20
5320 20
5321 0
5322 14
5323 3
5324 17
5325 20
5326 56
5327 13
5328 34
5329 11
5330 5
5331 30
5332 31
5333 59
5334 27
5335 32
5336 24
5337 18
5338 36
5339 7
5340 27
5341 14
5342 36
5343 2
5344 22
5345 26
5346 7
5347 45
5348 7
5349 14
5350 17
5351 29
5352 27
5353 39
5354 56
5355 14
5356 33
5357 32
5358 56
5359 14
5360 3
5361 20
5362 14
5363 30
5364 23
5365 14
5366 29
5367 14
5368 7
5369 14
5370 20
5371 56
5372 7
5373 21
5374 21
5375 47
5376 32
5377 14
5378 43
5379 14
5380 14
5381 20
5382 7
5383 39
5384 14
5385 7
5386 12
5387 20
5388 7
5389 11
5390 11
5391 11
5392 1
5393 11
5394 14
5395 39
5396 17
5397 20
5398 7
5399 0
5400 53
5401 2
5402 14
5403 2
5404 26
5405 47
5406 7
5407 2
5408 7
5409 7
5410 7
5411 7
5412 3
5413 7
5414 7
5415 38
5416 7
5417 14
5418 7
5419 14
5420 46
5421 45
5422 54
5423 29
5424 46
5425 4
5426 32
5427 41
5428 32
5429 11
5430 7
5431 14
5432 11
5433 3
5434 14
5435 17
5436 20
5437 25
5438 7
5439 11
5440 17
5441 35
5442 17
5443 7
5444 11
5445 22
5446 2
5447 11
5448 23
5449 13
5450 2
5451 20
5452 11
5453 41
5454 11
5455 11
5456 14
5457 14
5458 54
5459 57
5460 20
5461 47
5462 58
5463 21
5464 7
5465 11
5466 18
5467 24
5468 20
5469 0
5470 20
5471 47
5472 2
5473 11
5474 6
5475 20
5476 11
5477 47
5478 11
5479 14
5480 40
5481 14
5482 37
5483 7
5484 39
5485 11
5486 4
5487 7
5488 0
5489 38
5490 35
5491 3
5492 11
5493 1
5494 39
5495 4
5496 20
5497 14
5498 1
5499 7
5500 15
5501 16
5502 2
5503 11
5504 43
5505 11
5506 1
5507 2
5508 22
5509 3
5510 46
5511 20
5512 20
5513 11
5514 7
5515 20
5516 39
5517 19
5518 11
5519 7
5520 57
5521 3
5522 14
5523 41
5524 20
5525 7
5526 32
5527 8
5528 14
5529 46
5530 23
5531 7
5532 7
5533 11
5534 38
5535 11
5536 7
5537 7
5538 19
5539 34
5540 12
5541 20
5542 20
5543 20
5544 20
5545 16
5546 7
5547 14
5548 0
5549 58
5550 2
5551 20
5552 11
5553 11
5554 11
5555 1
5556 14
5557 34
5558 29
5559 0
5560 14
5561 25
5562 7
5563 39
5564 9
5565 48
5566 20
5567 19
5568 2
5569 11
5570 7
5571 20
5572 14
5573 2
5574 46
5575 47
5576 2
5577 6
5578 7
5579 35
5580 46
5581 43
5582 2
5583 20
5584 2
5585 7
5586 45
5587 46
5588 23
5589 1
5590 7
5591 2
5592 11
5593 7
5594 15
5595 45
5596 7
5597 42
5598 29
5599 11
5600 11
5601 32
5602 56
5603 20
5604 11
5605 17
5606 39
5607 20
5608 20
5609 33
5610 25
5611 7
5612 32
5613 41
5614 41
5615 15
5616 43
5617 32
5618 3
5619 24
5620 14
5621 45
5622 26
5623 20
5624 20
5625 24
5626 47
5627 32
5628 14
5629 33
5630 38
5631 20
5632 14
5633 39
5634 11
5635 42
5636 14
5637 2
5638 41
5639 45
5640 2
5641 14
5642 14
5643 24
5644 15
5645 32
5646 0
5647 2
5648 40
5649 20
5650 2
5651 29
5652 6
5653 12
5654 13
5655 20
5656 7
5657 12
5658 40
5659 10
5660 7
5661 14
5662 50
5663 12
5664 52
5665 11
5666 9
5667 52
5668 20
5669 7
5670 21
5671 16
5672 14
5673 27
5674 30
5675 19
5676 23
5677 34
5678 22
5679 17
5680 38
5681 43
5682 7
5683 26
5684 1
5685 14
5686 32
5687 9
5688 11
5689 14
5690 23
5691 7
5692 20
5693 2
5694 11
5695 14
5696 24
5697 11
5698 11
5699 11
5700 47
5701 12
5702 1
5703 7
5704 2
5705 11
5706 15
5707 11
5708 43
5709 20
5710 28
5711 1
5712 7
5713 29
5714 38
5715 2
5716 7
5717 15
5718 11
5719 7
5720 20
5721 14
5722 14
5723 14
5724 24
5725 24
5726 2
5727 32
5728 51
5729 33
5730 11
5731 11
5732 4
5733 33
5734 7
5735 23
5736 11
5737 33
5738 13
5739 28
5740 2
5741 1
5742 14
5743 20
5744 14
5745 33
5746 39
5747 14
5748 34
5749 14
5750 20
5751 11
5752 13
5753 20
5754 39
5755 14
5756 20
5757 20
5758 14
5759 2
5760 43
5761 20
5762 3
5763 14
5764 2
5765 11
5766 1
5767 4
5768 14
5769 49
5770 1
5771 5
5772 25
5773 20
5774 7
5775 26
5776 7
5777 2
5778 19
5779 14
5780 3
5781 7
5782 38
5783 11
5784 49
5785 20
5786 33
5787 41
5788 7
5789 24
5790 14
5791 20
5792 14
5793 23
5794 7
5795 11
5796 49
5797 11
5798 7
5799 11
5800 39
5801 13
5802 20
5803 29
5804 20
5805 32
5806 36
5807 7
5808 14
5809 24
5810 25
5811 3
5812 33
5813 2
5814 24
5815 12
5816 30
5817 32
5818 2
5819 29
5820 32
5821 32
5822 7
5823 21
5824 20
5825 20
5826 14
5827 29
5828 39
5829 2
5830 9
5831 3
5832 42
5833 11
5834 7
5835 31
5836 14
5837 20
5838 20
5839 7
5840 50
5841 59
5842 20
5843 0
5844 12
5845 12
5846 3
5847 20
5848 14
5849 3
5850 2
5851 2
5852 11
5853 14
5854 20
5855 2
5856 39
5857 12
5858 20
5859 7
5860 7
5861 20
5862 2
5863 15
5864 56
5865 7
5866 21
5867 20
5868 18
5869 14
5870 32
5871 14
5872 11
5873 14
5874 11
5875 2
5876 24
5877 11
5878 14
5879 20
5880 14
5881 36
5882 23
5883 7
5884 2
5885 7
5886 36
5887 47
5888 32
5889 29
5890 7
5891 2
5892 22
5893 39
5894 2
5895 2
5896 14
5897 11
5898 45
5899 7
5900 2
5901 11
5902 14
5903 22
5904 14
5905 20
5906 0
5907 2
5908 2
5909 11
5910 7
5911 7
5912 31
5913 20
5914 11
5915 45
5916 29
5917 33
5918 12
5919 32
5920 44
5921 20
5922 20
5923 39
5924 7
5925 2
5926 20
5927 2
5928 14
5929 29
5930 2
5931 20
5932 29
5933 14
5934 11
5935 39
5936 21
5937 7
5938 32
5939 14
5940 32
5941 20
5942 58
5943 7
5944 12
5945 21
5946 14
5947 12
5948 31
5949 12
5950 11
5951 14
5952 3
5953 7
5954 1
5955 45
5956 11
5957 12
5958 0
5959 12
5960 7
5961 40
5962 11
5963 2
5964 45
5965 7
5966 1
5967 11
5968 11
5969 14
5970 9
5971 14
5972 32
5973 7
5974 14
5975 11
5976 45
5977 29
5978 2
5979 7
5980 20
5981 14
5982 20
5983 2
5984 34
5985 43
5986 2
5987 14
5988 14
5989 47
5990 20
5991 29
5992 11
5993 12
5994 2
5995 11
5996 1
5997 32
5998 46
5999 38
6000 7
6001 20
6002 22
6003 2
6004 29
6005 14
6006 2
6007 33
6008 9
6009 7
6010 20
6011 1
6012 7
6013 14
6014 11
6015 7
6016 14
6017 7
6018 8
6019 1
6020 14
6021 20
6022 20
6023 47
6024 14
6025 14
6026 7
6027 1
6028 30
6029 11
6030 13
6031 50
6032 7
6033 25
6034 41
6035 7
6036 2
6037 12
6038 12
6039 12
6040 43
6041 11
6042 14
6043 21
6044 26
6045 2
6046 7
6047 12
6048 5
6049 37
6050 20
6051 11
6052 14
6053 5
6054 20
6055 11
6056 3
6057 32
6058 20
6059 14
6060 14
6061 0
6062 13
6063 7
6064 21
6065 6
6066 11
6067 12
6068 58
6069 1
6070 14
6071 6
6072 12
6073 24
6074 34
6075 32
6076 42
6077 14
6078 31
6079 7
6080 11
6081 29
6082 20
6083 2
6084 2
6085 2
6086 24
6087 7
6088 25
6089 38
6090 22
6091 7
6092 11
6093 7
6094 11
6095 23
6096 28
6097 7
6098 20
6099 14
6100 56
6101 52
6102 18
6103 1
6104 14
6105 20
6106 14
6107 7
6108 14
6109 23
6110 4
6111 20
6112 33
6113 14
6114 14
6115 2
6116 14
6117 14
6118 20
6119 11
6120 14
6121 7
6122 27
6123 14
6124 11
6125 33
6126 11
6127 14
6128 7
6129 18
6130 0
6131 2
6132 2
6133 3
6134 20
6135 13
6136 21
6137 20
6138 39
6139 7
6140 1
6141 33
6142 32
6143 33
6144 11
6145 0
6146 11
6147 2
6148 56
6149 14
6150 47
6151 15
6152 32
6153 14
6154 20
6155 24
6156 45
6157 21
6158 11
6159 11
6160 7
6161 11
6162 14
6163 16
6164 10
6165 46
6166 7
6167 20
6168 11
6169 11
6170 32
6171 7
6172 37
6173 19
6174 1
6175 53
6176 7
6177 34
6178 15
6179 25
6180 20
6181 20
6182 2
6183 20
6184 20
6185 20
6186 22
6187 15
6188 39
6189 23
6190 27
6191 14
6192 19
6193 20
6194 17
6195 14
6196 20
6197 20
6198 23
6199 55
6200 14
6201 46
6202 2
6203 3
6204 7
6205 1
6206 37
6207 26
6208 34
6209 37
6210 4
6211 7
6212 2
6213 14
6214 12
6215 20
6216 1
6217 47
6218 37
6219 12
6220 0
6221 11
6222 17
6223 10
6224 7
6225 20
6226 14
6227 0
6228 14
6229 43
6230 20
6231 36
6232 3
6233 24
6234 11
6235 48
6236 11
6237 17
6238 22
6239 46
6240 11
6241 11
6242 55
6243 7
6244 7
6245 53
6246 2
6247 17
6248 47
6249 46
6250 17
6251 14
6252 42
6253 7
6254 35
6255 20
6256 14
6257 15
6258 6
6259 26
6260 19
6261 45
6262 36
6263 2
6264 7
6265 1
6266 11
6267 2
6268 41
6269 7
6270 14
6271 32
6272 14
6273 0
6274 33
6275 2
6276 20
6277 7
6278 11
6279 7
6280 31
6281 17
6282 7
6283 7
6284 31
6285 1
6286 49
6287 1
6288 15
6289 20
6290 20
6291 18
6292 33
6293 20
6294 25
6295 14
6296 34
6297 9
6298 34
6299 17
6300 20
6301 14
6302 2
6303 15
6304 33
6305 18
6306 7
6307 41
6308 14
6309 7
6310 14
6311 0
6312 11
6313 6
6314 41
6315 12
6316 39
6317 33
6318 43
6319 11
6320 11
6321 20
6322 20
6323 14
6324 11
6325 7
6326 43
6327 33
6328 32
6329 24
6330 38
6331 33
6332 26
6333 25
6334 7
6335 5
6336 45
6337 11
6338 32
6339 20
6340 58
6341 5
6342 7
6343 39
6344 7
6345 3
6346 17
6347 11
6348 7
6349 39
6350 20
6351 2
6352 7
6353 32
6354 20
6355 22
6356 11
6357 28
6358 24
6359 41
6360 14
6361 3
6362 7
6363 6
6364 4
6365 2
6366 14
6367 22
6368 14
6369 29
6370 17
6371 2
6372 40
6373 46
6374 10
6375 31
6376 47
6377 11
6378 35
6379 7
6380 33
6381 20
6382 33
6383 56
6384 7
6385 39
6386 0
6387 47
6388 11
6389 9
6390 17
6391 0
6392 31
6393 7
6394 43
6395 39
6396 20
6397 33
6398 22
6399 32
6400 22
6401 3
6402 17
6403 24
6404 14
6405 4
6406 7
6407 11
6408 20
6409 43
6410 13
6411 20
6412 11
6413 20
6414 20
6415 14
6416 0
6417 7
6418 43
6419 13
6420 0
6421 14
6422 20
6423 59
6424 32
6425 59
6426 22
6427 15
6428 14
6429 7
6430 14
6431 35
6432 1
6433 14
6434 11
6435 11
6436 7
6437 11
6438 7
6439 11
6440 36
6441 42
6442 40
6443 37
6444 15
6445 3
6446 11
6447 59
6448 7
6449 14
6450 28
6451 2
6452 47
6453 55
6454 20
6455 55
6456 14
6457 3
6458 12
6459 1
6460 3
6461 24
6462 28
6463 5
6464 34
6465 45
6466 20
6467 20
6468 33
6469 4
6470 59
6471 14
6472 12
6473 11
6474 16
6475 33
6476 34
6477 1
6478 21
6479 47
6480 20
6481 7
6482 20
6483 20
6484 28
6485 20
6486 36
6487 9
6488 47
6489 14
6490 14
6491 14
6492 20
6493 14
6494 14
6495 24
6496 39
6497 20
6498 14
6499 2
6500 11
6501 1
6502 43
6503 58
6504 56
6505 14
6506 19
6507 18
6508 14
6509 14
6510 0
6511 0
6512 14
6513 31
6514 30
6515 11
6516 26
6517 20
6518 20
6519 32
6520 50
6521 19
6522 44
6523 2
6524 11
6525 0
6526 19
6527 16
6528 14
6529 36
6530 14
6531 14
6532 32
6533 11
6534 1
6535 14
6536 11
6537 14
6538 50
6539 39
6540 20
6541 40
6542 11
6543 11
6544 12
6545 7
6546 2
6547 20
6548 35
6549 23
6550 14
6551 47
6552 7
6553 2
6554 7
6555 14
6556 1
6557 7
6558 7
6559 41
6560 14
6561 14
6562 34
6563 14
6564 3
6565 1
6566 33
6567 29
6568 14
6569 29
6570 11
6571 7
6572 11
6573 3
6574 7
6575 7
6576 32
6577 14
6578 32
6579 7
6580 32
6581 20
6582 20
6583 20
6584 34
6585 1
6586 7
6587 54
6588 36
6589 33
6590 7
6591 32
6592 14
6593 32
6594 47
6595 47
6596 22
6597 8
6598 7
6599 11
6600 3
6601 1
6602 6
6603 14
6604 34
6605 14
6606 39
6607 7
6608 7
6609 45
6610 57
6611 14
6612 34
6613 17
6614 2
6615 20
6616 42
6617 20
6618 10
6619 2
6620 14
6621 57
6622 33
6623 7
6624 32
6625 7
6626 12
6627 32
6628 21
6629 2
6630 42
6631 20
6632 14
6633 42
6634 7
6635 45
6636 7
6637 7
6638 20
6639 7
6640 47
6641 7
6642 7
6643 20
6644 59
6645 41
6646 14
6647 20
6648 12
6649 11
6650 47
6651 43
6652 3
6653 9
6654 14
6655 39
6656 36
6657 1
6658 14
6659 12
6660 7
6661 4
6662 7
6663 20
6664 11
6665 11
6666 39
6667 22
6668 1
6669 14
6670 7
6671 13
6672 21
6673 46
6674 1
6675 39
6676 47
6677 14
6678 59
6679 35
6680 7
6681 10
6682 24
6683 56
6684 41
6685 14
6686 11
6687 2
6688 29
6689 1
6690 14
6691 47
6692 43
6693 11
6694 20
6695 30
6696 2
6697 11
6698 56
6699 53
6700 16
6701 24
6702 14
6703 7
6704 20
6705 20
6706 31
6707 14
6708 22
6709 55
6710 15
6711 20
6712 20
6713 14
6714 17
6715 33
6716 11
6717 2
6718 20
6719 14
6720 14
6721 11
6722 47
6723 56
6724 34
6725 7
6726 32
6727 40
6728 39
6729 23
6730 28
6731 11
6732 3
6733 7
6734 54
6735 0
6736 11
6737 34
6738 11
6739 23
6740 30
6741 1
6742 23
6743 9
6744 11
6745 7
6746 14
6747 22
6748 39
6749 14
6750 7
6751 29
6752 24
6753 46
6754 32
6755 11
6756 14
6757 11
6758 33
6759 14
6760 20
6761 47
6762 7
6763 2
6764 2
6765 20
6766 14
6767 18
6768 0
6769 2
6770 7
6771 7
6772 2
6773 56
6774 20
6775 26
6776 33
6777 23
6778 7
6779 11
6780 14
6781 20
6782 20
6783 7
6784 22
6785 18
6786 7
6787 7
6788 47
6789 7
6790 21
6791 20
6792 15
6793 24
6794 7
6795 14
6796 28
6797 2
6798 32
6799 11
6800 29
6801 20
6802 26
6803 2
6804 7
6805 5
6806 14
6807 11
6808 12
6809 7
6810 23
6811 20
6812 20
6813 7
6814 51
6815 2
6816 14
6817 11
6818 45
6819 45
6820 25
6821 14
6822 14
6823 11
6824 7
6825 40
6826 14
6827 11
6828 14
6829 26
6830 29
6831 20
6832 29
6833 20
6834 14
6835 20
6836 31
6837 7
6838 39
6839 2
6840 20
6841 29
6842 11
6843 14
6844 7
6845 46
6846 7
6847 7
6848 14
6849 7
6850 29
6851 7
6852 14
6853 14
6854 58
6855 11
6856 7
6857 41
6858 14
6859 14
6860 41
6861 2
6862 17
6863 7
6864 39
6865 17
6866 11
6867 20
6868 11
6869 20
6870 14
6871 14
6872 47
6873 14
6874 20
6875 33
6876 23
6877 31
6878 29
6879 2
6880 2
6881 2
6882 7
6883 7
6884 20
6885 7
6886 20
6887 11
6888 20
6889 7
6890 12
6891 4
6892 9
6893 14
6894 11
6895 14
6896 17
6897 7
6898 2
6899 47
6900 12
6901 32
6902 3
6903 33
6904 35
6905 26
6906 20
6907 7
6908 2
6909 2
6910 7
6911 6
6912 11
6913 20
6914 14
6915 47
6916 17
6917 2
6918 11
6919 7
6920 3
6921 7
6922 15
6923 24
6924 14
6925 14
6926 21
6927 22
6928 14
6929 38
6930 20
6931 18
6932 11
6933 7
6934 2
6935 10
6936 14
6937 1
6938 33
6939 11
6940 3
6941 49
6942 11
6943 7
6944 14
6945 14
6946 0
6947 20
6948 11
6949 11
6950 30
6951 14
6952 14
6953 7
6954 2
6955 29
6956 36
6957 14
6958 39
6959 17
6960 30
6961 13
6962 2
6963 11
6964 51
6965 14
6966 11
6967 20
6968 2
6969 18
6970 21
6971 22
6972 7
6973 52
6974 12
6975 14
6976 21
6977 20
6978 7
6979 21
6980 0
6981 7
6982 14
6983 7
6984 11
6985 4
6986 7
6987 29
6988 11
6989 14
6990 14
6991 39
6992 14
6993 33
6994 50
6995 10
6996 11
6997 32
6998 43
6999 14
7000 20
7001 11
7002 7
7003 21
7004 14
7005 14
7006 1
7007 54
7008 12
7009 15
7010 7
7011 7
7012 2
7013 3
7014 26
7015 2
7016 11
7017 43
7018 20
7019 20
7020 7
7021 47
7022 14
7023 7
7024 12
7025 14
7026 32
7027 12
7028 7
7029 7
7030 7
7031 2
7032 20
7033 11
7034 18
7035 24
7036 35
7037 26
7038 20
7039 14
7040 7
7041 14
7042 17
7043 11
7044 29
7045 12
7046 12
7047 43
7048 29
7049 30
7050 7
7051 20
7052 1
7053 56
7054 7
7055 20
7056 39
7057 12
7058 2
7059 7
7060 36
7061 35
7062 11
7063 39
7064 34
7065 14
7066 32
7067 6
7068 38
7069 7
7070 11
7071 14
7072 11
7073 14
7074 14
7075 7
7076 46
7077 39
7078 6
7079 2
7080 21
7081 17
7082 29
7083 20
7084 11
7085 21
7086 20
7087 11
7088 11
7089 1
7090 11
7091 33
7092 7
7093 15
7094 11
7095 2
7096 2
7097 19
7098 17
7099 11
7100 11
7101 7
7102 20
7103 7
7104 37
7105 33
7106 33
7107 20
7108 18
7109 7
7110 2
7111 46
7112 37
7113 21
7114 20
7115 20
7116 37
7117 14
7118 14
7119 7
7120 2
7121 2
7122 34
7123 14
7124 10
7125 26
7126 33
7127 22
7128 11
7129 12
7130 37
7131 14
7132 2
7133 20
7134 14
7135 2
7136 19
7137 21
7138 2
7139 7
7140 1
7141 14
7142 2
7143 41
7144 22
7145 11
7146 7
7147 11
7148 32
7149 45
7150 2
7151 1
7152 53
7153 20
7154 14
7155 14
7156 29
7157 17
7158 23
7159 32
7160 47
7161 7
7162 20
7163 7
7164 5
7165 52
7166 2
7167 2
7168 11
7169 43
7170 13
7171 7
7172 7
7173 22
7174 2
7175 7
7176 20
7177 26
7178 26
7179 11
7180 7
7181 15
7182 4
7183 3
7184 1
7185 19
7186 20
7187 56
7188 32
7189 9
7190 20
7191 2
7192 45
7193 10
7194 2
7195 1
7196 32
7197 11
7198 20
7199 11
7200 9
7201 7
7202 59
7203 45
7204 14
7205 1
7206 7
7207 30
7208 33
7209 51
7210 43
7211 7
7212 49
7213 14
7214 55
7215 52
7216 1
7217 29
7218 4
7219 11
7220 11
7221 24
7222 7
7223 2
7224 43
7225 2
7226 9
7227 33
7228 15
7229 2
7230 20
7231 21
7232 24
7233 34
7234 25
7235 2
7236 14
7237 20
7238 1
7239 23
7240 20
7241 22
7242 7
7243 7
7244 16
7245 14
7246 2
7247 14
7248 21
7249 6
7250 14
7251 29
7252 41
7253 7
7254 7
7255 17
7256 7
7257 11
7258 34
7259 46
7260 40
7261 2
7262 2
7263 26
7264 14
7265 29
7266 14
7267 46
7268 14
7269 32
7270 16
7271 12
7272 11
7273 29
7274 14
7275 11
7276 14
7277 26
7278 3
7279 2
7280 26
7281 7
7282 7
7283 47
7284 11
7285 19
7286 11
7287 7
7288 32
7289 20
7290 39
7291 20
7292 50
7293 14
7294 20
7295 50
7296 21
7297 14
7298 12
7299 12
7300 3
7301 43
7302 17
7303 14
7304 14
7305 26
7306 20
7307 20
7308 39
7309 36
7310 11
7311 33
7312 14
7313 56
7314 11
7315 11
7316 7
7317 17
7318 11
7319 35
7320 11
7321 14
7322 42
7323 7
7324 14
7325 4
7326 2
7327 12
7328 7
7329 15
7330 46
7331 4
7332 2
7333 7
7334 53
7335 11
7336 2
7337 30
7338 11
7339 2
7340 45
7341 14
7342 0
7343 11
7344 14
7345 14
7346 20
7347 32
7348 15
7349 14
7350 7
7351 11
7352 40
7353 14
7354 34
7355 3
7356 4
7357 7
7358 11
7359 42
7360 14
7361 39
7362 14
7363 22
7364 14
7365 17
7366 2
7367 11
7368 7
7369 25
7370 11
7371 24
7372 37
7373 14
7374 46
7375 20
7376 20
7377 4
7378 4
7379 7
7380 1
7381 10
7382 33
7383 11
7384 6
7385 3
7386 2
7387 10
7388 20
7389 36
7390 14
7391 33
7392 17
7393 2
7394 10
7395 11
7396 12
7397 6
7398 11
7399 11
7400 14
7401 33
7402 11
7403 17
7404 11
7405 11
7406 20
7407 14
7408 48
7409 3
7410 46
7411 7
7412 6
7413 43
7414 14
7415 11
7416 20
7417 45
7418 29
7419 38
7420 14
7421 14
7422 11
7423 20
7424 2
7425 11
7426 7
7427 11
7428 14
7429 26
7430 7
7431 44
7432 14
7433 2
7434 20
7435 6
7436 11
7437 24
7438 50
7439 7
7440 39
7441 20
7442 20
7443 1
7444 2
7445 17
7446 7
7447 32
7448 30
7449 20
7450 47
7451 43
7452 20
7453 7
7454 1
7455 20
7456 27
7457 2
7458 2
7459 2
7460 14
7461 11
7462 39
7463 20
7464 52
7465 20
7466 17
7467 43
7468 26
7469 20
7470 7
7471 1
7472 14
7473 56
7474 53
7475 11
7476 39
7477 41
7478 14
7479 2
7480 14
7481 24
7482 11
7483 29
7484 11
7485 14
7486 11
7487 17
7488 11
7489 49
7490 2
7491 11
7492 2
7493 1
7494 11
7495 46
7496 14
7497 32
7498 38
7499 2
7500 1
7501 11
7502 11
7503 33
7504 11
7505 22
7506 3
7507 11
7508 1
7509 16
7510 32
7511 31
7512 49
7513 11
7514 14
7515 28
7516 7
7517 3
7518 0
7519 0
7520 33
7521 7
7522 7
7523 14
7524 42
7525 11
7526 38
7527 14
7528 49
7529 3
7530 24
7531 20
7532 14
7533 38
7534 12
7535 26
7536 20
7537 34
7538 20
7539 1
7540 7
7541 7
7542 37
7543 7
7544 2
7545 12
7546 11
7547 17
7548 20
7549 29
7550 31
7551 2
7552 14
7553 2
7554 11
7555 20
7556 7
7557 14
7558 20
7559 7
7560 7
7561 7
7562 49
7563 32
7564 7
7565 20
7566 13
7567 14
7568 14
7569 37
7570 6
7571 20
7572 7
7573 14
7574 2
7575 15
7576 11
7577 1
7578 45
7579 23
7580 39
7581 32
7582 18
7583 2
7584 2
7585 14
7586 7
7587 20
7588 7
7589 11
7590 14
7591 14
7592 23
7593 7
7594 7
7595 7
7596 22
7597 47
7598 7
7599 33
7600 2
7601 2
7602 14
7603 15
7604 1
7605 2
7606 47
7607 21
7608 12
7609 11
7610 0
7611 20
7612 13
7613 7
7614 17
7615 30
7616 11
7617 17
7618 20
7619 3
7620 2
7621 1
7622 25
7623 11
7624 11
7625 41
7626 2
7627 20
7628 52
7629 12
7630 7
7631 6
7632 14
7633 14
7634 2
7635 14
7636 29
7637 2
7638 43
7639 26
7640 20
7641 29
7642 11
7643 21
7644 43
7645 48
7646 7
7647 2
7648 39
7649 1
7650 32
7651 20
7652 42
7653 42
7654 20
7655 7
7656 20
7657 7
7658 2
7659 14
7660 34
7661 22
7662 14
7663 5
7664 11
7665 21
7666 17
7667 7
7668 11
7669 2
7670 12
7671 2
7672 14
7673 27
7674 5
7675 2
7676 7
7677 14
7678 2
7679 25
7680 21
7681 1
7682 54
7683 34
7684 23
7685 47
7686 5
7687 16
7688 28
7689 11
7690 2
7691 32
7692 14
7693 22
7694 14
7695 14
7696 2
7697 17
7698 2
7699 11
7700 20
7701 14
7702 9
7703 14
7704 21
7705 7
7706 46
7707 40
7708 42
7709 35
7710 11
7711 7
7712 30
7713 20
7714 28
7715 32
7716 43
7717 20
7718 6
7719 7
7720 55
7721 58
7722 47
7723 14
7724 20
7725 36
7726 22
7727 14
7728 7
7729 20
7730 20
7731 14
7732 21
7733 32
7734 43
7735 7
7736 24
7737 37
7738 11
7739 2
7740 14
7741 7
7742 20
7743 36
7744 14
7745 38
7746 7
7747 7
7748 20
7749 5
7750 7
7751 8
7752 2
7753 20
7754 33
7755 14
7756 11
7757 39
7758 10
7759 56
7760 14
7761 46
7762 39
7763 26
7764 2
7765 3
7766 2
7767 36
7768 20
7769 11
7770 7
7771 7
7772 11
7773 39
7774 7
7775 7
7776 3
7777 7
7778 44
7779 11
7780 2
7781 14
7782 2
7783 7
7784 2
7785 23
7786 33
7787 20
7788 26
7789 47
7790 20
7791 11
7792 14
7793 33
7794 1
7795 2
7796 7
7797 24
7798 7
7799 2
7800 1
7801 44
7802 3
7803 7
7804 20
7805 32
7806 7
7807 14
7808 28
7809 20
7810 7
7811 32
7812 34
7813 30
7814 7
7815 14
7816 11
7817 11
7818 7
7819 8
7820 33
7821 4
7822 7
7823 17
7824 2
7825 35
7826 5
7827 1
7828 8
7829 14
7830 15
7831 8
7832 20
7833 20
7834 24
7835 11
7836 22
7837 20
7838 30
7839 3
7840 20
7841 14
7842 20
7843 2
7844 2
7845 2
7846 14
7847 2
7848 33
7849 20
7850 22
7851 1
7852 32
7853 41
7854 11
7855 14
7856 11
7857 41
7858 10
7859 14
7860 20
7861 35
7862 11
7863 29
7864 11
7865 5
7866 7
7867 43
7868 20
7869 49
7870 31
7871 11
7872 12
7873 14
7874 11
7875 20
7876 20
7877 37
7878 7
7879 11
7880 31
7881 14
7882 32
7883 14
7884 7
7885 34
7886 22
7887 20
7888 3
7889 7
7890 26
7891 29
7892 7
7893 13
7894 11
7895 14
7896 36
7897 11
7898 20
7899 17
7900 20
7901 2
7902 33
7903 20
7904 4
7905 42
7906 11
7907 14
7908 1
7909 7
7910 11
7911 45
7912 31
7913 7
7914 14
7915 20
7916 2
7917 14
7918 7
7919 20
7920 7
7921 20
7922 3
7923 32
7924 7
7925 2
7926 2
7927 20
7928 12
7929 32
7930 47
7931 2
7932 7
7933 32
7934 19
7935 11
7936 4
7937 14
7938 20
7939 11
7940 11
7941 26
7942 1
7943 41
7944 14
7945 12
7946 20
7947 20
7948 59
7949 43
7950 2
7951 29
7952 12
7953 1
7954 7
7955 7
7956 11
7957 11
7958 14
7959 7
7960 32
7961 46
7962 7
7963 14
7964 14
7965 11
7966 20
7967 2
7968 9
7969 38
7970 30
7971 33
7972 33
7973 20
7974 2
7975 26
7976 46
7977 7
7978 14
7979 12
7980 30
7981 7
7982 23
7983 14
7984 1
7985 2
7986 4
7987 20
7988 17
7989 24
7990 50
7991 33
7992 20
7993 20
7994 14
7995 16
7996 14
7997 4
7998 39
7999 46
8000 1
8001 33
8002 12
8003 16
8004 41
8005 1
8006 40
8007 1
8008 43
8009 14
8010 2
8011 11
8012 7
8013 14
8014 46
8015 47
8016 14
8017 14
8018 2
8019 11
8020 14
8021 7
8022 57
8023 17
8024 29
8025 29
8026 14
8027 7
8028 35
8029 47
8030 21
8031 7
8032 43
8033 32
8034 11
8035 20
8036 41
8037 39
8038 34
8039 7
8040 14
8041 12
8042 11
8043 20
8044 32
8045 32
8046 2
8047 7
8048 32
8049 7
8050 2
8051 20
8052 1
8053 20
8054 42
8055 7
8056 2
8057 12
8058 29
8059 31
8060 2
8061 2
8062 11
8063 14
8064 26
8065 41
8066 2
8067 11
8068 20
8069 1
8070 26
8071 20
8072 7
8073 42
8074 11
8075 32
8076 20
8077 7
8078 26
8079 20
8080 1
8081 7
8082 11
8083 11
8084 7
8085 43
8086 3
8087 11
8088 1
8089 32
8090 26
8091 39
8092 20
8093 34
8094 11
8095 7
8096 21
8097 12
8098 29
8099 32
8100 20
8101 7
8102 29
8103 34
8104 32
8105 6
8106 11
8107 47
8108 7
8109 9
8110 20
8111 33
8112 3
8113 12
8114 14
8115 14
8116 21
8117 7
8118 46
8119 39
8120 2
8121 14
8122 33
8123 7
8124 7
8125 7
8126 1
8127 20
8128 14
8129 1
8130 45
8131 7
8132 34
8133 7
8134 29
8135 32
8136 7
8137 2
8138 34
8139 33
8140 23
8141 21
8142 36
8143 56
8144 14
8145 14
8146 39
8147 7
8148 14
8149 14
8150 14
8151 43
8152 14
8153 0
8154 20
8155 29
8156 7
8157 11
8158 5
8159 14
8160 7
8161 2
8162 7
8163 7
8164 11
8165 11
8166 31
8167 1
8168 11
8169 12
8170 56
8171 33
8172 2
8173 14
8174 11
8175 13
8176 15
8177 2
8178 0
8179 14
8180 14
8181 17
8182 32
8183 14
8184 7
8185 20
8186 32
8187 11
8188 56
8189 11
8190 14
8191 1
8192 52
8193 14
8194 29
8195 24
8196 15
8197 14
8198 47
8199 11
8200 32
8201 12
8202 7
8203 20
8204 13
8205 42
8206 20
8207 38
8208 2
8209 17
8210 47
8211 46
8212 43
8213 1
8214 34
8215 14
8216 59
8217 7
8218 13
8219 7
8220 4
8221 38
8222 14
8223 20
8224 7
8225 11
8226 20
8227 20
8228 14
8229 46
8230 41
8231 5
8232 26
8233 26
8234 21
8235 37
8236 42
8237 7
8238 20
8239 7
8240 29
8241 1
8242 23
8243 7
8244 13
8245 2
8246 7
8247 29
8248 24
8249 48
8250 24
8251 2
8252 7
8253 11
8254 14
8255 3
8256 11
8257 20
8258 11
8259 50
8260 14
8261 12
8262 33
8263 14
8264 29
8265 1
8266 20
8267 14
8268 14
8269 14
8270 37
8271 41
8272 12
8273 26
8274 3
8275 14
8276 1
8277 14
8278 23
8279 20
8280 2
8281 0
8282 14
8283 33
8284 20
8285 33
8286 26
8287 12
8288 39
8289 14
8290 36
8291 26
8292 41
8293 34
8294 14
8295 14
8296 14
8297 17
8298 7
8299 1
8300 2
8301 52
8302 55
8303 28
8304 29
8305 7
8306 14
8307 6
8308 12
8309 14
8310 11
8311 24
8312 29
8313 45
8314 1
8315 14
8316 12
8317 2
8318 20
8319 24
8320 0
8321 14
8322 5
8323 7
8324 14
8325 1
8326 20
8327 2
8328 41
8329 0
8330 34
8331 26
8332 28
8333 11
8334 0
8335 33
8336 26
8337 20
8338 23
8339 2
8340 47
8341 50
8342 19
8343 29
8344 14
8345 7
8346 28
8347 32
8348 20
8349 31
8350 20
8351 26
8352 45
8353 59
8354 7
8355 55
8356 7
8357 1
8358 11
8359 13
8360 46
8361 0
8362 13
8363 52
8364 11
8365 32
8366 2
8367 23
8368 47
8369 20
8370 14
8371 11
8372 7
8373 14
8374 39
8375 26
8376 1
8377 21
8378 2
8379 21
8380 20
8381 27
8382 2
8383 22
8384 5
8385 6
8386 42
8387 22
8388 1
8389 20
8390 7
8391 7
8392 52
8393 33
8394 6
8395 14
8396 15
8397 11
8398 0
8399 33
8400 11
8401 34
8402 14
8403 20
8404 7
8405 23
8406 7
8407 40
8408 20
8409 25
8410 11
8411 14
8412 8
8413 27
8414 12
8415 32
8416 36
8417 7
8418 49
8419 11
8420 7
8421 21
8422 11
8423 33
8424 20
8425 0
8426 11
8427 41
8428 5
8429 7
8430 6
8431 1
8432 17
8433 41
8434 7
8435 14
8436 3
8437 26
8438 13
8439 14
8440 27
8441 20
8442 20
8443 38
8444 14
8445 14
8446 31
8447 24
8448 4
8449 14
8450 11
8451 7
8452 21
8453 14
8454 39
8455 11
8456 37
8457 7
8458 20
8459 14
8460 22
8461 20
8462 7
8463 0
8464 41
8465 11
8466 34
8467 5
8468 38
8469 14
8470 59
8471 2
8472 7
8473 47
8474 9
8475 7
8476 2
8477 20
8478 17
8479 11
8480 49
8481 7
8482 9
8483 21
8484 46
8485 20
8486 56
8487 14
8488 3
8489 14
8490 20
8491 55
8492 39
8493 56
8494 14
8495 43
8496 47
8497 11
8498 0
8499 14
8500 15
8501 15
8502 14
8503 32
8504 14
8505 32
8506 58
8507 56
8508 20
8509 49
8510 17
8511 26
8512 7
8513 25
8514 2
8515 2
8516 11
8517 41
8518 11
8519 11
8520 2
8521 33
8522 4
8523 14
8524 50
8525 24
8526 33
8527 20
8528 11
8529 7
8530 26
8531 23
8532 1
8533 11
8534 33
8535 7
8536 14
8537 28
8538 50
8539 26
8540 45
8541 42
8542 11
8543 14
8544 7
8545 43
8546 16
8547 14
8548 20
8549 1
8550 7
8551 30
8552 11
8553 20
8554 7
8555 2
8556 15
8557 7
8558 14
8559 47
8560 14
8561 20
8562 14
8563 20
8564 29
8565 7
8566 33
8567 37
8568 7
8569 4
8570 24
8571 32
8572 20
8573 11
8574 33
8575 11
8576 2
8577 7
8578 16
8579 7
8580 11
8581 2
8582 14
8583 29
8584 1
8585 32
8586 7
8587 47
8588 20
8589 46
8590 14
8591 17
8592 29
8593 11
8594 32
8595 32
8596 2
8597 7
8598 14
8599 32
8600 20
8601 46
8602 7
8603 47
8604 14
8605 2
8606 11
8607 11
8608 20
8609 20
8610 32
8611 20
8612 11
8613 11
8614 46
8615 20
8616 32
8617 1
8618 14
8619 47
8620 14
8621 17
8622 7
8623 32
8624 7
8625 7
8626 14
8627 17
8628 16
8629 20
8630 32
8631 11
8632 15
8633 11
8634 7
8635 20
8636 23
8637 0
8638 12
8639 37
8640 11
8641 32
8642 34
8643 26
8644 7
8645 27
8646 32
8647 28
8648 11
8649 42
8650 7
8651 11
8652 7
8653 14
8654 56
8655 11
8656 29
8657 11
8658 1
8659 20
8660 7
8661 47
8662 11
8663 27
8664 7
8665 14
8666 7
8667 3
8668 7
8669 49
8670 14
8671 56
8672 28
8673 29
8674 22
8675 7
8676 39
8677 12
8678 32
8679 32
8680 2
8681 33
8682 20
8683 55
8684 20
8685 7
8686 7
8687 4
8688 29
8689 21
8690 12
8691 14
8692 56
8693 23
8694 6
8695 40
8696 9
8697 32
8698 17
8699 7
8700 7
8701 14
8702 7
8703 12
8704 22
8705 39
8706 2
8707 14
8708 7
8709 20
8710 31
8711 1
8712 17
8713 11
8714 32
8715 12
8716 17
8717 42
8718 14
8719 24
8720 14
8721 20
8722 29
8723 20
8724 2
8725 2
8726 32
8727 25
8728 30
8729 23
8730 15
8731 11
8732 7
8733 11
8734 14
8735 11
8736 38
8737 20
8738 45
8739 21
8740 28
8741 7
8742 23
8743 20
8744 36
8745 3
8746 14
8747 37
8748 11
8749 1
8750 30
8751 32
8752 26
8753 25
8754 2
8755 7
8756 43
8757 42
8758 55
8759 7
8760 55
8761 48
8762 32
8763 59
8764 47
8765 7
8766 29
8767 48
8768 12
8769 16
8770 11
8771 7
8772 11
8773 14
8774 4
8775 11
8776 23
8777 39
8778 37
8779 2
8780 7
8781 31
8782 40
8783 39
8784 26
8785 17
8786 11
8787 11
8788 20
8789 12
8790 36
8791 14
8792 33
8793 7
8794 14
8795 7
8796 20
8797 11
8798 7
8799 51
8800 37
8801 37
8802 1
8803 7
8804 39
8805 33
8806 14
8807 39
8808 33
8809 59
8810 20
8811 11
8812 21
8813 34
8814 33
8815 20
8816 32
8817 6
8818 14
8819 2
8820 1
8821 36
8822 7
8823 4
8824 29
8825 24
8826 37
8827 20
8828 20
8829 2
8830 21
8831 16
8832 11
8833 49
8834 12
8835 20
8836 0
8837 33
8838 14
8839 11
8840 7
8841 14
8842 2
8843 11
8844 7
8845 14
8846 20
8847 47
8848 11
8849 18
8850 30
8851 7
8852 7
8853 20
8854 11
8855 14
8856 54
8857 14
8858 20
8859 20
8860 26
8861 11
8862 14
8863 7
8864 11
8865 7
8866 56
8867 20
8868 56
8869 7
8870 14
8871 7
8872 26
8873 14
8874 47
8875 2
8876 20
8877 11
8878 3
8879 42
8880 14
8881 13
8882 29
8883 2
8884 11
8885 14
8886 7
8887 34
8888 14
8889 7
8890 7
8891 11
8892 1
8893 2
8894 5
8895 7
8896 4
8897 11
8898 17
8899 39
8900 20
8901 32
8902 29
8903 20
8904 20
8905 49
8906 21
8907 11
8908 11
8909 20
8910 24
8911 14
8912 7
8913 19
8914 12
8915 24
8916 14
8917 34
8918 37
8919 19
8920 56
8921 14
8922 32
8923 56
8924 7
8925 14
8926 17
8927 11
8928 20
8929 12
8930 20
8931 20
8932 2
8933 31
8934 7
8935 13
8936 20
8937 1
8938 7
8939 22
8940 7
8941 24
8942 20
8943 9
8944 7
8945 11
8946 7
8947 11
8948 20
8949 36
8950 7
8951 43
8952 11
8953 14
8954 29
8955 40
8956 11
8957 14
8958 14
8959 2
8960 33
8961 7
8962 11
8963 14
8964 2
8965 39
8966 14
8967 7
8968 7
8969 20
8970 14
8971 20
8972 38
8973 14
8974 14
8975 59
8976 14
8977 20
8978 7
8979 20
8980 7
8981 12
8982 24
8983 14
8984 20
8985 14
8986 3
8987 44
8988 14
8989 33
8990 7
8991 7
8992 39
8993 7
8994 11
8995 36
8996 2
8997 20
8998 33
8999 14
9000 14
9001 11
9002 14
9003 47
9004 4
9005 11
9006 42
9007 14
9008 11
9009 29
9010 2
9011 7
9012 32
9013 12
9014 2
9015 39
9016 11
9017 2
9018 2
9019 21
9020 26
9021 32
9022 15
9023 7
9024 11
9025 21
9026 26
9027 2
9028 2
9029 11
9030 7
9031 32
9032 11
9033 3
9034 11
9035 7
9036 12
9037 14
9038 7
9039 1
9040 20
9041 39
9042 11
9043 20
9044 7
9045 14
9046 1
9047 22
9048 14
9049 12
9050 35
9051 7
9052 29
9053 12
9054 54
9055 21
9056 20
9057 2
9058 7
9059 3
9060 28
9061 41
9062 14
9063 21
9064 20
9065 24
9066 20
9067 2
9068 7
9069 7
9070 20
9071 22
9072 7
9073 14
9074 20
9075 20
9076 11
9077 7
9078 2
9079 54
9080 43
9081 7
9082 45
9083 14
9084 11
9085 14
9086 35
9087 39
9088 17
9089 47
9090 7
9091 29
9092 17
9093 1
9094 32
9095 46
9096 49
9097 38
9098 11
9099 0
9100 2
9101 38
9102 11
9103 3
9104 20
9105 20
9106 14
9107 20
9108 0
9109 12
9110 2
9111 13
9112 12
9113 1
9114 19
9115 32
9116 20
9117 11
9118 14
9119 20
9120 29
9121 11
9122 12
9123 7
9124 7
9125 7
9126 20
9127 7
9128 11
9129 7
9130 14
9131 14
9132 14
9133 14
9134 33
9135 45
9136 3
9137 12
9138 20
9139 32
9140 23
9141 2
9142 8
9143 14
9144 7
9145 11
9146 20
9147 20
9148 7
9149 14
9150 25
9151 7
9152 54
9153 14
9154 53
9155 20
9156 7
9157 14
9158 3
9159 32
9160 22
9161 21
9162 38
9163 7
9164 7
9165 11
9166 20
9167 40
9168 2
9169 3
9170 24
9171 7
9172 20
9173 9
9174 20
9175 20
9176 12
9177 12
9178 14
9179 14
9180 7
9181 20
9182 21
9183 7
9184 32
9185 3
9186 27
9187 6
9188 14
9189 14
9190 12
9191 11
9192 11
9193 47
9194 2
9195 34
9196 23
9197 7
9198 25
9199 12
9200 34
9201 0
9202 44
9203 20
9204 39
9205 44
9206 14
9207 7
9208 20
9209 21
9210 11
9211 34
9212 21
9213 2
9214 26
9215 11
9216 11
9217 23
9218 18
9219 31
9220 13
9221 14
9222 14
9223 14
9224 11
9225 1
9226 3
9227 46
9228 0
9229 20
9230 29
9231 7
9232 55
9233 12
9234 14
9235 7
9236 12
9237 21
9238 2
9239 7
9240 17
9241 7
9242 26
9243 35
9244 7
9245 19
9246 26
9247 12
9248 14
9249 7
9250 11
9251 7
9252 37
9253 6
9254 2
9255 32
9256 7
9257 2
9258 3
9259 33
9260 11
9261 7
9262 28
9263 14
9264 0
9265 35
9266 28
9267 7
9268 14
9269 21
9270 7
9271 0
9272 20
9273 32
9274 20
9275 45
9276 2
9277 14
9278 11
9279 7
9280 7
9281 2
9282 7
9283 45
9284 2
9285 33
9286 11
9287 20
9288 47
9289 2
9290 32
9291 14
9292 11
9293 14
9294 20
9295 39
9296 24
9297 14
9298 37
9299 43
9300 37
9301 41
9302 14
9303 41
9304 11
9305 14
9306 14
9307 32
9308 33
9309 11
9310 2
9311 12
9312 14
9313 2
9314 14
9315 40
9316 6
9317 7
9318 12
9319 46
9320 14
9321 47
9322 2
9323 24
9324 14
9325 11
9326 2
9327 14
9328 2
9329 1
9330 24
9331 7
9332 59
9333 20
9334 17
9335 20
9336 20
9337 33
9338 23
9339 12
9340 11
9341 21
9342 14
9343 14
9344 23
9345 12
9346 15
9347 37
9348 20
9349 10
9350 14
9351 41
9352 4
9353 20
9354 7
9355 11
9356 11
9357 11
9358 34
9359 34
9360 14
9361 25
9362 20
9363 5
9364 41
9365 19
9366 11
9367 11
9368 7
9369 18
9370 11
9371 7
9372 32
9373 7
9374 14
9375 2
9376 2
9377 26
9378 14
9379 11
9380 0
9381 0
9382 32
9383 7
9384 39
9385 39
9386 7
9387 39
9388 20
9389 11
9390 14
9391 14
9392 11
9393 11
9394 12
9395 33
9396 11
9397 34
9398 31
9399 14
9400 11
9401 2
9402 11
9403 1
9404 40
9405 7
9406 18
9407 7
9408 11
9409 47
9410 14
9411 15
9412 40
9413 7
9414 4
9415 2
9416 14
9417 3
9418 7
9419 5
9420 20
9421 39
9422 6
9423 7
9424 17
9425 19
9426 14
9427 47
9428 7
9429 22
9430 14
9431 14
9432 7
9433 14
9434 20
9435 41
9436 7
9437 18
9438 32
9439 11
9440 24
9441 14
9442 3
9443 4
9444 20
9445 12
9446 7
9447 2
9448 20
9449 45
9450 35
9451 7
9452 20
9453 37
9454 36
9455 11
9456 43
9457 7
9458 7
9459 2
9460 24
9461 7
9462 0
9463 47
9464 9
9465 51
9466 36
9467 2
9468 7
9469 13
9470 43
9471 20
9472 20
9473 14
9474 47
9475 10
9476 3
9477 2
9478 1
9479 0
9480 11
9481 9
9482 20
9483 20
9484 30
9485 20
9486 7
9487 30
9488 55
9489 11
9490 33
9491 5
9492 34
9493 55
9494 20
9495 7
9496 11
9497 11
9498 11
9499 2
9500 2
9501 41
9502 49
9503 1
9504 38
9505 1
9506 32
9507 34
9508 14
9509 2
9510 2
9511 14
9512 16
9513 7
9514 7
9515 3
9516 20
9517 21
9518 2
9519 47
9520 11
9521 14
9522 20
9523 30
9524 20
9525 20
9526 56
9527 7
9528 7
9529 7
9530 20
9531 14
9532 28
9533 11
9534 7
9535 2
9536 50
9537 14
9538 14
9539 50
9540 7
9541 11
9542 11
9543 3
9544 20
9545 7
9546 1
9547 38
9548 47
9549 55
9550 14
9551 7
9552 14
9553 22
9554 7
9555 11
9556 26
9557 39
9558 7
9559 7
9560 7
9561 11
9562 22
9563 14
9564 18
9565 22
9566 20
9567 3
9568 37
9569 12
9570 7
9571 41
9572 20
9573 12
9574 41
9575 20
9576 33
9577 11
9578 26
9579 22
9580 47
9581 1
9582 2
9583 7
9584 11
9585 29
9586 11
9587 20
9588 14
9589 14
9590 7
9591 20
9592 7
9593 7
9594 17
9595 7
9596 32
9597 20
9598 39
9599 31
9600 1
9601 7
9602 23
9603 20
9604 7
9605 0
9606 8
9607 11
9608 11
9609 2
9610 15
9611 26
9612 4
9613 4
9614 7
9615 0
9616 33
9617 14
9618 38
9619 8
9620 26
9621 14
9622 14
9623 29
9624 4
9625 14
9626 7
9627 14
9628 45
9629 11
9630 47
9631 7
9632 7
9633 29
9634 11
9635 22
9636 7
9637 11
9638 5
9639 14
9640 20
9641 49
9642 13
9643 7
9644 38
9645 11
9646 20
9647 14
9648 11
9649 7
9650 39
9651 7
9652 14
9653 3
9654 14
9655 20
9656 1
9657 7
9658 43
9659 29
9660 20
9661 11
9662 2
9663 7
9664 39
9665 7
9666 33
9667 7
9668 2
9669 32
9670 28
9671 17
9672 14
9673 22
9674 11
9675 39
9676 27
9677 32
9678 47
9679 15
9680 9
9681 7
9682 32
9683 20
9684 54
9685 20
9686 29
9687 16
9688 14
9689 7
9690 12
9691 39
9692 11
9693 14
9694 24
9695 1
9696 1
9697 7
9698 20
9699 12
9700 32
9701 7
9702 22
9703 0
9704 11
9705 7
9706 7
9707 14
9708 7
9709 14
9710 56
9711 34
9712 20
9713 17
9714 20
9715 0
9716 7
9717 14
9718 23
9719 7
9720 12
9721 2
9722 32
9723 11
9724 33
9725 30
9726 2
9727 7
9728 14
9729 17
9730 1
9731 2
9732 11
9733 20
9734 2
9735 14
9736 2
9737 7
9738 7
9739 12
9740 51
9741 20
9742 13
9743 20
9744 7
9745 47
9746 54
9747 46
9748 18
9749 16
9750 14
9751 14
9752 34
9753 29
9754 25
9755 2
9756 12
9757 11
9758 44
9759 30
9760 47
9761 47
9762 10
9763 32
9764 14
9765 25
9766 37
9767 14
9768 14
9769 1
9770 11
9771 7
9772 33
9773 27
9774 14
9775 12
9776 41
9777 3
9778 21
9779 14
9780 48
9781 20
9782 1
9783 56
9784 7
9785 24
9786 17
9787 6
9788 2
9789 39
9790 56
9791 3
9792 2
9793 18
9794 17
9795 17
9796 20
9797 42
9798 12
9799 39
9800 14
9801 56
9802 23
9803 15
9804 39
9805 24
9806 12
9807 39
9808 32
9809 11
9810 18
9811 21
9812 37
9813 7
9814 2
9815 1
9816 13
9817 14
9818 12
9819 20
9820 2
9821 14
9822 7
9823 3
9824 14
9825 2
9826 2
9827 11
9828 20
9829 52
9830 40
9831 31
9832 45
9833 14
9834 1
9835 39
9836 7
9837 20
9838 14
9839 7
9840 11
9841 7
9842 11
9843 11
9844 13
9845 0
9846 40
9847 7
9848 24
9849 20
9850 20
9851 11
9852 11
9853 20
9854 14
9855 11
9856 14
9857 12
9858 51
9859 2
9860 17
9861 11
9862 29
9863 2
9864 29
9865 2
9866 11
9867 25
9868 33
9869 14
9870 32
9871 17
9872 40
9873 31
9874 3
9875 20
9876 13
9877 12
9878 14
9879 7
9880 14
9881 20
9882 41
9883 4
9884 39
9885 15
9886 11
9887 2
9888 11
9889 43
9890 32
9891 34
9892 3
9893 32
9894 56
9895 7
9896 39
9897 30
9898 24
9899 15
9900 11
9901 32
9902 12
9903 39
9904 34
9905 33
9906 14
9907 2
9908 2
9909 20
9910 19
9911 20
9912 52
9913 11
9914 20
9915 7
9916 14
9917 32
9918 2
9919 11
9920 11
9921 11
9922 1
9923 24
9924 32
9925 25
9926 7
9927 11
9928 2
9929 12
9930 7
9931 48
9932 14
9933 20
9934 20
9935 12
9936 14
9937 7
9938 14
9939 14
9940 7
9941 3
9942 32
9943 33
9944 11
9945 7
9946 20
9947 7
9948 7
9949 5
9950 9
9951 1
9952 7
9953 11
9954 14
9955 32
9956 17
9957 14
9958 7
9959 28
9960 11
9961 47
9962 43
9963 20
9964 17
9965 32
9966 44
9967 14
9968 36
9969 28
9970 20
9971 4
9972 20
9973 7
9974 7
9975 7
9976 11
9977 34
9978 7
9979 12
9980 2
9981 14
9982 11
9983 1
9984 47
9985 20
9986 7
9987 11
9988 20
9989 43
9990 7
9991 20
9992 20
9993 29
9994 20
9995 10
9996 11
9997 14
9998 38
9999 47
