1 0
1044 0
1221 1
1657 0
5886 2
5969 3
13206 0
15827 4
17593 0
20293 5
21152 0
31321 6
31808 5
32929 7
32949 0
34398 8
34504 0
2 9
1297 10
1408 9
3624 11
7693 9
9051 12
13050 13
18217 9
21652 14
21875 9
24920 15
27857 16
28499 9
29157 9
33377 0
33626 17
34497 9
3 18
2568 18
3374 19
10754 18
14712 20
15417 21
17441 18
19356 9
19811 22
22746 10
22899 23
26951 18
27957 24
28323 18
28930 18
32230 23
34389 25
4 26
2592 11
8409 27
10268 26
12677 26
14627 28
18956 26
23380 29
28253 6
29923 30
30184 31
30356 26
33745 26
33974 26
34400 26
34529 32
34534 4
5 33
1488 11
2552 33
8056 34
17889 33
18940 10
22280 33
23169 34
26078 35
28795 33
29279 25
29955 33
30623 36
30831 33
33678 37
34071 38
34265 33
6 39
2390 39
10697 40
16500 41
18418 42
18534 39
21759 41
23523 39
23909 43
27401 44
27468 39
27851 45
29649 46
29697 39
29881 39
33267 47
34428 47
7 48
927 48
3193 16
4600 48
5801 48
10529 49
11736 50
14116 51
15360 48
21798 31
22442 52
23640 35
30532 48
30787 53
30914 50
34143 48
34277 48
8 54
13610 54
14449 55
15945 56
16446 57
18432 54
22127 23
23442 54
23904 2
26012 54
29285 54
29673 19
33466 46
34203 54
34385 54
34526 10
34532 58
9 59
559 59
3675 56
3859 59
12698 53
13121 60
15293 59
16759 49
17224 59
17404 8
19226 9
28305 59
28345 28
31659 61
33010 59
33048 59
34541 62
10 22
293 63
11671 22
13394 22
21561 22
21755 64
24146 27
24384 22
28834 22
29627 65
31211 66
31792 67
32652 22
33003 60
33879 68
33897 22
34392 17
11 69
2083 34
6747 33
16551 70
18723 71
18881 69
18964 69
23773 72
28702 69
29096 69
29997 73
31153 59
31280 69
31530 44
33157 69
34116 69
34395 74
12 75
2577 76
7249 28
10703 45
11239 75
12265 77
12712 75
15265 78
15546 75
17226 75
19311 75
20053 36
23930 74
24588 79
33024 75
33890 75
13 18
730 18
2182 18
3155 40
6343 18
8333 80
11145 41
11498 31
17711 18
17854 7
21799 81
23150 70
24611 18
31135 37
31213 29
33646 18
34177 44
14 34
1440 82
4997 34
6853 83
7845 84
8558 34
11548 6
12623 34
17511 76
20626 10
22929 34
23509 34
26405 34
27036 34
29125 85
33238 86
34293 87
15 32
2746 88
3354 32
6158 89
6447 90
11624 91
14174 32
19724 32
23312 23
26733 92
31611 53
31961 22
32913 32
33262 32
34420 32
34521 13
16 45
2082 45
7552 90
8038 19
13894 93
16448 45
19272 22
20917 45
24052 45
25894 45
26957 94
32157 95
33767 96
33770 45
34184 97
34247 73
17 98
2482 35
10306 79
10448 98
12895 98
16045 98
17118 98
19034 99
19079 42
22965 52
25694 89
28674 30
29237 46
31797 98
32506 98
33069 98
33114 100
18 7
1964 80
7347 7
11417 48
16886 26
17301 7
17964 7
19979 101
24375 7
26837 72
27827 7
28060 102
33781 7
33915 7
33955 103
34123 20
34507 16
19 59
4775 59
4787 99
6052 14
6701 59
7375 93
10373 59
11367 59
12659 104
14142 99
15745 105
18798 59
21352 59
25336 38
27572 59
31357 62
32783 44
20 106
2705 29
4921 106
5879 107
10191 106
16177 45
17473 30
19407 106
24212 23
24636 17
27802 15
30145 106
30951 106
33338 106
34310 30
34536 106
34544 108
21 109
470 13
1798 83
2566 110
10727 111
12074 109
15602 109
18133 109
19386 109
20058 112
26198 34
26601 113
28193 109
28544 109
29769 8
29814 109
34496 104
22 114
1383 114
5951 34
7578 114
8067 93
8806 114
16397 113
16447 114
25351 27
29884 114
30489 114
32681 114
32931 68
33026 115
33270 97
34129 106
34262 21
23 1
2076 1
3694 7
15179 116
17568 110
22042 1
22419 1
22923 117
23374 1
23575 56
24092 73
25857 1
27218 118
27427 78
29423 1
31548 109
34483 1
24 119
1511 20
1626 108
2952 119
5305 90
10439 120
13998 119
18816 119
26299 119
26466 119
27469 17
28553 119
31466 80
31798 71
31908 106
33556 119
25 121
555 73
574 36
3541 40
6972 121
7387 121
7909 121
10399 113
16679 121
17970 121
23866 121
26656 121
27310 122
32407 52
32463 54
32606 112
34379 87
26 23
5100 23
7488 7
10253 123
10736 65
12070 46
12654 23
16449 24
18832 124
21159 23
21528 101
23979 23
28456 23
29725 46
33073 23
33895 23
27 94
3892 94
6321 94
6495 37
7649 34
11269 59
13065 94
15612 94
16964 125
19474 94
20919 126
24750 94
27488 37
29007 64
32706 100
33949 104
34528 94
28 75
4566 75
5075 75
11994 25
12082 86
16183 127
16847 128
17147 75
17803 37
19336 105
19992 37
25220 75
27044 36
28196 75
33682 75
34353 75
29 100
835 124
2153 100
4038 100
4174 10
13258 56
14140 129
21607 100
22689 100
24414 42
25786 100
29191 93
31944 13
33113 100
33362 46
33527 100
33905 119
30 106
13421 15
13567 63
15637 113
19654 51
20178 49
20266 81
21226 106
22242 106
30896 127
32263 106
32632 31
33792 106
33854 106
33964 106
34073 130
34352 106
31 60
4995 87
6864 4
7484 60
18578 60
20320 60
20769 60
22874 98
23183 60
25148 12
27428 32
28091 44
28327 60
30777 97
33495 60
33843 86
34166 130
32 99
1921 119
6751 131
7133 14
10721 98
14360 99
17860 37
21656 99
23945 99
28506 43
28586 99
29570 99
29613 19
29672 99
32090 66
34349 99
33 132
12403 132
15467 133
22158 134
27200 73
29169 12
29902 132
30879 132
31378 109
32178 132
32456 41
32458 45
33234 132
33601 18
34327 132
34516 132
34 5
8593 5
13115 5
13140 13
16938 25
21051 132
21944 53
22490 5
23701 5
25614 71
25975 76
26408 5
27114 7
27835 5
32690 52
33645 5
34176 90
35 135
6710 25
12338 135
15620 135
17563 1
22927 91
24713 56
31755 59
31790 135
32236 135
32454 135
34254 135
34347 43
34479 135
34522 105
36 70
1006 70
1318 27
14171 70
16562 84
17769 70
18107 70
22322 70
25474 2
25609 123
27190 79
28807 4
32042 136
33212 39
34148 110
34367 70
34502 70
37 127
576 137
16782 83
19209 127
21230 127
22407 83
22877 66
23244 127
24959 26
27391 127
28382 127
29397 127
30395 31
30553 61
31375 127
32102 69
33848 115
38 33
10650 33
11392 33
13441 89
14811 33
17914 33
19539 130
19934 61
25175 33
28683 33
28929 113
29104 66
32259 33
32679 67
34370 63
34460 59
34539 138
39 13
366 13
3716 13
10640 64
11980 13
17661 15
18055 13
19404 75
20249 84
23852 134
29736 13
32130 13
34063 1
34323 12
34546 2
40 139
63 29
7956 139
13086 139
14215 93
14661 139
15109 102
15947 128
22384 139
22675 61
23704 139
27050 65
27459 136
27713 56
29834 42
34525 140
34530 139
41 44
4979 58
10853 44
13927 65
17139 44
17894 44
18404 116
20410 93
20593 28
20896 128
24846 114
30234 18
30832 44
31374 44
33336 44
33598 44
34037 7
42 96
421 26
2298 4
4677 96
6566 96
6567 64
10693 96
13242 102
15261 11
26052 141
26770 96
30042 22
33656 96
34162 96
34419 119
43 17
123 17
1609 52
4404 17
4843 97
11208 9
13007 44
17402 17
20561 26
24523 82
26762 17
29621 17
30684 17
31725 142
34056 143
34329 17
34332 81
44 3
2484 3
7028 27
7103 98
11028 44
16581 86
16841 3
17369 3
17795 3
18204 3
23487 5
26165 43
27038 3
29809 3
29845 117
33928 81
45 10
1251 38
1304 60
1521 20
9766 10
13205 10
17020 18
22575 84
24841 29
24949 110
25530 144
30933 28
31030 10
31043 10
31666 10
32837 10
46 30
708 10
3426 30
3757 113
9324 86
10491 100
18292 0
21962 55
24675 30
25410 30
27799 30
28573 30
31863 24
31914 119
32404 75
34246 30
34282 30
47 108
590 108
9552 145
12020 108
13102 35
18023 111
19463 13
21982 15
23423 68
24649 108
29869 53
32250 108
33334 108
33604 108
34250 65
48 146
4058 139
4576 146
10244 146
16812 146
19468 146
20159 137
20975 146
23726 146
26321 123
26403 24
26446 146
27634 52
27683 11
28191 137
32537 144
49 6
683 90
2148 124
3587 32
3709 3
10881 116
15059 6
15388 46
18405 6
26343 6
28560 6
30093 6
30915 26
31777 6
32443 47
34015 6
50 55
3006 55
4676 122
6253 55
9043 94
14778 51
14890 30
15786 132
17870 138
20619 55
21104 105
21328 55
21350 83
27993 55
29512 55
30227 55
31700 47
51 130
758 79
2297 97
2410 130
2637 17
14959 21
20239 76
24227 66
24252 105
27265 130
27629 122
29023 130
30123 130
32176 130
33235 130
33808 92
33832 130
52 34
1754 129
5194 68
12555 68
14848 34
15415 34
17961 76
19173 34
24063 34
25258 54
26920 34
28648 34
31766 80
32125 34
34269 29
34452 37
53 41
11476 141
14509 137
14652 93
17236 41
17426 17
20353 2
22281 41
23043 41
24958 41
27196 43
27898 96
29548 41
30521 41
32493 117
33380 50
33898 72
54 139
1776 139
7628 34
8875 24
11030 147
13254 143
20401 139
24921 139
24945 121
26114 28
27211 87
28246 139
32940 139
33563 61
34226 106
34486 139
55 4
1358 53
9568 59
9737 4
16149 4
19239 46
24374 133
24503 4
24617 81
26839 4
29640 94
31093 126
32255 4
33316 30
34513 4
34523 52
56 139
496 34
3942 148
8166 139
12645 122
12998 139
15180 139
18813 104
18859 64
24150 139
24239 41
28953 88
32287 139
33060 139
34468 42
57 149
1302 17
6227 24
9168 149
10273 105
14939 149
15426 149
17582 100
22331 122
23472 15
25898 89
26685 149
29082 149
31791 38
32085 149
32129 149
34112 130
58 68
1694 68
1725 125
2862 82
4801 150
8992 23
17025 51
17819 48
19615 129
20031 102
21810 68
22564 76
25461 68
26705 91
31874 68
33797 68
34273 68
59 96
2888 96
8352 67
11652 3
15898 72
16091 79
19227 20
19601 94
19730 96
20392 96
21000 96
26716 65
29098 96
29475 137
32558 96
33918 148
34465 96
60 124
3966 124
5026 79
8891 124
11375 48
16647 147
18532 42
19088 22
23806 124
25478 124
25479 124
29710 84
30369 126
31352 99
33734 111
34225 124
34387 124
61 84
3266 42
8375 17
15647 82
20261 84
21747 59
22772 92
22806 84
23913 84
24854 59
25159 84
26651 40
27936 56
30658 84
32394 102
33925 84
34002 79
62 124
6536 124
13036 124
17291 10
18252 77
24836 124
25172 24
25967 124
29220 87
29318 95
30646 124
31629 124
33722 51
33754 73
34227 24
11202 29
11815 122
18062 104
20137 103
21949 29
22374 29
24404 137
24562 76
30516 29
32344 29
32448 29
33635 58
34026 150
34462 20
34510 29
64 40
3538 40
10345 123
13376 131
14370 40
15375 27
18480 7
19731 46
21995 40
22084 130
26493 40
27720 40
29066 31
29695 117
30311 145
31651 40
34467 40
65 32
5553 32
8133 32
11801 121
16478 99
21190 32
21882 7
22231 21
23742 87
28150 32
31110 32
31940 15
33061 1
33216 32
33248 99
34545 2
66 52
465 23
2138 52
5408 142
6213 138
7676 118
7970 52
9216 107
12273 59
14393 144
20255 52
27883 52
29960 132
31373 52
33317 111
33788 52
33914 52
67 115
2011 142
4777 115
6072 88
7466 1
8181 115
10930 85
12501 115
13181 115
19493 29
26375 107
27397 16
27788 98
30591 115
32840 115
34065 18
34407 115
68 143
2005 40
6571 143
8613 10
14622 38
14870 143
15075 143
16947 68
23428 143
23862 135
24137 143
26437 143
30650 95
31936 30
32908 143
69 12
212 12
5495 24
7544 3
7680 12
8228 143
9648 12
12591 127
13111 29
16236 81
16289 142
21126 12
24755 12
26334 12
27499 37
34334 12
70 129
522 129
867 149
1142 125
2973 14
10776 129
18575 129
19043 129
20029 70
22370 129
23498 129
25826 99
26006 130
28893 144
30892 49
31119 137
34450 129
71 47
3274 15
6395 47
7030 47
10934 99
14055 47
15960 87
16013 54
18608 128
23627 47
26089 7
26796 32
27121 23
28921 47
32762 24
33132 47
72 69
3109 69
11969 62
15830 69
20007 110
20229 16
23375 71
25729 69
26136 69
27633 69
29158 124
29389 133
30352 69
32023 87
33115 137
33828 69
73 150
552 150
6699 150
7289 43
7862 48
8386 150
10674 34
17181 150
20433 79
21662 50
24735 150
24807 6
29232 55
31661 150
32985 150
33632 23
34295 54
74 18
4847 78
7777 13
14274 18
21248 128
23251 107
25655 89
26877 149
27455 142
28575 18
29856 68
30134 18
32587 51
32793 18
33560 18
33655 18
34138 18
75 111
11199 111
12131 95
13647 29
16783 111
16988 57
18235 27
19985 111
20954 111
21065 111
23305 138
27693 144
29012 86
30306 111
30537 83
32075 111
32282 149
76 77
6576 77
9224 63
10578 77
13241 77
15107 101
16684 94
21414 55
22678 77
22729 9
24516 77
26133 119
27601 112
33135 77
34307 74
34491 77
77 147
13506 148
15376 147
15809 147
17437 40
19140 147
22269 65
22851 131
23009 108
25129 147
25360 147
26091 24
26888 142
27475 82
29952 38
32205 147
34509 147
78 131
950 71
3243 131
4292 58
5818 131
14016 131
17508 72
19577 146
24179 78
24585 19
27745 131
30669 131
31355 71
32566 131
34372 131
34481 104
79 24
3561 24
6772 24
18625 47
21278 57
22936 68
22966 9
23037 70
26129 58
27820 101
28035 24
29385 24
29779 24
32372 24
33366 24
33512 124
33738 21
80 136
5174 136
6153 136
13770 4
17919 75
18312 10
24459 136
25620 136
26416 136
29474 134
30430 64
30621 87
33507 111
33924 78
34029 136
34253 82
81 44
3946 44
7775 44
8458 77
14211 132
15730 64
21208 44
22107 44
24284 79
24992 29
25969 64
29225 105
30779 10
32503 68
33700 44
34196 44
34433 126
82 86
2475 111
4246 104
5144 86
7827 75
10128 120
11091 86
15731 2
19337 86
24536 7
27976 86
32598 96
32875 86
33398 86
34006 91
34152 49
34423 86
83 79
3056 76
5083 109
5292 79
11571 79
12324 79
13084 11
13299 147
16503 79
17380 79
18257 79
22052 142
23420 79
24980 38
26442 115
84 84
1198 141
8300 19
9475 84
16389 74
17186 84
22594 84
23500 80
24552 84
24888 84
26300 1
26965 84
27354 151
27793 84
31046 10
32203 62
33261 149
85 133
1265 133
3604 128
4488 120
20569 133
21071 52
21168 133
25147 119
25846 38
26218 44
31338 23
32803 133
32933 133
33088 133
33515 133
33529 53
86 15
6997 120
7491 15
10173 29
10611 15
16041 70
18442 94
19609 15
20446 121
20474 31
20573 15
24548 10
24563 61
28254 15
31097 15
33052 15
87 136
549 136
1052 109
2620 99
3647 10
5139 136
5899 126
6254 136
8012 86
12559 136
15515 136
15755 123
22530 102
25746 136
30960 136
34016 131
34448 62
88 34
1467 34
3547 49
10489 34
14438 14
16646 133
22501 14
22639 144
26541 59
28532 34
30585 127
30753 34
30977 28
32739 108
33258 34
33689 103
89 108
1672 66
2346 110
3077 137
7539 108
8463 110
9763 108
15494 33
19288 108
22744 76
24453 108
24487 123
26998 150
29431 81
33272 108
34415 108
90 89
1843 89
10628 132
11084 105
12804 58
15636 106
19533 89
19763 145
20642 9
20829 89
22265 44
22424 8
27143 89
29696 89
31775 89
32994 81
33983 20
91 137
921 112
2473 72
6797 137
7797 104
16321 137
18738 137
19175 111
23385 137
25719 137
28261 87
28400 106
31333 137
32616 0
32767 23
34245 137
92 67
6036 92
7438 67
11232 99
15324 88
17384 138
17898 114
22605 67
23156 40
28048 67
30109 51
30994 67
31972 87
32122 67
32139 134
33093 67
34469 67
93 58
2696 87
3535 118
4746 42
5074 92
7081 38
18259 50
19507 135
23733 58
24690 58
24976 0
27332 7
29828 58
32078 58
33419 58
94 138
3514 92
3779 43
5232 70
7637 138
10363 138
11329 138
12067 138
12622 52
12733 93
13106 148
26929 138
29965 27
31087 138
32579 148
33378 138
95 31
1566 143
3951 95
5051 114
8733 31
18554 31
19587 31
19842 1
21970 73
24681 128
25844 150
27877 31
32733 31
32917 134
32993 31
33059 92
34531 31
96 43
8261 139
13542 43
14338 43
16855 43
18476 1
19861 22
21400 115
25359 17
25521 43
26562 43
26669 76
27167 95
27612 43
30333 43
31504 126
33175 76
97 129
2180 55
6274 129
11163 136
16352 129
21314 129
21590 31
21694 11
22465 129
23082 129
25646 129
26396 60
27319 40
28928 23
29505 129
30150 137
34362 82
98 20
948 4
1591 64
5257 20
9235 126
12232 91
17536 20
18220 136
24121 20
24207 20
24815 120
24907 35
28335 124
30563 20
31112 52
31615 133
99 50
311 135
2642 50
3967 117
5670 141
9132 44
11532 50
12871 136
16535 50
18789 128
20306 134
25084 50
28933 75
29131 50
31189 50
32948 55
33169 50
100 57
1607 67
7735 57
9326 57
9943 57
20155 2
25973 151
26128 57
28877 57
30782 73
32474 71
33122 129
33506 37
33793 51
34435 57
34506 57
101 69
2458 144
3606 101
16191 69
16494 123
18008 69
21675 149
23492 111
26244 52
28235 68
30923 63
31234 69
31281 103
31449 69
32554 69
102 68
848 145
1169 111
2120 146
8188 73
8330 68
9819 130
10319 84
18146 68
19228 68
19912 68
20059 68
20848 112
21405 68
25339 52
28143 68
34101 84
103 46
600 46
2305 36
2315 63
4104 45
9868 46
13302 46
15043 46
20492 97
21389 51
25464 106
30054 143
32047 123
32757 63
33953 46
34540 46
104 67
3641 9
7645 118
9134 121
15019 67
17653 20
18606 67
23469 67
26079 121
29443 8
30049 67
30316 129
32841 93
33325 141
34023 67
34299 67
105 103
4183 27
6018 65
6662 2
9075 103
12485 134
12796 105
19108 103
23489 103
25353 121
25419 95
28264 103
28875 103
31431 72
31877 103
32408 103
34388 102
106 141
2274 141
4161 91
14578 141
17613 141
18026 141
21206 142
21567 141
29254 7
29306 141
29331 53
30135 29
31699 11
33293 141
33680 104
33844 31
34336 103
107 12
4886 12
5283 109
5431 90
7165 12
12122 12
20636 37
20935 27
25443 12
27257 82
29690 135
30747 12
31106 98
32232 122
32549 12
32572 15
108 14
1728 67
3229 110
4357 112
4645 32
6259 14
12012 14
15276 25
16976 14
17247 14
21087 71
22120 40
27916 130
28217 14
29515 14
34110 14
34533 79
109 39
369 39
5829 5
10926 137
11729 52
13527 39
19199 117
23141 76
23286 39
27607 60
27732 58
27925 51
28117 39
29892 113
30549 43
33977 39
110 71
633 65
6842 43
10917 71
11152 26
16686 71
24835 64
24847 71
25704 8
26384 71
27550 91
32759 71
32981 71
33944 134
34267 146
34278 49
111 79
6712 79
8934 79
11201 79
13686 112
15839 133
16347 79
17939 149
20868 29
21622 79
24851 36
26775 79
27474 3
29449 66
33728 65
112 139
2606 139
7353 90
11874 74
12543 29
12966 139
16297 139
23878 50
31460 46
32799 124
33032 139
34061 139
34402 122
34456 84
113 120
2249 63
5683 120
6605 120
16945 107
20762 120
21600 120
22824 35
23158 105
25117 120
29181 120
29409 84
30599 24
33623 120
114 24
4282 24
16585 24
18673 100
18929 24
19377 24
20871 56
21553 83
24051 24
26039 17
26400 91
29290 78
32429 24
32763 32
33943 95
115 52
2287 121
11197 52
12721 3
13596 107
18889 15
23592 133
28860 52
30051 52
30672 36
30694 52
31998 50
32098 78
33227 52
33946 133
116 40
5410 40
8005 39
9033 40
9755 40
11737 18
11997 55
17381 63
17471 40
25545 40
25689 40
26856 121
28420 100
28491 30
30761 72
34024 53
34345 40
117 114
6748 114
7494 2
9024 114
10078 75
21348 140
21695 114
23033 56
24972 123
26187 114
26525 2
29564 12
30194 73
30319 114
30633 43
33574 114
34134 114
118 123
7425 59
11505 95
16843 19
22078 123
25334 76
26544 123
26835 95
27430 123
30106 0
31622 123
31817 1
32207 123
32388 123
119 99
2937 85
5498 99
6113 15
11071 99
17149 99
17195 120
23419 141
25730 48
26422 8
27437 99
29122 94
29282 49
33207 99
33801 99
120 77
4141 77
9384 35
10416 94
15465 77
15743 30
20363 151
21443 77
25553 89
26730 77
27661 77
30406 96
32726 106
34255 0
121 6
7316 84
8269 6
13155 19
14095 94
15749 19
17554 10
17890 121
23802 6
25606 6
28355 6
31888 35
33429 6
33993 15
122 56
281 56
782 56
3902 43
4142 56
10378 82
18351 151
20349 80
22537 56
26304 131
27054 115
29594 56
31693 56
33080 23
34354 56
34537 1
2465 17
5424 17
8543 133
13710 125
21660 130
24368 116
25436 73
25776 17
28463 147
32138 17
32479 17
33821 93
34401 17
34515 63
124 82
4846 82
10540 90
10678 105
12198 82
13613 82
13742 102
15241 82
21163 59
21790 111
22368 82
25154 107
28273 82
31578 77
31607 82
34055 17
125 94
283 118
6951 141
11247 84
12789 99
15456 37
16033 94
17450 94
19645 2
21953 94
24499 94
25114 94
28218 61
31101 94
34455 94
126 1
6137 1
6478 143
9004 107
9148 135
16831 1
21440 1
23462 1
24186 17
25460 1
28379 14
29728 112
30830 1
33237 1
34308 20
34505 133
127 138
4875 117
8970 36
13232 138
13725 48
14879 5
18652 138
20655 140
21777 81
22025 138
24853 138
26574 52
26894 138
33103 88
34178 138
34338 136
128 58
1969 38
2215 96
10437 97
11829 126
14383 58
14936 64
16265 58
16534 58
20469 58
24721 103
24952 123
25881 58
31577 58
31938 27
33919 107
129 27
2066 27
4965 151
5952 147
6872 27
13717 16
19849 85
20732 27
20858 48
21241 27
22956 27
25050 1
25647 71
27493 27
31054 148
34155 85
34229 27
130 88
1514 88
2684 88
4681 88
4822 57
10487 88
15813 106
16481 1
16756 57
18626 88
23142 102
24486 88
26673 17
29311 68
29534 54
30121 88
31278 38
131 14
5773 14
7865 122
8340 14
12715 14
16115 22
19626 125
20838 14
26503 146
26801 117
30103 75
30131 14
32108 46
32410 14
34368 14
132 139
139 151
952 95
6778 139
11339 59
14310 64
16567 139
20976 112
22311 128
28530 139
29684 19
32801 139
32959 143
33343 29
133 60
2754 60
7499 130
10401 92
13731 139
16453 10
21889 60
23271 60
23497 60
25820 60
29435 60
31401 15
32486 80
33208 82
34454 60
134 11
4363 11
4455 11
9154 12
13808 113
19482 11
23846 11
24234 61
31199 74
31756 19
31979 11
32366 11
33424 112
33587 11
34244 59
34475 112
135 26
2570 26
5035 26
10501 109
11518 90
12997 130
16420 29
19361 26
20847 26
21891 26
22917 37
23798 26
26884 128
28665 85
33524 111
34030 26
136 72
2149 72
2408 74
14617 36
14916 72
19965 93
20268 28
20789 72
20929 72
26552 125
26748 51
27646 101
31209 72
31927 148
33058 72
137 76
2924 76
9880 76
10368 98
10595 76
10626 42
12111 19
18840 132
19556 52
23644 76
24644 128
27128 141
28493 76
31051 39
31605 76
33388 41
138 27
639 27
3065 27
8714 108
11941 10
12386 85
12848 28
19447 81
20476 59
20828 141
23859 27
25240 27
25716 27
29235 27
30882 5
33939 52
34303 27
741 139
2732 151
9140 101
9529 151
9688 82
14842 138
18587 151
19494 141
23981 151
24110 151
26772 42
27810 151
29747 151
32360 61
34311 85
140 121
2157 121
7964 121
8749 43
8923 130
10910 121
16924 115
20442 42
23199 121
27134 121
31473 103
31912 71
32165 121
33005 121
33489 130
141 86
1505 86
1789 94
3004 147
5218 86
7730 86
13924 102
15819 58
18751 86
25821 40
26768 42
29355 75
30918 86
32006 86
32453 146
33203 86
142 151
2331 151
7419 151
12281 108
12636 151
17504 53
20214 151
22439 1
25666 50
25914 92
25954 151
28548 51
30324 92
31968 151
32024 151
32043 133
33110 114
143 101
3197 72
13410 101
14312 44
17969 84
19665 26
21893 101
22011 108
25090 123
28415 68
31588 101
31879 83
32052 101
32470 69
33001 101
34451 101
144 65
1816 38
8117 139
12552 65
14031 65
15650 65
15871 65
23088 130
25343 49
28190 65
30959 122
31813 108
33705 116
34411 65
145 79
4596 62
5435 79
8064 83
9458 79
12237 79
20835 79
24012 75
24409 79
26268 117
29916 79
32744 93
33607 130
34052 29
34406 79
34459 30
146 81
3398 26
7090 81
9965 101
11701 141
12334 139
22809 81
24220 81
26521 57
29069 93
29588 125
31962 81
32709 150
33711 81
147 8
196 1
2777 81
6187 8
7148 114
11628 56
12224 58
12307 8
17948 8
25598 8
28141 111
29819 8
31196 146
31579 8
33554 8
34359 4
148 40
2734 40
3044 4
8094 40
8471 104
10829 41
13799 113
14303 40
20610 89
25632 40
25827 40
26561 122
30931 121
32335 19
33585 40
33911 132
149 149
3919 149
12230 75
19401 49
22725 149
23632 119
24666 149
24720 146
26385 149
27962 106
30067 73
30283 149
30603 105
32015 128
34188 149
150 58
1865 60
7470 104
8145 107
11080 113
13128 69
13748 138
16032 39
21125 58
23422 21
26151 58
27314 16
29172 58
33674 58
34313 58
151 2
2611 140
11934 2
13042 75
22202 115
23775 2
24176 2
25441 110
25900 92
29982 2
31345 28
32675 129
33423 30
33779 2
152 122
734 103
2336 118
10683 14
13073 5
16393 122
17206 133
19060 122
20101 71
22023 122
23173 122
25015 147
25812 122
26880 122
29417 49
153 36
676 36
4392 36
4933 40
6170 138
8802 36
11137 50
13603 8
19480 101
23848 48
25141 36
25490 36
33152 26
33503 36
34394 36
154 14
10383 14
10765 116
11507 97
15560 32
16497 14
19236 148
20771 14
23471 87
26229 14
31111 14
31928 60
33464 14
33780 122
34527 8
155 81
3434 74
3751 81
11718 81
14145 33
21981 81
26625 102
26660 81
28566 123
29400 81
31210 126
32273 38
32677 12
34291 113
34501 81
156 141
4400 141
6537 39
6572 34
6870 141
9341 141
10248 139
15392 139
15737 141
15768 135
21935 48
25326 141
25383 76
32143 46
34285 141
34348 141
157 17
3360 130
4606 17
5656 73
6326 106
8349 17
9393 86
12458 17
19443 19
25651 121
25834 51
27072 19
28761 31
29623 17
30202 17
34263 17
34414 17
158 122
210 142
3206 120
5823 122
6530 100
9858 122
11073 73
14129 137
20221 122
21369 122
23372 122
24373 122
25430 129
27327 123
159 83
399 83
1716 83
8605 7
10584 83
13780 95
14112 83
17579 109
18429 83
19923 83
26923 83
27210 58
28083 27
32101 63
34004 4
160 110
172 110
627 110
2941 101
5444 17
7078 76
13285 150
15044 61
15794 110
16660 77
17198 66
20224 110
21175 110
24876 110
28316 31
29553 110
161 81
515 20
2034 93
5910 20
10429 81
13365 81
16537 15
18101 81
18216 81
20494 126
28214 0
30180 81
30673 21
34109 69
34171 81
34464 81
162 42
3359 42
9741 42
13495 96
14307 3
15314 1
16108 42
18994 42
19134 42
24475 32
28180 47
28913 60
29756 28
31443 42
33740 138
34287 42
163 77
1015 106
4671 77
5944 108
11312 60
14674 77
15651 77
19051 62
23580 77
28978 77
30065 134
32346 77
32910 45
33186 84
34478 126
164 65
410 65
3192 124
6310 115
9545 65
14897 135
18225 65
21518 29
22050 110
26425 65
29340 112
31322 142
32624 137
165 84
8271 84
11186 26
18368 84
19030 84
20637 10
22359 33
22540 125
24482 75
25223 71
25511 84
30289 120
30355 49
30974 32
32645 84
34361 84
166 56
526 18
14919 56
24267 56
26575 59
29297 65
30978 56
31459 56
32257 96
32667 56
33747 56
167 107
1172 40
2192 88
12472 107
12475 134
13149 8
14459 24
14568 107
18276 107
20048 107
25556 16
27389 107
28394 107
29618 123
29668 70
33514 82
34038 107
168 22
3465 77
4019 22
4288 138
7695 22
11422 22
15935 54
23803 67
24426 103
25885 121
29654 22
32416 28
32495 24
32699 2
33570 82
33935 22
34384 22
169 66
1717 112
5044 17
16957 74
20970 66
21825 66
24623 66
24640 63
28062 100
30680 66
31083 108
31583 66
33410 59
34027 2
34409 66
170 6
445 6
8185 6
13215 40
15469 6
18395 6
23148 48
25911 75
25928 6
28157 6
31065 103
32089 127
32567 150
33142 136
171 29
2211 54
2443 6
5221 141
7105 94
9835 92
12246 29
13038 29
24198 149
26110 73
29987 138
32494 28
32816 29
3970 110
4163 110
6064 17
7702 81
10170 64
10226 47
11230 22
14188 110
15342 98
15908 129
18376 110
18390 110
26280 61
32523 147
33795 64
173 6
3711 89
5176 6
6583 7
16319 135
17183 6
20156 40
25525 151
27325 134
31441 114
33392 6
34248 6
174 1
502 141
1073 1
1200 1
5006 26
10107 1
19809 103
19858 69
23513 19
26712 124
27461 106
28227 1
33372 124
33640 101
33902 1
175 13
5937 13
10297 54
10312 100
12043 13
12949 13
15585 127
17494 11
17908 13
20486 125
22390 20
22717 13
26657 32
30651 91
31423 13
32251 13
176 17
2949 17
9230 17
10767 41
15685 47
16688 107
18919 17
19712 91
24648 13
28114 14
31432 17
32401 48
33785 17
34290 17
34543 70
177 84
6724 84
7207 110
12080 135
16774 74
16786 84
16836 84
20295 84
22340 84
23457 98
26921 136
27382 89
29329 123
32378 130
32734 84
33954 84
178 132
5334 58
11094 129
16184 89
19555 71
21053 132
22582 54
26255 36
29032 132
29577 139
29872 59
32600 132
32866 132
34092 19
34251 132
34257 132
34436 132
179 17
5464 17
9781 17
11083 38
12443 17
12937 66
13388 74
14409 17
15160 45
15295 57
27768 33
28427 17
29906 142
30315 20
31544 17
33658 6
180 17
5680 17
14755 13
15003 17
17946 106
24089 122
24579 17
25811 129
26790 23
27800 2
29658 121
30186 2
30282 17
33077 7
181 9
1496 9
13220 9
20945 9
23447 133
24610 105
26850 98
27137 94
30307 9
30819 148
31228 110
32126 127
33433 9
33439 9
34233 9
182 131
826 131
2870 131
3486 68
14552 131
14567 27
18037 60
19808 103
21233 123
23202 21
23407 64
24872 131
25480 131
26275 124
30198 131
33702 131
183 6
4450 6
6156 110
18629 10
22790 63
23703 6
24417 21
25045 79
26459 98
29754 6
33215 6
33218 102
33827 58
34429 6
184 77
984 77
4259 67
4277 84
8046 127
10892 77
11992 77
16914 112
29628 63
30094 23
30957 77
30976 151
31566 77
32221 77
185 81
2058 91
2585 81
5080 147
5430 13
8500 81
12418 151
12467 14
16515 81
31283 145
32749 81
34193 16
34339 81
34377 131
34445 81
186 97
11099 97
12129 50
13044 106
16253 19
19071 97
19269 34
26925 64
27520 97
28467 97
29376 118
30415 97
32368 117
33455 97
187 36
3993 77
7937 36
10195 36
14380 38
14672 71
15101 70
15982 148
16764 5
18298 36
24460 36
26470 45
27887 43
27944 36
28210 36
31005 36
31871 38
188 33
495 33
1004 59
2946 53
3700 132
3808 89
5887 135
12568 33
25262 33
26095 33
26306 88
27648 33
31552 33
32330 33
32717 59
33263 24
33708 115
189 86
1353 86
2958 86
3294 86
4348 86
4538 93
6787 121
7074 48
9186 28
15682 79
17084 86
21640 107
24502 143
31932 101
32196 34
34380 86
190 97
1620 97
12652 97
13584 33
17163 97
17552 97
23218 145
24173 97
24495 2
28015 121
28018 97
28589 17
30635 97
32715 61
34520 99
191 131
5038 136
8026 35
9380 131
21654 131
24621 44
26854 139
29005 131
29281 131
31261 131
31452 105
31917 2
33778 61
34072 43
34089 131
34141 131
34300 145
192 70
4547 133
11170 0
13979 70
15850 124
19137 97
19847 70
23018 70
24955 150
27573 70
29580 70
30538 70
32737 85
33516 116
34317 140
193 107
557 122
3122 123
7582 37
9460 147
12177 107
13907 107
14456 107
15538 107
19772 123
20375 107
26714 131
27766 107
32352 107
33972 25
34412 29
194 89
1380 125
5021 126
16484 89
21828 66
22324 74
22696 44
24701 99
25297 89
26112 89
26305 89
27862 89
28125 120
33483 89
34195 101
195 107
487 79
1623 132
7128 107
10352 107
10622 107
12167 107
13822 108
18508 104
19000 107
22044 3
23569 107
26566 107
29214 138
30197 26
31185 74
34049 61
7861 13
10648 1
16008 147
18662 58
21078 1
22291 1
25009 41
25178 1
28224 39
29205 105
29867 1
30158 145
197 146
570 146
7309 22
11946 146
12016 146
14706 87
20046 146
24799 119
27443 146
28901 147
31264 146
32140 123
32745 146
32798 139
198 78
1207 78
6967 140
7822 78
10058 78
10535 125
15474 32
15507 17
20641 78
26991 49
27891 78
30924 78
34111 134
34331 78
34466 141
34476 10
199 137
2094 63
5892 26
18199 80
19172 137
19693 137
23502 75
24338 137
25721 145
26344 34
29644 137
31417 137
32113 4
33326 63
200 28
8862 28
12851 147
13661 28
14501 117
17652 28
18519 2
18797 71
23870 9
27022 28
31108 101
32034 86
33595 28
34279 28
34315 89
34413 28
201 119
1444 64
2351 119
3834 54
9761 119
14941 2
17526 119
17592 25
17967 126
18591 119
22182 90
27456 91
30533 29
33446 136
34416 119
34495 20
202 89
2938 89
4008 17
6809 70
8040 100
18160 89
19307 89
19675 37
20490 89
22975 19
26676 90
29027 58
29957 89
30602 83
32934 89
33789 89
203 62
6742 124
8938 112
13819 39
16897 62
17990 108
20092 104
28536 117
28864 62
31891 62
32270 51
33322 62
34014 62
34094 62
34232 62
34480 130
204 139
2081 94
3670 106
14262 139
19037 97
20219 139
20646 139
26427 139
26875 139
27339 91
31011 115
33672 133
33957 139
205 55
403 103
974 142
3385 55
4146 68
5086 88
8419 55
12776 117
16163 55
21570 56
22402 55
22773 55
26629 28
27492 30
27771 55
28896 55
206 31
5255 31
7738 31
10215 31
13431 138
13539 28
13982 31
17460 81
22517 117
23587 82
24692 31
26225 31
26553 31
30456 90
32705 96
32912 47
207 35
358 35
2370 72
10946 48
14080 16
18809 88
20043 35
21059 35
25728 66
28368 35
29871 99
32969 35
33029 35
33664 92
33765 35
208 83
5978 26
6905 34
8479 133
11135 83
14222 134
17556 83
18713 28
19348 130
19655 83
24892 111
26682 83
28076 21
33210 83
33481 48
34104 83
209 59
1215 59
15500 103
19160 59
19920 104
19931 36
20089 59
24028 139
24263 59
25135 99
25902 59
29320 128
30443 59
31282 59
33994 2
34010 45
2685 77
3115 0
10364 142
11162 142
11719 141
22963 41
31344 142
32100 142
32723 142
34105 142
34170 126
34212 142
211 129
13511 22
16059 129
19966 102
23126 8
24598 129
27103 81
28359 72
30292 129
31372 18
31462 129
32786 42
33407 20
33913 9
34357 129
3863 12
9764 22
10223 96
14005 12
14950 12
15410 106
18531 106
23871 60
27004 130
29084 12
29292 12
32314 146
34421 12
213 25
1357 26
11862 70
14109 25
15846 120
16989 112
19059 25
19677 25
23867 25
26844 89
33947 123
34228 25
34271 92
34383 25
214 31
1451 31
3611 79
12628 31
16554 5
17260 145
17782 21
19968 46
21639 31
29847 84
30118 31
33414 19
33651 31
215 87
17628 25
17906 136
21932 87
22920 87
25069 87
25188 43
26453 87
26830 87
26910 114
27009 87
27588 117
31411 87
33448 14
34473 9
216 45
2284 78
3829 133
7060 45
9197 38
15754 27
17001 4
21665 146
22139 115
22373 74
22466 45
27311 104
29337 45
31072 45
33138 45
33231 45
33849 45
217 87
675 40
5107 87
14004 142
23294 87
23727 147
24115 87
25201 87
26066 34
28179 62
28411 87
33118 134
34261 22
34324 87
218 76
5407 76
10143 133
12194 76
12497 88
13212 76
15142 25
18326 76
19570 102
20181 134
28376 107
30575 51
32489 4
33411 76
33673 76
34397 66
219 22
305 42
8092 22
12436 22
12974 141
17444 22
17734 22
19580 15
22245 58
23753 57
24736 22
28757 45
29705 4
30964 22
33965 2
34206 22
220 139
14366 138
15997 139
19929 40
23875 139
24434 34
26085 39
28856 36
29523 139
32338 139
33831 139
221 48
3330 23
6215 37
10187 48
11790 56
18699 123
21938 48
22248 133
22463 48
23722 118
27124 48
27513 48
29401 144
30617 58
222 84
2990 31
3874 84
5755 84
7390 82
7483 92
7635 44
14359 84
15475 84
16204 113
16839 71
18471 3
25296 105
26757 30
33884 84
223 141
1117 23
3318 148
6488 141
8451 141
12903 66
13639 141
21297 141
21548 75
25493 141
26873 83
27606 20
29144 141
33659 80
34499 71
224 118
571 49
7125 140
9938 118
13875 73
13952 79
20037 118
29491 118
31227 98
31419 118
32402 15
33008 118
33332 118
33622 34
34164 118
34221 76
225 40
3718 124
8125 40
11870 10
12531 40
17207 112
17672 33
23762 85
23797 32
24075 74
24309 40
26252 43
27528 40
31016 17
32375 40
34091 40
226 48
12865 94
14788 134
15493 118
15517 48
18844 31
23907 48
24564 107
25253 151
27122 48
28332 48
29319 48
32406 48
32768 2
34364 48
227 45
3196 100
3662 1
9180 57
12594 22
13138 45
14726 123
16549 39
22065 45
26546 45
26654 45
26932 51
30848 60
31128 45
31767 100
33012 45
34316 45
228 117
1472 74
4066 148
4823 117
7808 117
8776 23
9085 117
9750 107
24478 117
25230 20
27744 117
29984 117
32937 29
33413 102
33657 105
34145 117
229 101
10389 101
13194 74
17324 107
17465 101
20459 101
22001 81
22170 66
23695 84
23776 61
24120 101
26684 101
32269 101
32790 101
33153 119
33636 106
230 98
2024 19
2692 135
13095 98
22614 98
23840 48
26765 2
28684 9
30242 2
30431 98
32365 98
33346 55
33628 98
34201 98
231 37
1795 37
6991 111
10752 37
11187 13
13430 77
15981 29
22126 10
22310 136
24473 37
25432 33
25486 37
30259 37
34432 37
232 127
1800 127
1898 127
2328 127
7819 49
8671 127
16600 127
18551 127
20063 33
23091 138
24037 4
24149 127
29935 79
30357 24
31456 38
33120 90
233 126
579 27
4734 126
6093 78
7789 150
11924 95
17842 14
26693 29
27271 139
28384 126
28656 126
32198 82
34031 126
34223 73
234 54
1464 120
3939 72
5267 123
7846 129
9849 53
11402 54
13867 54
18196 54
18325 120
21649 47
23434 54
24339 52
24650 71
26798 148
33123 54
235 120
786 86
1538 10
4782 145
15332 80
15991 120
21902 120
22128 124
27153 120
29246 120
29486 127
29851 120
29980 120
33256 120
34399 38
236 96
3034 96
3329 141
8028 121
9886 138
9888 39
12302 93
15704 96
21037 96
21176 41
21920 46
21956 96
22878 96
27836 96
28426 64
31155 146
34214 96
237 86
2312 60
6251 140
8911 75
17598 46
19627 86
20502 9
22420 86
23622 86
27003 86
28541 127
28715 122
29228 29
31438 86
31558 86
32743 56
238 116
4531 116
8176 116
9479 24
13835 94
19534 61
20399 108
20808 117
24561 116
25901 116
30662 9
31510 9
33931 116
34040 116
34154 20
239 124
4614 124
6992 45
10202 37
10552 69
12218 82
15001 8
22521 124
23355 61
24081 91
28409 124
29750 124
29905 124
31157 124
32487 104
240 127
1420 127
2344 127
8027 43
12245 50
18550 63
19771 127
20857 29
22703 147
23340 98
32609 127
32721 127
33257 78
33324 77
34192 19
241 51
1600 63
7707 106
11437 51
14802 51
15914 74
17735 19
18758 51
20504 105
23268 51
26617 41
28439 95
29790 56
32261 51
33690 51
34284 51
34381 117
242 112
4474 112
6266 112
10652 112
11444 105
19477 67
20385 81
21911 69
23404 138
25373 112
28496 118
28601 110
30249 112
30905 112
34297 112
243 67
1721 72
2757 93
5442 42
5548 67
7989 67
11629 22
13400 31
18291 127
23764 67
23780 47
28045 67
29116 67
29398 43
31403 103
33583 50
34103 67
244 67
5135 80
8009 67
13683 71
15383 44
21335 67
23947 67
27246 67
30396 67
32222 57
32426 39
32505 5
33174 117
34373 67
245 130
2677 56
6859 70
7044 122
8371 24
9547 112
14347 130
18139 131
22867 4
23352 130
27526 130
30299 64
31481 19
31749 130
34494 130
246 4
6652 117
8034 4
9152 4
9759 91
12693 62
12829 4
13699 4
13920 76
14348 124
26981 4
33161 74
33374 147
33942 4
34151 124
247 37
2281 137
6914 37
8354 37
14035 37
15235 69
15524 25
20977 43
22156 10
24024 37
24352 30
24514 122
24557 105
25850 37
28883 37
30157 38
248 97
3710 97
3971 80
11907 114
21604 97
23650 74
29040 97
29626 150
31045 97
31904 80
32177 74
34128 97
249 36
2779 134
8420 95
8557 28
10217 142
11002 36
17457 129
18016 14
25144 36
29584 36
32164 36
34230 34
34351 66
250 112
6768 133
12570 112
15155 112
15195 149
16705 107
21392 112
22308 122
23772 112
26088 28
29744 137
30679 112
30702 46
30814 135
30911 112
34007 151
251 33
1250 33
1541 135
1687 118
13142 149
15866 33
23112 144
25439 33
26063 33
26178 33
30515 80
31556 88
32240 145
33289 116
34219 63
252 149
879 149
6920 101
14388 122
22808 62
24470 63
25506 149
26245 101
26870 79
29271 60
30349 149
31231 37
253 74
393 74
5313 104
5563 74
8172 74
8981 74
16521 74
19910 77
24549 139
25590 96
28088 84
30193 106
30296 89
32161 74
34446 56
254 77
1307 128
6881 77
9357 77
11612 77
13437 93
15928 105
15962 77
17022 77
17201 50
19162 151
19378 101
22722 113
22763 77
23822 108
32120 28
255 107
9792 42
10469 107
13317 142
17146 81
18378 135
19156 125
19916 91
20297 107
20421 64
31707 126
34443 53
256 132
7152 132
9136 132
18163 38
18808 132
21005 122
22211 9
26556 106
30719 43
31064 132
34376 18
34493 132
34503 126
257 67
878 67
8892 40
13035 67
15194 56
19501 67
24457 148
24683 33
27328 51
27839 117
28007 67
29029 50
29757 126
33519 67
33541 67
34156 19
258 128
7066 128
12231 128
13864 112
14910 128
19527 7
20243 101
29014 107
29111 128
30161 50
32459 18
33228 78
33254 128
33568 126
33981 128
259 100
4486 100
6969 19
9122 100
10340 122
11298 150
14194 116
15708 100
18483 104
18757 88
19379 130
21541 100
23745 100
25060 55
25290 9
34471 100
260 19
2790 19
4744 26
5796 59
8368 70
11892 19
12930 62
13580 79
13792 19
14953 1
21470 19
22341 19
23066 19
26205 76
30710 19
31876 21
33847 151
261 107
3321 107
3997 66
14684 80
14729 107
14944 107
16553 40
19945 113
22040 107
26003 9
27346 68
30079 70
31633 76
32481 107
32825 107
262 81
1272 86
2286 61
5282 88
15005 52
16729 81
17077 81
19747 88
24286 81
26186 42
29147 130
29210 38
30567 81
32782 81
33487 38
263 74
3410 74
6097 132
6114 74
8327 22
8585 69
10956 4
15013 74
22506 74
23266 74
23460 142
26963 117
31203 74
31909 85
32187 130
32234 10
264 98
4745 10
6614 56
6624 98
12846 98
12945 98
14131 38
17776 98
19612 98
22676 54
23384 21
24182 24
26441 124
28519 98
31050 98
32852 0
265 138
920 118
1176 138
1246 100
2310 138
14091 138
14340 138
20517 147
22441 22
23709 109
23988 41
28405 90
29310 66
30659 138
32007 78
32939 138
34132 138
266 107
11190 18
12727 107
14631 107
17344 79
23186 49
25026 53
25355 129
26729 107
28646 71
30086 14
32134 80
32281 107
33468 92
33916 107
267 100
2978 141
12384 48
13934 64
16027 91
17564 100
18289 100
23096 100
28597 103
28977 15
29538 100
30852 126
30884 123
33299 100
33405 100
268 135
4758 135
9175 135
10960 47
11130 135
11350 19
20674 135
23101 54
23761 135
26691 125
29907 133
30345 66
34321 16
269 147
310 147
725 138
8134 54
9960 147
11880 91
12024 19
17143 147
20960 147
22289 147
27497 22
27603 30
27700 54
30953 25
31889 147
33922 147
270 10
2587 10
5064 10
6584 60
23014 67
26908 0
27079 10
28159 4
28641 10
30323 98
31585 36
32740 10
33687 10
34430 110
271 76
1507 76
6551 76
10260 75
18433 82
21010 93
25391 64
25717 76
27290 76
27889 76
29707 28
31367 136
33790 65
272 74
1362 6
3138 74
5771 22
8987 74
13344 35
14052 74
22141 74
24900 74
28137 41
29473 147
29909 74
29943 101
30712 26
32321 74
33229 26
273 143
2731 107
3938 22
5936 18
6750 143
9204 143
12704 143
21292 33
23282 143
24909 63
27329 56
28972 13
32513 143
34163 5
274 54
3740 49
4350 54
4674 139
9601 71
11761 130
14395 27
21930 54
25983 48
28489 54
31171 54
31613 41
32951 54
33158 90
34054 20
34489 54
275 143
572 143
1005 20
4690 143
5541 103
16071 143
20198 99
24507 89
28558 116
29487 112
30236 143
30691 143
33253 143
33962 143
276 71
4074 71
8339 115
8804 71
9436 71
12855 58
17188 100
19697 71
27048 94
27295 43
30059 140
31650 71
32880 67
33882 90
277 41
4358 41
9743 40
11179 41
13420 41
14090 19
16304 41
16477 41
23877 69
27136 4
29380 41
32819 147
33870 39
34283 136
278 29
2018 29
2704 29
6877 89
15527 15
18080 113
23044 59
24408 29
27035 49
27818 20
28187 39
30812 29
32862 29
33620 7
33941 29
279 24
5157 115
9728 135
13481 24
13785 91
14002 88
16364 24
18947 108
19129 74
21446 64
23618 24
24576 24
25057 24
32133 24
33205 73
33985 30
280 9
980 9
2042 130
8154 9
10238 91
14515 9
15405 34
15953 81
21383 91
22545 9
23767 9
25906 134
26435 9
31025 9
31450 33
34191 22
34259 87
2548 102
6813 56
11261 55
14886 29
20941 69
21794 56
23356 56
23544 56
27422 103
28295 91
28758 101
29233 49
30512 56
31370 102
282 149
3363 149
10140 149
11246 1
19220 149
19676 37
19794 135
21821 62
22464 149
27083 149
27449 149
27917 143
30380 42
30699 85
31389 149
33387 10
34463 144
957 61
3345 15
4326 37
5216 118
6958 118
11964 58
19333 118
25106 118
27998 141
29061 35
33111 118
34296 118
284 93
9850 93
12357 38
13650 93
18468 73
21839 30
22195 98
27131 131
27842 93
29781 150
31074 17
31114 93
33458 93
34519 62
285 10
8142 80
12351 10
15698 45
17269 10
21547 60
23796 101
24321 10
24940 10
30210 74
31527 122
33202 67
33471 10
286 26
4842 26
5711 13
18860 16
24118 26
25722 32
28959 141
29108 26
30122 80
30786 84
31943 26
32027 26
33704 80
33825 58
34210 26
287 10
6364 12
9987 66
10787 10
12077 10
18695 10
23883 14
26419 135
27585 10
29550 10
30558 73
32578 131
32680 113
32736 10
33999 36
288 34
5747 143
5816 54
18370 34
20191 138
26924 7
28714 34
29419 95
33291 56
33371 34
33421 34
33900 47
34183 34
289 69
1666 69
18053 49
22447 125
24957 1
25276 69
27412 43
27949 69
28650 66
28862 144
30113 43
30692 69
31247 49
31711 116
290 131
396 131
2672 131
6416 131
6714 63
15133 142
16590 78
18266 44
21596 105
25755 130
27545 40
29679 131
31098 131
31812 125
31887 131
32797 49
291 54
4103 23
5163 147
6202 54
10359 133
10458 75
11242 54
11258 16
18369 54
20678 78
25640 54
26185 89
27491 54
30941 54
292 41
12097 41
12540 32
12558 85
18403 80
20467 41
22569 41
23439 93
23602 41
24097 77
26389 54
29609 41
32279 41
32450 92
34122 41
4394 63
4685 37
4927 63
8294 30
8347 63
11865 43
27988 63
28029 36
29456 75
29852 63
32597 63
33520 63
294 71
1173 71
1919 71
6752 6
12095 71
14059 42
14975 2
15147 136
21185 34
27241 151
29652 116
30895 73
31764 71
33531 71
33802 71
295 136
2248 16
5450 17
10898 136
18628 136
21992 134
22693 136
25272 136
26309 85
29552 59
29737 136
32004 15
296 109
960 28
1575 69
1959 109
5477 124
5505 110
5609 121
6928 109
7755 89
9277 109
22365 109
26681 123
26913 109
27460 109
28055 84
33590 50
34121 109
297 44
3853 65
4202 47
14793 11
15896 132
17112 76
18941 44
19390 44
19525 134
25380 44
26107 44
28000 106
29242 13
32337 44
33213 98
33805 44
298 71
5387 71
8320 71
14457 6
17263 142
23853 71
30778 71
31220 40
31468 126
31967 99
33386 94
33732 71
299 142
4605 142
12187 122
15391 118
16502 63
18214 98
25356 143
25686 151
28664 36
28762 142
28975 102
30565 5
33163 142
33339 142
33886 142
34355 142
300 86
731 86
839 86
9238 86
11681 124
12116 104
18327 2
18454 129
21445 24
21648 86
33404 86
33546 73
34204 86
301 61
2109 64
6850 39
10704 110
11310 61
17837 136
20588 61
20684 93
23264 116
26825 85
27255 61
28485 61
31138 61
33627 61
34422 61
302 145
7182 145
11296 25
15303 80
17157 145
17470 92
23700 111
23917 145
29699 61
30130 119
30159 145
31274 145
31305 137
33784 79
303 3
1909 121
5872 133
7430 3
9828 93
12703 60
19799 3
21291 87
22817 3
26619 3
30220 46
33285 3
33508 3
33511 122
33932 3
34098 125
304 33
2932 58
3437 33
3781 80
15976 33
19831 120
26724 33
28031 33
29379 91
30166 33
32009 148
33938 33
34158 54
34542 95
3531 100
6945 16
16993 61
18155 42
22837 139
23114 42
24371 81
24622 42
28267 42
28924 44
34117 38
34396 42
306 93
10768 59
13406 93
17912 136
19818 93
23572 93
24025 81
25741 93
27627 26
27735 93
27904 143
29117 95
29477 93
31407 9
32588 93
33017 51
307 20
8130 28
9574 28
10044 20
12371 124
15412 20
25043 37
28324 20
30471 20
31957 83
32328 20
32878 135
34276 10
308 97
3857 20
7877 97
8311 97
9275 40
11134 97
17744 97
19426 56
20348 97
21337 48
26917 103
31691 33
33159 97
309 136
2244 136
8367 108
9770 99
11275 124
12447 19
17140 5
17959 136
27107 115
31207 136
33893 8
1038 84
9172 147
9782 147
11678 148
12589 148
12794 105
18079 147
20480 45
27338 147
27866 10
27966 147
33004 13
33330 142
1276 135
10043 144
11835 118
13514 135
16090 135
16311 112
23193 135
26167 135
27656 135
29313 135
29480 20
29822 88
32193 47
33967 127
312 93
5441 30
7386 6
9603 149
10186 93
15369 93
18162 118
18718 93
19163 141
21403 93
21702 93
22673 87
24109 93
26200 93
29150 98
30140 48
33615 24
313 112
3125 148
9242 11
13439 112
16637 112
18584 107
24013 112
24774 110
28483 84
29263 70
31139 100
31298 7
31953 112
314 92
1658 92
2822 98
6169 72
9757 63
12819 108
16473 34
18132 92
19368 130
22118 92
23323 92
24056 53
27010 92
28364 137
28814 92
315 50
739 50
4002 53
6174 11
7569 95
8633 149
14775 125
18035 142
20093 50
25385 50
27096 50
28135 50
30338 123
31145 110
32999 37
33719 50
316 101
8799 101
9195 5
12250 101
14390 89
18203 101
22826 132
22844 101
30264 95
31019 29
31339 112
31437 63
32871 101
32977 46
34350 121
317 142
2530 142
4156 28
8104 142
8740 11
11425 142
17029 151
17054 78
19848 143
22711 142
28448 142
28991 142
30980 27
31448 105
32296 30
32548 142
318 19
12059 19
13724 75
15713 12
17358 19
18710 144
18772 19
19257 3
22395 19
24038 48
28360 102
30055 19
30586 86
31095 29
33459 19
319 126
8267 148
11003 126
11189 125
11452 9
16532 81
24833 126
25397 96
28331 126
29848 126
31881 30
32687 126
33693 126
34301 19
34434 126
320 146
4651 75
5643 46
8187 146
9103 146
11970 25
11991 78
14871 68
18726 146
19056 146
25163 124
26357 146
27349 25
31762 146
321 54
744 104
7745 52
8141 54
16069 54
16717 49
20841 67
22735 54
24956 82
29211 95
29921 82
31160 104
32497 54
322 89
679 89
3731 30
10914 76
15573 124
19563 126
20599 25
24021 89
25199 89
25642 101
26811 89
27926 89
29585 131
32208 89
33496 89
34139 54
323 30
934 20
8730 30
14466 125
15225 30
17011 61
20508 30
23041 149
25838 83
27163 81
27315 30
28711 30
32538 30
34378 62
324 43
7295 48
11345 82
11594 43
15450 103
15458 150
16040 131
18887 43
21592 43
26176 124
27195 90
27531 12
28698 75
29520 43
31444 69
31840 43
325 148
439 118
4201 148
10182 148
11037 148
18147 148
23388 125
23672 148
24727 148
27411 128
29561 19
30044 45
30421 124
326 15
3089 15
4562 15
5487 15
6671 36
9536 15
11595 82
17088 15
20065 10
21687 15
25587 107
28470 78
28892 63
29446 41
31638 108
33812 15
327 145
1261 61
3391 145
6886 145
8039 59
9911 63
12566 145
14927 108
15054 19
15952 145
17861 36
21402 76
27056 73
29500 145
33393 145
33576 145
328 133
6025 143
7231 133
15674 118
15736 42
16790 115
18991 133
26288 117
26853 133
27141 133
29126 133
29937 66
31948 133
32390 18
33833 133
329 117
4929 141
5365 17
6529 25
11956 80
16175 141
18561 59
20717 117
22136 117
22550 14
25113 117
29422 47
33618 107
33819 117
330 17
6157 133
13030 139
14199 128
14972 17
19214 17
20034 128
21012 17
21345 116
21945 17
22429 17
23154 58
23674 17
33136 122
33526 17
34165 138
34431 56
331 49
3474 49
3972 52
5275 49
5938 49
6044 49
10224 117
14041 13
14075 11
16301 8
17537 48
31781 49
34538 49
332 64
7869 64
9354 121
11486 16
13049 50
17439 64
18061 64
18853 56
23397 17
24136 64
27409 144
30191 52
33085 64
33436 64
333 66
3332 48
11401 66
18151 66
22285 56
22406 24
22497 66
23394 129
25038 66
25127 66
26919 100
31152 54
32559 66
34356 30
334 54
5539 139
11035 54
13037 74
16748 113
17500 70
21818 75
23950 54
28168 54
29045 46
31186 54
31223 130
33594 137
33815 61
335 149
5681 149
12504 116
13508 30
15269 68
20402 149
20483 149
20542 19
27345 149
28613 149
29429 105
30809 16
31612 149
336 112
14044 116
14956 112
15844 125
20755 112
22845 43
22881 10
26380 112
31586 5
32212 16
33150 112
33335 112
33852 112
34425 119
337 119
9306 119
10317 119
11263 75
11503 113
14636 119
17244 1
21705 52
23435 119
26485 77
27730 2
28678 119
32204 69
33252 29
33834 89
34041 119
338 55
1167 55
4136 42
5490 55
8199 46
10257 89
12986 55
13966 88
15228 57
19716 55
27999 63
29413 117
31981 55
32640 55
339 39
1950 76
10512 39
10741 39
12189 18
12681 62
14415 39
14891 133
21357 39
21751 48
23324 39
23335 95
23682 39
34033 108
340 93
6843 93
8759 74
10830 83
11984 64
15561 93
17635 93
22103 93
23426 147
24857 93
29378 49
31085 5
31297 93
31740 68
32032 70
32200 88
341 84
2930 11
3428 84
3601 84
4436 138
6069 70
8822 87
15689 138
21084 84
22702 140
27896 32
28568 80
31249 84
342 100
4825 100
5557 51
9484 123
19829 60
24601 100
25879 100
30281 14
31132 100
31526 48
31562 100
33167 55
34498 113
343 55
7159 55
11033 55
12069 60
13192 55
14028 68
18332 55
20726 100
21927 55
26941 121
27581 55
32304 54
33463 11
34405 55
344 98
2823 98
3638 98
5215 98
8475 100
9104 35
18499 98
20044 98
22153 77
24006 98
24582 30
26130 98
26228 148
33181 47
33988 13
34341 95
345 6
833 6
1328 6
13950 96
14960 6
18669 6
18767 19
20098 6
22106 27
23210 6
24509 28
33492 63
346 42
995 41
11995 42
12921 73
13017 42
14875 42
17800 35
18328 42
23944 11
24219 60
29687 137
32298 52
32508 73
33555 42
33565 42
347 56
1345 47
1537 56
2626 56
5502 56
6267 56
6552 56
9915 80
16274 91
16793 30
23391 98
25693 133
27099 56
29882 78
33888 96
348 119
3038 83
11584 100
11812 119
12280 16
13418 103
18075 119
19729 20
19922 119
20260 119
25978 130
26267 47
31851 119
33730 119
34440 102
349 87
1601 82
5542 67
8774 150
15336 87
22999 87
28183 87
30717 80
33204 108
34272 87
34386 87
34403 118
34508 87
350 116
400 116
4932 116
10808 66
10849 3
14352 102
20899 94
24273 41
24296 116
26993 130
27728 139
31413 116
351 83
503 2
2828 49
10111 123
12462 83
20021 83
20625 83
23330 32
24905 138
30036 114
30801 70
31690 126
33155 46
34487 83
352 132
7931 15
8600 132
10115 11
10426 132
21781 132
21867 42
22396 59
22695 12
26889 116
29074 132
29826 55
34369 132
353 117
4381 126
6186 117
8542 48
10554 117
14038 45
16742 117
17121 109
17601 117
18215 117
23381 117
26686 21
31244 86
32697 117
32755 145
34393 135
354 36
1072 68
5425 36
6804 36
7591 123
18715 36
19050 36
28927 36
29996 30
30876 60
34382 3
355 41
10942 105
12511 98
16613 70
18238 41
20895 56
21827 41
22376 41
26011 28
26845 68
33265 41
356 71
845 121
2038 71
2659 71
8229 56
13201 21
16878 71
18386 119
21276 67
21462 71
28354 71
31359 54
32599 15
33076 59
33089 71
34490 102
357 23
3492 23
3830 23
4859 23
5231 71
8526 28
9279 35
16283 135
16501 94
17583 29
29896 23
30095 91
30791 23
31901 23
33197 78
33864 23
34126 79
755 35
9036 86
20357 99
22578 18
23915 35
29544 35
30601 35
31470 92
31658 35
32926 81
359 22
908 100
9333 105
9533 87
10012 22
15088 2
20530 22
23937 22
28095 57
28963 96
29578 22
31635 145
31852 70
32186 22
360 102
6238 102
10033 1
13051 112
13452 41
14296 102
21160 116
21362 68
23371 102
24923 53
27669 102
28181 102
33319 30
34322 69
361 89
10496 89
15309 119
24655 136
27172 96
28020 89
29062 110
29910 89
30368 79
31483 144
34453 12
362 62
9053 43
10685 62
16398 131
18563 95
27463 67
28482 87
30362 141
31007 81
31621 62
33363 20
33996 94
363 143
3548 118
11953 44
19906 113
22228 143
23894 143
24991 143
26356 37
26763 143
30383 16
30486 26
31543 143
32850 110
33211 13
364 12
2514 17
3394 12
9522 12
11043 12
17350 43
17929 107
20931 12
22293 63
24682 139
27630 69
28842 12
28970 141
33288 21
34114 12
34444 16
365 129
1257 102
1932 110
2170 125
6373 129
17270 125
18031 129
19598 38
22077 128
31480 129
32438 84
32462 129
32647 117
33306 28
34133 129
1165 138
15068 124
18218 59
23562 13
25979 7
26153 13
26984 99
28084 121
32471 13
33006 108
33665 3
367 73
7352 134
16529 73
17866 73
17992 73
18110 73
18421 41
21577 73
21756 73
24458 41
28984 124
30874 102
33782 136
368 55
2546 54
7422 55
9692 55
11131 55
12428 148
13738 27
14928 125
19464 82
21853 55
22209 55
22234 55
24778 64
24842 111
30804 104
33303 129
935 39
3073 59
3753 39
3988 63
8219 72
8659 63
10507 39
15810 39
16267 147
18141 56
20415 73
20777 39
32215 105
32498 39
33166 58
370 32
1512 9
7683 93
9005 151
10890 63
14662 32
17173 32
18487 32
25559 1
28010 32
28194 84
32918 32
371 123
3235 15
3784 137
4362 123
13976 123
19313 123
26161 123
26162 123
29375 147
29404 130
30251 72
30341 123
32040 58
372 77
838 77
3418 77
7742 8
8691 77
11349 105
19308 77
19564 54
21418 77
27413 77
28760 85
32073 103
33606 80
34167 126
373 133
1902 129
12055 108
15137 133
15562 133
18350 85
21255 133
22089 15
22516 71
27202 135
27989 85
31382 133
34005 45
374 33
2209 33
5765 33
6944 2
11092 2
11362 119
12298 33
17483 68
24077 32
26362 58
27320 33
29356 33
33616 33
33638 62
34242 44
375 20
10278 133
10463 20
12022 20
14539 134
21057 75
24791 20
25550 27
25980 20
27899 32
30996 95
33759 80
34302 18
376 130
6483 76
8738 82
15814 123
19319 130
27334 86
32048 130
32855 132
33296 130
33804 142
34535 130
377 100
3025 100
4874 137
7144 100
11603 100
14925 101
15568 101
16548 104
28287 75
29079 100
31142 100
32870 27
33739 68
378 14
963 72
1837 32
14268 38
16760 140
22561 14
24855 14
25987 30
27576 14
29936 14
30631 59
31174 14
32310 115
32746 14
379 84
18449 84
22333 11
26655 84
27040 121
31187 84
32980 52
380 105
1617 59
2542 105
2778 137
6085 105
9729 12
10817 7
13851 45
20639 129
22090 105
31900 105
31919 105
33313 105
381 71
2899 11
15278 71
15547 15
20406 71
21557 131
27538 23
27971 9
28096 71
31478 110
31647 100
32586 71
32972 2
382 109
5013 109
6331 125
7881 109
12202 109
12349 109
15899 109
16261 109
19792 150
22312 56
24635 94
27244 22
31594 103
33232 28
383 104
5562 104
5908 63
11708 104
15347 104
19360 104
19394 104
26303 62
26499 106
28075 46
31995 50
34517 104
384 56
1606 56
11752 123
12057 56
14958 70
15399 33
20740 56
22747 50
28242 1
29843 4
31204 132
31232 56
385 39
1233 140
8871 143
9727 143
12197 59
14373 131
14912 39
20978 90
21242 39
29317 39
29858 109
30189 39
31144 39
32238 9
386 105
2320 145
14020 31
15586 105
24016 105
26232 105
26272 91
27018 105
27436 105
28238 66
29977 110
30950 105
31182 105
31606 46
33201 120
387 143
2994 143
3357 34
9611 143
10164 112
10486 75
13876 143
21317 34
24175 143
24620 143
26677 20
30017 13
388 62
3744 148
10559 106
13161 38
14918 94
18600 110
20073 45
21738 101
25739 62
27275 128
28616 119
30003 62
389 122
8353 122
16254 116
17055 99
17606 2
20169 105
22760 122
26005 122
27498 80
29256 38
32531 122
32891 70
33681 122
390 1
6993 10
10607 118
13263 99
18675 1
20088 144
21669 146
22852 1
25420 1
25579 2
27580 27
31850 98
33096 1
391 99
13011 99
15212 99
16620 82
19699 118
20337 105
20622 99
21841 99
22831 134
25800 99
25936 93
28195 136
31896 50
33737 115
33749 150
392 29
1070 29
5120 47
12745 35
22184 29
22215 0
27544 24
30688 29
31217 48
31251 85
32109 50
32821 29
34375 29
2363 107
12564 74
13646 74
16009 15
19186 124
28353 107
28857 74
29015 38
29656 27
30437 74
30798 75
32582 116
34457 74
394 118
979 32
1946 118
2044 62
3162 118
4741 118
7606 118
7803 70
12533 25
15701 92
28910 127
29768 18
31151 94
32189 118
395 1
4904 1
5411 92
11332 1
11519 1
12514 142
13097 91
13459 9
14076 1
21732 121
23517 1
30748 126
31677 24
31709 49
33474 0
8091 2
14423 43
22828 131
23046 23
24926 145
27222 15
31173 25
31194 131
31491 131
32945 131
33104 70
397 52
10243 0
10908 52
11766 26
13778 150
20665 52
20957 57
25029 133
27140 20
28268 18
29799 146
32258 12
34194 52
398 137
1611 75
4590 85
4835 29
7448 80
12973 137
15511 137
22132 93
23001 135
24195 137
26469 137
29660 43
30907 137
32159 137
550 49
3990 83
15365 137
17178 40
17458 131
22274 27
26604 83
27303 77
31672 124
31697 83
31956 44
33367 54
34238 83
2389 116
6042 100
7709 116
10959 146
16922 56
20143 20
23118 129
26720 116
27907 39
30330 98
31547 116
33633 88
33799 127
401 6
4356 6
5777 103
7475 103
14810 142
17655 6
23053 6
23954 74
23995 115
33881 16
34025 117
34500 56
402 136
2404 42
4039 136
4827 136
9392 41
9675 138
9779 42
16064 136
23920 105
28003 19
28350 120
28679 136
32830 136
2130 103
4897 82
5860 74
6320 76
12289 143
19338 22
20290 16
21133 103
21993 103
25266 103
27886 103
31107 149
32529 23
404 11
997 126
3818 11
9188 28
11517 3
13507 42
14137 65
19952 11
23347 11
28578 11
30050 11
31484 11
32223 11
405 107
837 107
1013 30
2031 44
5843 96
5906 107
5912 149
9343 4
12383 107
17361 107
18963 107
24932 58
406 137
7987 137
12431 74
15289 64
16755 44
16905 60
17438 137
23633 137
25018 137
27673 61
31644 126
32030 137
32340 32
34360 12
407 8
5946 8
17849 8
18285 113
19081 5
24400 71
24568 74
24856 44
28997 89
32562 143
33850 8
34182 8
408 132
8232 132
12021 132
19064 132
19452 122
20027 42
20515 143
22444 45
22495 132
25342 53
25523 8
27875 132
29713 23
30508 142
409 16
1273 99
2267 99
9663 128
11264 53
12837 50
13820 16
17271 142
19537 16
27034 16
28602 16
30660 40
34437 16
1875 79
10240 65
12127 65
12687 65
14475 65
16479 131
25231 54
27489 11
29711 57
29719 65
34168 65
411 29
989 5
2805 126
2891 29
6296 68
7464 38
11057 125
11432 29
15460 101
16039 73
25421 48
31055 126
33402 29
33823 29
34326 29
412 58
3674 58
5088 66
15859 58
16941 30
19241 58
25596 58
27955 58
30402 39
31761 99
33352 26
34325 59
413 129
2397 129
5058 116
6812 35
8128 46
9021 149
12165 145
14892 129
20958 129
25216 129
27773 60
27997 13
29222 129
33540 23
414 126
6590 126
10792 28
11469 131
12913 126
15359 98
15509 3
18727 115
19623 67
21486 126
28451 91
28689 128
34371 126
415 22
1928 22
2639 97
5093 22
7268 114
8100 30
14445 134
17603 22
18705 52
19383 67
19679 144
21718 23
22104 22
22403 22
22685 15
31246 131
416 118
468 112
2483 118
14502 118
16940 109
17028 118
21164 118
21273 118
23589 27
26183 83
30172 41
32322 24
32686 7
32731 138
417 93
2050 93
7566 93
11098 99
15401 123
17281 145
17996 75
20782 99
21448 122
26329 93
29986 93
33950 21
418 133
6902 120
8178 45
10864 25
16547 148
21030 133
21131 133
22813 5
26030 103
26976 133
28612 126
30047 133
31549 19
32638 133
419 128
7732 128
8066 128
9621 128
14503 128
18423 109
19078 128
20590 31
21228 98
21504 13
22583 151
23658 128
29519 134
33629 128
34337 2
420 94
1479 94
4341 94
6942 101
13058 145
14165 2
14451 5
16645 7
22962 94
24156 94
31598 95
33694 101
1661 26
2026 26
2491 12
3287 105
6564 26
8762 26
8856 23
10055 115
23623 26
25989 27
27452 98
32829 26
422 68
3403 109
12130 68
12928 45
15327 63
17913 68
18333 68
21585 137
23285 68
23320 84
23785 68
25503 68
29163 50
30685 42
33721 104
423 108
459 91
1258 108
4181 108
6734 108
9581 148
13955 49
20354 108
20575 74
24034 133
28800 108
29054 113
29250 59
34053 109
34275 108
424 52
832 52
2623 79
3921 100
13838 52
14011 52
16732 51
19119 41
25986 30
30441 15
32131 29
33445 52
34447 96
425 30
3106 119
9619 121
15449 30
25275 137
27340 17
29933 117
31068 30
31170 35
32651 57
33863 30
34511 82
426 62
3128 95
3935 58
19490 62
25668 86
26150 74
28276 50
29888 62
30484 110
30687 81
31509 62
32154 75
32813 87
33437 62
427 18
5659 67
13475 18
13968 56
21366 15
21523 18
25496 18
29208 114
30764 80
428 106
3119 141
3501 106
7361 106
15144 106
17305 144
19576 106
23389 142
25270 92
28339 14
30520 81
31499 24
429 20
5262 121
7184 20
9334 112
10943 50
16657 71
16958 20
20472 122
27231 20
29496 108
31640 95
430 148
6479 148
6520 102
10880 122
11599 130
16482 138
16674 148
23714 148
28392 138
29252 148
29927 143
31406 50
32354 148
33688 148
431 48
4536 133
5667 48
12263 115
12835 53
22607 8
24106 48
26969 10
29424 48
31126 48
33019 88
33667 135
432 134
2874 134
5368 29
19300 134
20574 140
20996 123
22613 62
24285 140
24567 36
24614 134
24825 134
27609 134
29372 104
29464 13
30768 134
433 9
1765 35
7463 53
9153 9
10815 9
11943 9
17120 2
24007 9
26887 68
27490 19
28188 9
30946 96
34319 51
434 42
5069 125
12173 39
13043 42
18319 42
18412 35
19054 83
26447 42
29383 42
32083 42
34286 42
435 9
2950 74
4191 9
5288 58
6755 24
10707 9
19489 9
20966 107
22037 9
22097 56
23209 9
30280 81
32191 9
33406 63
436 125
8624 18
9775 63
10457 84
14898 125
15042 19
21136 125
21689 125
22821 150
23463 24
24004 125
25274 142
31465 125
31751 44
32018 125
437 103
507 103
5345 46
14029 103
15053 103
16084 150
19850 103
25683 85
29288 62
29703 103
31240 31
32077 121
32206 72
33168 102
438 141
1048 115
1556 141
5578 108
11553 71
18969 64
20206 141
23071 125
25702 108
28591 78
28624 69
29294 141
32041 141
32712 141
4765 118
5403 84
8517 118
20028 7
20548 0
21250 133
30027 102
30820 144
31200 118
33321 118
34076 34
440 30
1045 10
4332 30
6594 30
11140 30
14998 30
16399 68
20382 30
20444 78
23081 30
26251 148
28403 146
32405 110
33297 11
441 62
2169 9
2325 62
2417 62
8110 49
9997 62
11495 62
13803 29
14408 5
20123 119
25971 85
27921 143
31717 62
31964 11
34216 62
442 146
9040 0
12732 146
13949 146
15683 146
22315 23
22343 146
25889 146
28161 62
29492 32
31242 146
443 49
1141 25
2736 49
4983 49
10627 126
14641 120
14771 49
14826 62
18663 3
20751 132
22554 49
27843 53
28562 49
29452 24
31959 49
444 41
3100 73
8758 144
9825 12
10518 41
12304 27
15171 150
23626 106
29001 122
31178 41
33894 40
34147 41
632 104
890 6
3786 6
4615 6
10435 6
12948 6
15676 17
27316 151
30507 98
33271 88
34234 133
446 136
6396 136
6896 9
11703 136
13294 105
18200 136
21684 16
23573 136
26264 67
28175 103
28723 84
447 34
1534 34
1832 34
4992 139
6726 49
6962 40
7782 79
20435 34
24963 34
31787 34
32209 101
34439 105
448 31
4464 124
12534 16
14984 80
17988 31
20124 28
25567 48
28026 31
30025 46
31698 31
32958 148
33528 31
449 16
8971 16
14282 127
21661 11
22542 16
23348 144
29778 16
31832 23
31866 16
33028 5
33389 77
33733 16
450 56
3497 76
7049 56
7160 56
7916 56
9676 56
10504 14
20795 10
24194 129
28888 56
30057 56
32383 120
451 151
9989 71
15056 60
20439 151
26313 151
28742 108
30906 151
30913 37
452 132
2735 87
7370 137
13470 121
18111 130
18624 132
19644 132
25663 26
26638 132
28663 132
33126 98
33141 132
34173 144
453 5
2553 19
5186 56
10641 5
10875 56
14827 5
24810 134
29569 26
30190 5
31911 42
33172 5
33558 92
34127 19
34243 5
454 61
1961 61
10250 113
19323 61
22884 11
26572 61
27847 48
28265 148
32359 138
33239 77
33461 61
34224 125
455 105
2863 105
6258 75
7098 55
22577 105
26641 72
26777 105
27279 105
28577 136
28850 118
34119 105
456 51
6129 81
7009 47
9280 99
11562 51
21682 20
22992 59
26882 137
28338 51
30642 51
33493 51
34485 91
457 68
3014 39
5636 68
7500 68
14111 68
14425 19
15403 68
18970 8
19012 68
23613 70
32605 131
33824 91
458 53
2460 53
10472 102
10473 73
10631 53
14481 118
22345 53
24066 53
28946 53
30371 19
31168 7
31634 136
32710 56
33099 53
1008 17
4082 139
14400 129
17778 91
23157 91
26780 91
28968 91
31349 91
32541 91
460 36
678 36
4918 81
13623 133
13895 36
16915 32
25411 25
26239 36
28561 36
29055 60
30765 110
34342 36
461 139
2751 139
7226 79
21194 38
21834 66
22563 130
23415 139
29919 61
31941 139
462 124
1615 124
2582 19
3635 138
5391 79
6291 124
9413 124
11102 124
11799 124
14854 84
31793 8
463 125
2048 125
3261 125
4317 125
6610 70
8931 64
9382 93
12657 108
14626 29
15564 54
19126 125
23833 125
32017 125
33756 126
33904 76
34312 125
464 99
5634 58
5854 147
10957 13
15829 115
16734 99
20613 99
23608 99
23821 127
26452 99
28163 70
29494 99
33294 85
33305 146
481 79
7396 13
9620 23
10494 74
11205 54
12290 64
20179 23
25822 23
28396 23
30562 67
30971 23
31017 23
33675 23
34120 46
466 45
10265 45
13850 45
22021 91
25078 45
27441 71
29086 45
467 46
1442 117
9340 46
9800 46
10148 46
12713 46
27184 99
28365 15
31006 42
1551 112
6709 27
9972 15
11025 112
14639 137
15888 112
21697 38
31120 112
32093 144
33497 112
469 143
4973 143
10327 143
12929 70
16874 22
18419 143
19864 143
21193 143
25205 114
27734 143
28824 48
32881 68
2241 13
9143 109
9904 13
15653 13
17102 141
18672 126
22468 47
27935 13
29022 13
30091 61
31768 13
33219 121
471 146
7925 146
11389 146
13740 63
15556 27
21593 125
22827 6
24362 80
26665 107
28931 146
30148 146
32285 84
34288 61
472 150
3836 150
6177 150
11768 67
11868 150
18112 150
29490 150
30104 29
31021 150
33561 83
473 63
2210 44
2881 109
3149 136
15473 127
15680 63
17810 91
18087 106
19210 63
20061 63
25110 63
26621 63
33277 63
33472 63
33909 16
474 16
7228 16
7451 140
8920 24
11220 16
16544 7
21312 74
21463 16
23061 139
25909 123
30077 16
30928 92
31884 16
32950 123
33624 40
475 149
3157 149
13375 149
13648 1
17307 8
24087 151
24387 20
25982 149
29495 94
30070 149
31811 149
33125 85
476 13
6867 13
10329 85
14702 144
19089 80
21072 151
26352 13
28203 13
31568 7
31653 13
32231 13
32654 87
32921 13
477 141
1920 99
5242 82
6871 141
9818 128
11328 141
20448 141
27101 145
30141 141
30749 42
31681 141
32564 141
478 109
3098 90
5104 143
6285 125
9512 109
14195 57
16270 109
16746 11
25131 109
25195 109
28250 109
28283 134
29332 85
29940 4
33648 78
479 138
3074 138
8499 138
8686 138
10177 138
11069 123
11200 77
16427 138
23449 58
25207 93
27215 138
30209 3
32421 58
480 12
1662 63
5610 12
5693 56
9162 48
20691 8
22027 12
27681 64
29248 24
31918 12
32530 12
33532 59
33670 12
7204 79
11651 79
21606 93
28348 25
28670 79
28967 131
29827 79
30182 73
30975 73
31949 72
32592 79
33729 81
482 53
532 76
2977 53
4668 104
4984 53
9872 114
10940 53
24287 53
24348 53
30224 53
33840 53
33877 31
483 96
909 63
1189 98
7949 96
8124 52
10804 96
12090 96
13525 96
17909 96
21940 96
22536 123
31802 96
32911 28
33683 101
34175 64
484 73
4788 73
5330 105
9873 102
14520 73
15530 73
22434 73
26721 22
30929 131
31230 73
31559 73
32195 64
33867 73
485 142
2412 142
2456 142
8720 142
9602 100
13526 142
14163 147
17111 142
18861 90
31428 20
32519 146
486 35
1076 35
4133 35
9063 42
10846 50
12309 35
18237 17
19166 115
23527 64
24625 19
24826 52
25330 35
2075 79
5363 48
5793 79
6179 79
8729 100
14728 105
19105 93
20550 4
21161 79
22460 42
26240 79
488 80
4799 130
7850 79
13176 80
21485 80
22663 65
23455 92
24513 80
27192 24
27359 75
28982 80
29060 80
30048 80
31079 80
489 24
1650 14
2387 145
6216 24
9945 24
16326 130
22258 34
27111 24
27239 24
31760 24
34256 81
490 2
4701 63
9071 100
12329 138
14887 83
18397 88
27470 2
29234 117
30955 2
33575 2
33989 142
491 86
1308 81
7376 86
14837 150
15081 86
22719 86
26971 144
30414 47
31133 86
32596 115
33365 86
492 29
7493 66
15250 123
17161 29
22299 29
24022 126
25381 119
29891 29
33065 63
33921 38
493 80
12343 80
12775 40
15222 95
16948 35
20371 80
21302 87
23702 80
24043 80
26319 35
34108 80
494 13
7117 13
7436 39
10392 13
10783 43
11898 13
12241 44
19203 120
24424 145
31356 13
32525 98
2129 33
8626 99
9298 133
11440 33
12440 33
13362 53
16120 45
17315 147
18246 106
19084 33
21840 33
27586 21
32483 33
9177 34
11543 108
16036 34
21546 58
32902 46
497 49
4411 49
5112 43
6875 49
6943 49
7952 49
9674 49
15279 42
21897 80
28170 79
31117 78
32507 49
34314 133
498 79
11662 123
12407 79
13669 79
14829 105
20710 32
21731 38
24241 79
28059 79
28277 13
33876 79
34028 119
499 124
922 75
10609 142
11009 124
11014 134
18536 118
26778 6
27726 124
29059 70
33878 124
34335 124
500 138
3532 40
13247 61
14804 138
19594 138
20361 138
31660 67
33206 100
33224 127
501 109
8146 106
9125 109
12956 109
17743 114
20898 73
22565 109
26135 25
27670 109
27869 17
31769 150
32349 109
32834 109
3117 106
3756 141
7648 141
19754 71
21466 141
23813 141
24859 101
29782 141
31939 126
5337 2
9762 128
13288 2
24555 71
25325 31
28645 24
31897 2
31930 2
34363 2
504 28
542 28
6178 52
8629 28
10099 28
18136 28
19887 116
27173 143
28122 112
28915 130
30097 23
505 2
3534 38
10288 2
17662 2
20166 2
20496 135
26073 115
26273 67
26792 83
31300 2
31862 123
34036 110
506 80
7950 50
16906 80
23444 49
25996 60
28511 80
28637 122
30326 80
32465 12
5438 68
17430 103
20324 64
20663 103
23987 80
26098 65
27113 103
27893 117
29259 7
29526 48
30886 103
31925 103
508 24
5865 24
7449 46
10759 24
12175 133
13583 24
15937 120
17629 94
20285 16
22774 24
25298 24
26702 13
29177 122
31807 78
34390 96
509 57
2913 30
3452 30
8599 81
12128 77
16122 136
17574 57
26223 57
26315 121
32925 57
510 90
2316 71
13383 90
13434 90
18364 117
18489 90
19055 70
23789 90
25635 90
27858 90
32869 90
511 43
1149 38
6798 86
7856 43
12495 43
18488 43
26582 43
27738 125
29244 43
31018 14
32357 42
34252 43
512 135
4353 135
4779 124
8527 119
10843 135
11013 93
15639 79
16070 135
21425 103
24217 135
25870 40
26974 135
27675 42
30015 135
513 28
1100 63
6198 112
6847 93
8065 28
17487 9
19727 28
20131 9
22056 139
22960 28
24365 28
28549 28
30982 64
514 47
4072 47
8158 47
9629 47
9980 130
10103 145
14225 66
14489 116
22332 47
25604 112
28215 64
28450 47
28878 150
34059 124
34235 87
34438 47
815 20
15707 20
16509 124
24361 20
27116 20
32309 20
34077 20
516 1
6588 56
6604 1
12488 37
15523 6
17199 1
18992 1
19546 33
24708 10
27088 148
29088 32
31277 109
32806 127
517 77
1074 77
2373 86
2947 77
8831 59
18021 141
18955 77
24032 43
24663 77
24839 86
32370 81
33845 77
518 75
1017 75
2501 75
5137 50
5206 99
5932 75
8561 50
11908 15
13791 75
16689 75
32511 2
32602 75
34086 11
519 135
711 135
10309 135
13588 28
16593 140
19892 48
20026 135
25329 49
31162 26
31190 135
34484 82
520 79
8182 79
12484 79
16899 79
19755 29
20748 70
21530 70
22854 79
29135 65
521 90
592 73
2776 70
10305 78
13426 44
13642 90
16866 90
16968 3
17818 126
23201 93
29934 90
29991 105
32260 95
33593 90
13908 129
14381 135
18664 5
25570 129
26209 129
30808 32
31063 122
32147 129
33865 129
523 145
4173 145
13133 2
14404 145
15202 145
15565 63
16706 145
23997 60
28343 77
28786 26
28799 104
524 73
6473 73
8904 124
11182 112
12751 73
15108 73
19354 73
26131 65
29767 73
30487 73
34001 35
34328 73
525 139
1320 139
8186 139
8328 139
10888 139
11668 8
18206 116
20112 139
20396 80
23025 78
23080 35
29459 81
32594 61
33095 139
2520 29
5404 74
6142 4
16695 18
18565 18
18823 114
19158 70
22236 18
25064 18
25994 72
30889 18
31773 18
34189 18
527 136
1830 71
5613 53
16152 31
18552 136
22864 136
24906 47
27337 32
29624 136
30020 136
30081 136
31312 39
32014 21
32210 11
34258 136
528 13
7342 137
11536 58
16384 66
21275 13
21500 13
25324 13
25742 96
26559 98
27718 13
29119 87
31580 79
529 4
2517 4
7942 4
15630 116
20126 148
20478 11
21898 4
22990 4
23739 41
28138 8
28315 4
30855 4
32575 16
530 13
4714 23
6508 70
13635 137
27233 7
28808 13
29152 54
30300 131
32561 82
33695 13
531 138
20796 150
26350 27
28116 138
28634 138
30707 22
30993 138
31259 73
31268 138
31838 138
1976 76
5904 76
11423 141
14716 145
18085 76
21354 76
24939 76
28688 90
32124 76
32342 108
32447 76
32629 88
533 58
872 51
8770 52
15806 24
17809 58
18490 126
19125 30
22918 16
23929 145
26008 58
29599 58
30260 58
33011 88
534 66
5168 89
7025 66
7912 66
16079 135
17108 66
19936 136
20657 66
22361 130
23499 66
26833 66
30344 37
33970 149
34099 66
535 28
10964 28
23731 83
25893 145
28423 28
28480 28
33530 103
33573 28
33634 58
536 62
4040 147
7344 14
10032 5
11492 62
16785 62
17083 54
27914 13
28153 54
32127 121
32386 62
34013 92
537 101
736 101
9798 101
13935 101
15661 101
19083 101
20212 73
20820 62
21413 30
23599 124
23857 87
25527 73
29541 121
31844 19
33281 79
34172 101
538 60
3884 102
4244 60
6857 7
9284 60
15955 60
20589 60
22470 26
23711 87
27780 60
29593 1
31254 116
31667 40
33811 5
539 150
3543 79
6832 4
8081 14
13704 150
18119 150
18932 150
24652 150
26196 103
30361 23
30709 150
31618 150
32996 65
540 126
556 117
2539 128
2974 126
5488 126
7307 96
8813 114
12571 101
14184 54
17376 102
18966 126
19023 126
23301 85
28171 126
541 131
951 37
1372 102
1744 131
4144 131
7256 0
10053 51
15062 131
18109 131
18513 112
26939 131
27367 125
30916 131
32149 2
3042 69
5037 51
6184 28
8672 59
15510 28
15812 115
17714 56
24366 118
25659 28
29900 28
31515 28
543 29
8023 41
12682 5
13380 53
23880 29
31716 22
33625 105
544 146
1936 72
2562 92
14926 146
17076 12
17362 146
23056 146
25347 123
27678 118
30423 146
31806 146
545 50
8162 93
13069 50
13193 50
16400 50
17150 82
19797 119
23084 59
25185 50
28995 50
30284 50
31931 7
32374 18
33906 102
34514 50
546 95
4222 95
6448 95
13954 72
20259 95
26948 95
27982 46
30108 95
32811 95
33143 28
547 36
2150 66
3226 50
5103 36
7416 91
8106 46
17036 64
20420 36
22066 137
22777 36
22820 111
28199 36
28263 36
29160 64
548 59
4054 61
11793 18
12457 59
17492 1
19164 104
22778 59
25610 68
27832 59
28393 151
34058 59
6791 143
11185 136
11325 122
15077 103
15884 124
16731 38
19200 72
24531 136
7183 90
12222 49
12887 49
13003 121
16174 29
17549 19
22748 49
26064 49
26316 49
28346 93
28899 49
31827 3
33478 130
33500 49
551 117
2237 117
8546 73
10806 109
14203 113
19009 117
21873 141
22818 117
30750 145
30868 117
31143 117
31963 88
34000 117
7185 150
10803 28
13534 81
14346 150
17377 121
20822 150
27794 150
28433 48
29185 109
31029 79
32546 135
34153 101
553 100
3880 142
4974 46
10275 100
13190 8
17706 136
19045 71
19506 104
21495 100
21965 103
24464 100
32121 100
33543 127
554 94
2349 43
7356 45
8522 35
10046 94
14045 94
15224 94
15239 131
22916 94
23057 140
27179 70
30170 68
31059 74
33736 94
3811 73
5183 137
10067 73
13175 111
16147 118
21141 73
22117 73
26068 73
31609 64
33548 73
34140 59
34488 52
863 112
2141 103
11937 83
14068 117
16219 34
17808 122
21062 150
28401 117
1910 69
4088 122
6498 59
6596 15
10318 122
11128 4
11352 122
22176 122
27256 122
28206 34
28522 146
29161 26
29904 94
30002 122
30137 122
558 100
1706 80
3090 100
13821 100
17255 145
21436 46
23087 68
28208 100
29312 100
29343 100
29598 140
30090 86
31814 105
32377 80
32568 116
12174 73
13315 26
13328 59
17807 123
18725 2
21782 42
24068 59
31276 59
31729 113
32738 28
33320 91
560 14
3049 14
10912 58
11278 53
11348 14
15824 14
15878 14
16558 134
17238 144
20627 14
28205 14
29283 14
561 127
4717 85
6687 55
13223 127
15545 145
17318 36
17498 127
18387 127
20393 133
23253 127
24095 114
25037 148
32649 2
33751 127
34146 30
562 92
3482 92
4831 92
6193 51
9209 97
14727 2
16668 97
18794 92
20763 125
21785 92
28061 74
29716 92
33279 53
563 37
2362 37
8792 37
9846 92
10751 106
11931 37
14930 82
16138 37
20329 38
25645 37
29432 81
31060 132
31365 132
32440 90
564 25
1987 25
8825 25
11823 129
13355 25
13465 25
21563 63
24575 25
26019 70
27637 25
31916 136
565 110
10758 7
12382 53
13125 110
15210 140
19412 110
21035 28
26930 49
29686 110
31424 110
33030 110
33243 110
33522 19
566 23
2787 143
3620 23
5997 115
8307 22
17046 25
25974 105
26487 23
26636 23
28919 23
30967 23
33042 23
567 5
7168 90
7898 5
17160 122
18777 117
20174 5
22937 6
24224 73
24889 5
26394 26
26448 5
33696 9
33971 105
568 99
2152 99
3720 70
6692 52
10234 80
15835 45
19487 111
19732 52
23748 139
25931 64
30645 99
31390 99
32864 99
569 136
1773 136
9076 141
10770 104
12004 41
14506 146
19420 110
22825 42
25344 136
33806 24
10608 107
10950 61
11438 32
11688 48
14594 146
21734 146
34202 146
34239 131
2383 99
4957 49
6738 131
7208 138
14092 151
17659 49
17811 49
17885 49
19562 31
22363 129
24276 49
26849 145
28567 49
702 143
1339 131
7902 143
13609 87
14885 143
15249 135
23026 102
25174 143
25393 143
29488 143
30465 9
31765 38
33713 37
573 124
6569 124
14847 124
21006 81
24484 124
24903 30
26662 124
28152 124
31421 88
31599 90
34067 121
9319 34
10441 36
11634 36
14659 93
20993 36
25775 119
28388 68
28890 135
30541 100
575 15
4479 15
6743 106
9390 15
9754 15
10816 54
14146 96
22055 82
24030 120
24869 15
25531 141
33220 9
34309 15
1810 137
6761 66
10701 109
10844 137
12785 137
18800 23
20616 26
20733 34
27679 137
577 80
4036 124
6110 80
7716 80
12195 70
12330 80
16322 80
17486 80
17602 112
24738 95
27537 80
33885 65
578 81
7362 81
7673 10
11944 24
13287 55
21615 110
22415 30
22870 81
9639 39
10527 54
12102 2
17630 27
23653 27
24448 27
27953 5
30544 27
31636 27
31789 63
33260 99
34217 27
580 38
4769 72
5540 27
8123 38
12311 79
16780 38
27061 3
27139 38
28097 49
29440 38
30612 84
30723 112
581 15
1891 15
8087 54
8751 70
10387 15
10924 15
10977 15
16082 49
28518 30
29145 33
34087 110
582 4
6290 4
9317 4
11164 4
12063 46
15873 98
16880 13
18033 4
21437 108
22983 46
23629 3
31266 4
31479 109
32183 4
583 101
3584 32
4230 38
6563 101
11029 143
15110 92
15669 76
16357 101
20264 101
20534 101
27694 76
28990 101
33064 98
33384 3
584 55
4360 55
5199 52
5381 53
11802 19
13644 53
15373 110
16946 55
23315 3
23507 67
23783 55
25183 130
32666 55
34169 55
585 58
3048 64
12366 101
14900 14
20184 58
20928 137
21544 58
23621 58
24103 58
27458 124
30164 88
31828 58
34048 61
34268 105
586 122
1476 110
2792 122
8964 122
9739 124
11085 91
14572 122
17409 62
17881 122
25535 101
29951 122
31907 28
32590 122
34391 34
587 47
6089 47
6234 63
11967 47
15138 3
17034 63
18310 100
19365 47
27731 47
32655 149
588 23
3313 145
8728 134
13200 23
16006 49
16574 119
17614 23
17738 44
19541 23
22008 23
26336 97
29468 23
31346 90
589 124
6248 7
9463 124
14708 131
21973 11
24251 124
27410 124
28440 109
29956 28
31115 124
34034 119
4500 108
8501 106
9191 130
12683 108
14017 95
16221 99
17092 53
23300 70
27975 118
29187 108
29691 27
591 89
1098 83
1243 89
3228 53
4213 89
6059 4
11217 89
14322 89
15927 89
18007 22
27856 89
28341 59
28410 139
32026 134
33761 89
1400 10
2012 73
3292 70
6690 73
16512 54
20225 14
28887 123
31859 69
32060 73
32631 73
33250 73
593 37
2545 37
9797 136
12996 37
19756 136
23710 37
27666 108
29097 71
31482 5
33502 76
33818 37
594 110
8250 110
16263 110
18354 47
22210 110
22476 143
23450 70
24079 110
27033 7
27306 110
29026 110
29717 31
34107 68
595 122
4130 122
5922 131
6487 27
9082 122
14104 122
19924 21
20624 122
23012 47
24274 122
25757 122
26497 97
26820 119
31088 105
596 93
6917 58
21871 93
22028 93
23346 87
29838 93
30387 138
30491 93
33355 93
33684 75
33698 95
34186 12
597 112
1927 112
10088 94
14680 112
22036 112
22314 24
28654 112
29151 112
29420 106
33476 112
598 135
4887 135
5586 135
10314 135
15971 111
17427 135
22911 135
24757 20
26326 135
26569 147
30252 83
599 120
2416 120
3741 120
7434 135
9635 56
15099 117
20417 120
22323 117
22868 24
28819 120
29739 63
15315 46
16178 46
21270 48
26328 59
31522 92
31826 57
32475 46
34410 73
601 5
1966 91
3026 5
5954 5
13923 5
14012 147
16765 94
16972 123
20799 5
24604 5
25758 5
26254 15
26972 91
28938 27
29230 5
33375 123
602 131
3379 99
5828 15
8575 1
14278 131
20509 131
28223 144
29118 123
30817 147
32851 131
33188 93
34032 131
603 56
9662 114
14335 56
15860 25
17840 56
20988 56
22500 10
24641 12
25625 56
28535 56
30173 93
32021 137
32079 67
34097 64
604 117
1739 73
1742 99
10127 117
12244 117
15441 8
15816 117
16827 117
22635 53
23645 117
32540 55
33567 28
605 7
4627 15
5835 7
12125 7
13519 23
14878 7
18222 141
30448 7
31353 42
32275 136
32276 0
34181 7
606 84
4301 84
5955 7
10847 144
18030 41
18296 91
20853 23
21417 92
27654 98
29889 84
32327 8
607 109
2985 21
3823 109
7654 109
8974 77
9986 109
12811 108
19188 129
19204 29
19340 109
25332 93
27754 109
28999 87
31096 48
608 66
7250 66
11465 66
12293 129
14587 66
20248 66
24722 57
28885 27
30348 7
32061 133
32213 37
33480 0
609 17
4043 53
9653 17
9903 13
16604 151
19595 8
20505 100
25497 113
31053 17
33521 76
610 134
1222 134
2156 103
14569 147
14642 134
19285 5
20606 134
24693 47
25644 13
27522 151
28732 68
29325 134
30366 134
31810 106
33369 52
611 133
5799 104
6392 19
11361 119
14595 101
19935 133
22273 133
24852 68
27228 9
29148 30
29360 133
30063 131
32334 133
612 120
3729 19
6317 120
10538 65
10835 135
11196 116
21237 120
22254 63
24626 15
29536 120
32081 120
613 144
949 25
2144 144
3695 144
12896 129
15021 150
17774 31
18714 99
25382 111
26277 27
27336 144
27374 144
30568 104
31311 144
32668 144
33198 144
614 115
3068 140
8480 78
12123 115
20570 140
23184 115
23584 65
24893 35
26065 15
29433 14
31052 115
31455 135
31980 115
33183 115
33518 115
615 120
1403 121
2025 120
4976 120
6116 91
25735 120
27514 120
27664 17
30947 92
32267 134
33465 120
616 124
1262 124
4044 124
8562 124
13467 124
19263 128
21123 124
23049 81
26538 54
30888 147
30927 82
30979 110
617 15
2598 9
10651 96
11379 150
12180 25
14106 110
19147 15
21774 15
25675 15
27551 40
34482 126
618 34
6121 34
14148 21
14200 151
14920 35
17203 85
18095 34
18920 34
21115 34
25249 137
27829 34
29180 30
30706 44
32182 34
33978 104
619 12
1554 12
2709 28
5342 101
17266 131
20608 12
22486 12
26983 52
31166 12
31546 12
32528 78
620 75
4166 130
6858 5
15756 66
18505 75
23151 75
24593 75
28932 111
29212 47
29770 104
30175 75
32166 75
32702 81
33364 75
621 91
4939 91
16633 48
17513 91
18179 26
21507 28
22408 91
22988 91
25803 25
27423 135
31641 91
33359 87
33838 91
622 125
6288 125
9202 125
11391 119
11958 125
12081 133
21426 136
21573 110
26760 125
29295 50
30871 125
31780 19
623 30
3148 10
3377 95
10433 30
19736 41
21520 119
23706 117
23738 95
25372 5
26051 2
30867 68
32185 30
32804 30
624 87
1147 31
4476 87
7718 63
8528 87
9853 100
24703 127
25214 87
26602 115
32066 87
625 17
8997 35
10699 17
14549 122
15797 87
15911 54
16903 17
20536 105
21041 121
22246 17
24996 22
27286 17
31757 22
626 62
1286 62
5354 46
10702 62
12492 62
17243 0
26372 4
26755 151
30420 14
33986 52
10201 90
13056 145
22662 110
23217 73
27865 110
30087 111
33600 47
33653 130
628 28
3801 130
6952 141
11509 28
13574 15
13866 62
13965 28
21105 28
23635 83
27680 28
31689 101
31975 28
33579 28
629 133
1278 109
2116 133
3542 133
3730 133
6493 83
7161 21
8321 126
10116 133
15018 133
15998 81
27945 61
30458 14
33929 10
630 102
10397 102
15667 67
15712 102
24989 13
25522 102
25922 102
26671 94
28221 98
28756 102
32496 49
631 93
1527 93
11036 65
12832 93
15578 150
18088 71
18711 9
18885 93
21336 93
21339 93
22428 93
22543 122
24451 99
33602 27
9312 123
10096 104
11920 104
21145 14
29193 104
30336 59
30802 46
31303 104
8416 65
8476 65
13129 101
14014 126
14178 11
14985 65
22581 65
34408 65
634 20
2314 75
6664 20
6887 71
11421 20
13324 20
14019 16
14933 20
16171 61
17052 20
19659 34
24313 20
26257 20
29103 38
635 111
2375 79
9237 111
9832 113
12830 101
12908 123
13374 99
16387 111
16424 80
19330 111
25208 1
25581 111
29396 111
31082 111
636 99
2987 99
16505 60
22944 132
26810 99
27555 99
28691 96
30919 107
31388 26
32132 67
33274 2
33553 99
637 18
6913 55
10415 18
11982 38
13892 18
14490 89
19833 16
31294 18
31893 11
32810 18
32963 18
638 28
4797 65
5022 138
11780 28
16075 28
20379 28
21917 28
27927 118
28572 28
29003 91
30237 106
34418 4
10476 74
11385 27
14218 14
16135 27
16302 27
16426 82
16977 120
20208 28
21073 27
24756 27
28162 55
32241 143
640 26
4597 144
5874 26
8766 27
9426 26
9700 26
15536 4
21672 86
22943 26
24954 18
28686 37
30893 65
31645 26
32501 26
641 29
6803 13
20424 82
20761 29
22247 123
27254 145
27873 29
28144 2
30883 29
32039 56
32673 29
642 2
3591 2
8200 98
11615 24
20032 33
21476 2
21634 26
27965 88
32954 2
33748 2
643 100
994 133
5525 35
7297 100
9979 100
10861 31
13487 104
25369 100
26096 71
26293 27
32324 82
644 30
899 19
2023 30
3230 14
5768 30
9469 30
23807 8
24827 98
25526 61
26286 30
27164 30
28056 30
29643 100
33180 101
33571 12
645 106
11711 116
15119 106
18347 89
22006 106
23092 86
27676 106
28169 106
28744 51
30056 105
31915 7
32802 52
646 109
1996 52
2859 109
5149 109
6865 109
13518 109
19498 48
26345 83
28395 109
31520 109
31554 89
32669 14
33462 140
647 89
3353 89
9444 37
9622 143
9969 89
14935 50
20862 89
21574 27
25044 21
26417 130
30238 151
31463 89
648 135
5390 57
6476 135
23060 104
25830 91
26786 125
30584 135
30845 148
649 18
1982 18
11926 18
12513 12
16971 18
23524 18
24166 49
28675 18
30303 125
32676 18
33046 93
650 145
1599 114
4424 145
8847 62
9061 145
9538 145
12805 140
14447 34
15041 145
15734 100
20170 145
28397 145
28614 73
31000 138
31886 145
33691 125
651 143
6544 142
10233 143
14498 70
15274 143
17863 143
18875 90
21612 1
27025 143
28363 26
29949 143
31296 69
652 54
2453 111
3487 54
5319 100
8288 54
11475 54
12369 54
14245 40
17310 62
17490 67
20541 79
22061 108
24506 33
32190 54
34205 38
653 148
810 148
8115 13
11373 148
11759 136
17726 11
18594 148
20020 105
24254 148
24399 94
25181 12
26938 148
654 56
3814 10
5303 56
8015 43
10565 137
10599 56
18126 79
20706 136
21934 56
22295 56
26872 92
30997 56
33084 56
655 7
5705 112
8660 7
13839 4
18349 5
21683 7
25137 46
25866 7
29223 88
31537 80
656 74
1410 124
5050 74
10021 7
10087 74
11925 51
14173 125
17755 53
24074 48
31993 74
32832 74
657 106
3475 106
4315 106
6868 106
7946 106
8516 106
12515 47
13715 128
16097 63
19764 20
21225 27
27294 106
27383 106
28239 23
658 33
7839 46
8337 33
13460 115
13762 46
14123 16
21545 122
22985 67
29625 140
30629 33
33368 33
659 78
991 78
1639 88
2624 78
3578 78
5528 78
19548 33
26831 115
27372 78
28023 78
28074 78
34417 40
660 81
1508 17
12264 99
14427 99
15894 141
20759 81
25092 23
26292 81
26699 53
32423 130
33014 81
34125 81
661 29
5280 23
7876 44
10362 29
10901 29
11356 27
17757 29
19830 130
21595 25
26666 21
31525 22
34320 119
34333 29
662 99
2095 99
3336 23
10149 42
12073 126
19265 110
24986 99
26644 137
27147 99
29057 28
31822 12
663 86
3958 86
8211 40
14590 76
16802 20
20926 55
22000 53
25734 7
27020 86
30331 86
31015 130
33327 86
33443 86
34019 21
664 40
2264 146
4520 40
13343 40
15635 101
16708 130
17231 58
19038 123
20680 40
25328 51
26650 99
28164 40
28810 40
665 60
929 60
2697 76
3549 7
21503 63
23446 60
28940 92
30162 60
30235 60
30411 21
666 97
3621 113
4948 138
5641 97
13072 79
16296 107
21450 97
22272 97
23980 139
667 134
1882 134
5276 144
8417 134
18730 134
23357 91
27662 134
29547 134
29579 134
30546 9
31573 95
668 126
2819 126
5845 114
8280 16
13485 149
13868 126
15893 126
16846 125
17947 126
20984 55
25946 126
27770 126
29877 126
32235 24
33412 105
669 43
6092 43
9731 43
9831 131
14607 68
14906 43
24401 113
24861 40
29293 43
29638 40
32639 98
32943 88
670 135
4001 105
6581 31
6941 135
8276 2
8869 125
9420 35
11791 135
15207 135
23242 70
26805 135
31032 75
31804 125
32760 135
671 85
7324 21
7388 105
8473 73
13882 66
14624 142
16127 85
16618 8
17156 85
23194 85
30165 111
31197 41
32512 85
33184 85
33611 85
672 84
1022 99
1906 129
8903 24
9863 84
11577 84
11779 84
18158 33
21303 150
22191 84
30795 27
33301 34
673 81
1153 120
4020 81
8058 109
20138 13
25282 140
27278 121
27344 46
27952 81
29008 70
33347 81
674 52
1825 57
2663 145
3362 58
6723 52
10809 52
12612 63
21118 52
22133 101
27643 38
30468 148
10181 40
13412 115
16850 40
23638 142
8361 20
11305 94
13360 17
13796 36
15157 36
15640 142
18870 10
27511 77
31739 48
33592 4
677 15
13312 62
14462 29
14963 98
15328 15
18539 15
19796 131
23754 15
23842 98
28947 15
32300 15
32662 20
32971 147
33791 131
3831 36
7592 92
11936 36
19980 151
20422 36
24526 50
28103 139
32509 135
6185 89
10797 100
14403 133
25312 124
28543 5
31315 25
33165 89
680 125
4583 125
4773 137
11175 125
11891 125
12465 125
12934 97
24508 149
24674 75
28444 92
30726 98
33862 26
681 95
2238 48
4533 19
10328 95
12028 95
14308 119
16257 95
25586 49
27740 138
28718 54
33501 95
682 95
11513 95
16893 53
16900 95
18687 12
25429 26
26492 95
29674 95
34135 58
2290 88
5592 47
12528 90
16086 90
16504 66
18902 87
23451 1
24275 90
25101 67
32435 90
32976 58
33121 90
684 142
5385 81
7759 128
9672 131
18548 142
23291 142
23928 142
24134 142
26147 142
33453 147
33775 142
685 50
2179 50
2438 87
6505 126
19516 66
22003 50
22257 87
24715 99
25764 50
28126 50
31718 50
32942 138
34231 75
686 46
2699 65
6964 46
10369 46
11971 34
12980 134
18603 5
22509 61
22526 67
24073 46
24679 46
26900 48
27589 8
33479 78
687 71
3581 71
8541 71
10606 71
14602 38
15023 71
15272 1
19899 95
20090 19
22754 141
28288 71
29366 71
32642 56
688 89
6071 138
6272 89
7685 89
8520 89
8529 27
12877 89
14401 89
17491 89
20188 148
24752 134
25333 19
689 54
942 54
1981 54
12790 54
13280 110
16065 16
18924 81
19344 2
23953 54
25062 101
690 0
3039 129
3593 0
4214 100
11731 0
14532 0
16010 80
20010 145
27385 63
28647 73
29465 14
29602 0
691 111
11340 87
11684 111
12200 56
15368 13
16459 111
16929 56
19352 111
28297 111
29216 31
30604 106
33484 111
33572 1
692 151
14792 133
15887 151
18980 74
22181 41
22498 151
22672 50
22751 151
23304 112
25692 151
29842 151
29860 4
30232 151
693 83
2470 9
2507 1
7848 83
9530 83
17718 133
27903 79
29224 33
30594 133
30757 83
30992 48
31534 83
33591 73
34051 83
694 76
6655 76
9898 76
13620 76
16121 26
17067 27
17408 144
19787 114
26645 76
28204 76
28243 138
28596 20
29508 60
31154 76
31865 69
33117 76
695 50
1893 148
2262 16
3943 50
6540 50
7692 105
9255 50
12557 68
19857 50
25799 22
29121 56
30334 86
30535 53
696 65
4372 146
9411 39
11346 65
14379 98
16262 11
23612 59
28174 65
29804 65
29850 65
31252 126
697 12
1918 109
2861 12
4193 12
10444 12
17432 27
23296 134
24919 84
25302 59
29614 12
29622 138
698 31
1567 105
3171 31
3956 109
19287 80
22235 78
24748 31
25770 99
27253 38
28377 79
29571 31
29774 31
29995 31
33295 43
33930 31
699 4
2996 61
9434 4
12071 70
12160 4
13944 54
20106 79
21896 4
25877 4
31008 102
31299 4
33200 33
700 104
2106 104
4892 6
18706 104
21393 40
26169 60
26294 22
28279 104
34458 140
701 14
2586 5
3555 112
16507 48
19682 14
20709 115
23734 43
24398 14
25327 129
26812 14
27213 142
30741 100
33147 14
33742 104
2260 68
2802 142
7615 143
8008 143
11448 143
13089 43
14291 143
15686 146
19893 143
23040 6
25956 98
703 84
1152 84
2984 84
4257 84
5318 84
6131 112
9001 84
11824 2
20757 84
23835 104
24577 37
26106 143
704 106
3380 106
10593 47
11853 91
17433 106
25998 106
29559 106
30248 126
32826 43
32828 122
705 23
1713 108
4187 22
5956 109
11875 23
12038 122
15697 15
17334 110
25951 23
30674 140
31385 104
31555 96
33133 76
706 50
10813 141
13705 50
14234 50
15933 39
18186 124
25599 93
32772 67
33195 50
34213 115
34492 50
707 115
1177 59
2486 150
8815 115
14147 115
16048 115
24997 46
25724 52
27370 81
28387 115
28961 115
29971 115
30681 115
33139 143
1546 23
4798 88
5348 114
8881 10
10391 95
16536 99
17058 10
20876 10
22397 47
24631 89
33409 10
709 53
4661 40
7652 137
10921 53
11605 24
14477 59
18210 53
18841 63
21147 53
29575 53
30445 53
32364 25
32637 38
32713 117
710 5
6369 5
11336 5
17180 137
18048 5
20341 56
21961 117
24798 5
25940 87
26985 122
31318 5
4241 135
7196 107
11046 135
13297 79
16105 135
18041 135
19721 129
23123 48
27823 128
28256 108
712 26
1111 149
9748 151
12910 26
15060 144
16492 41
26703 19
28399 26
28922 133
32886 26
33644 26
33874 26
713 28
2604 75
14585 37
15589 108
16692 28
19465 138
28120 28
28404 28
29016 145
29797 117
31091 58
31402 28
714 137
1402 137
5395 123
9625 41
10376 137
13571 7
13707 101
24191 89
28085 60
28833 58
715 61
5905 5
6613 61
7245 93
12569 77
13751 61
13837 8
14970 61
16366 88
24105 61
29641 61
34044 61
716 45
2824 45
6501 16
16608 45
18123 45
20116 82
27084 45
27566 109
29642 115
32874 85
717 87
887 84
9528 87
12256 20
17553 87
20798 87
25406 87
26202 87
29174 143
31467 87
32012 54
718 112
1290 112
1808 119
2151 2
2187 3
7413 130
17678 112
18678 112
20286 112
24483 112
24787 112
25070 79
28417 83
719 41
6822 41
8786 41
11118 41
14243 134
14387 41
17262 48
22305 41
22618 41
24085 20
26563 55
33550 102
33910 64
720 113
1125 118
7944 38
8443 118
8753 113
15663 113
17642 70
27850 113
29576 23
29833 113
32005 113
33926 70
34090 113
721 132
1571 119
6998 132
11988 132
14067 74
18202 98
19364 132
32482 132
34294 54
722 1
5604 19
7906 135
9892 118
11689 77
14027 22
21284 81
23555 135
29605 12
33613 1
723 26
1342 26
3218 26
3411 121
6459 91
12163 66
25568 68
26950 115
27897 26
29525 12
32656 26
724 83
3189 110
19485 83
22445 83
22989 83
23359 119
28380 83
28699 83
30010 117
33892 141
1656 10
2021 81
5095 138
14418 0
16002 138
20609 138
25829 137
26543 88
27395 138
28177 138
33875 138
726 79
5031 23
6424 79
9365 79
11384 5
12242 15
22256 139
23615 112
25331 87
29878 79
30144 79
31590 93
33067 7
33710 79
34264 115
727 7
7558 7
13384 7
15823 89
18512 115
24303 7
24979 7
26010 53
27631 69
31202 7
31682 76
728 32
1498 40
5256 53
9042 53
13840 101
20460 32
21635 32
26612 37
30446 32
33268 1
34249 63
729 58
3399 61
3989 143
11739 24
18543 58
21584 58
22122 22
23214 68
28618 63
28817 58
33796 58
34215 43
8921 4
9976 144
13905 48
21112 47
28340 98
28835 18
29141 53
1510 75
4120 49
5948 86
8395 135
23765 86
25622 86
26988 28
27133 79
31229 110
31960 79
732 83
996 108
5596 121
5746 83
15796 83
17783 83
19314 83
20859 24
24873 89
29382 137
32313 65
32547 83
33340 79
33714 76
733 56
4716 136
7657 66
8240 54
11061 15
21971 56
22335 56
24171 56
28866 56
30378 99
11866 62
14614 103
15679 103
15732 114
18057 78
25934 103
27380 148
27714 103
30909 103
32216 103
735 20
5143 129
6195 20
8795 20
17569 60
21180 20
21293 23
23195 149
31500 20
33062 104
34080 20
2341 28
10482 60
14973 101
15374 74
15436 59
22290 101
27619 101
28847 114
31934 119
33196 101
737 10
13158 60
13883 10
18400 10
19986 10
28592 34
32197 121
738 104
3654 49
12866 115
13529 104
13801 91
16967 104
20547 104
20676 128
20727 59
22152 104
24897 104
27523 70
5016 16
19191 151
19928 50
25801 124
33217 50
33451 124
740 2
10398 44
11636 92
13520 82
15464 96
23008 60
23729 2
26764 2
27948 2
29315 2
34137 91
3979 139
5132 8
14259 127
19132 151
28617 122
31750 139
31783 116
742 106
1991 106
14217 125
14825 90
15358 138
21096 150
26911 106
27801 106
28583 77
29073 106
34082 106
743 50
1960 50
1999 88
3297 118
3364 50
3696 50
4882 25
17834 142
21742 50
22998 50
25864 127
26795 10
3977 79
7020 104
9205 15
9718 23
13001 74
13298 104
25774 30
29179 104
30258 104
31730 104
33589 104
745 113
10819 16
14056 113
20694 113
21855 111
24211 113
24215 113
27476 113
29303 71
29537 87
30552 113
30885 113
746 37
7275 6
7305 137
9780 37
12799 3
16740 21
19496 37
22304 37
22625 20
24440 81
24512 37
27515 32
27906 74
31165 37
32049 37
33034 37
747 73
2421 73
3236 63
12190 73
15940 84
23631 130
25074 73
28845 73
31383 108
31920 147
32812 73
34070 73
34236 4
748 75
7149 75
8952 75
9901 75
12530 75
12545 107
15427 75
17388 119
17612 75
21330 81
24337 42
25477 69
27699 106
749 58
3212 37
6312 62
11906 116
13094 58
16007 59
16823 84
17168 58
18256 58
26878 58
30926 58
31037 55
33853 69
750 80
2892 80
2933 24
5817 90
8801 120
11919 80
12672 81
23652 80
24594 80
25250 80
26747 80
32510 82
34346 141
751 50
12730 68
13543 144
16018 20
21238 50
22949 41
23465 50
23532 50
26548 50
28373 135
30028 135
31799 0
33240 25
752 19
6733 19
9078 137
9381 105
12389 101
17385 19
24158 19
27758 20
30689 127
30728 19
33760 30
34241 19
34404 19
753 135
972 7
3693 113
5347 135
9304 135
10947 135
17944 135
21149 71
22014 143
24583 22
30069 135
32173 64
754 79
895 79
4243 85
6539 91
19092 148
21217 11
25789 79
27225 79
27620 57
30614 79
30972 102
34021 58
2200 35
14158 142
15695 35
17023 141
17677 35
19002 35
24010 100
27808 120
32116 88
756 141
3671 141
10656 85
20408 141
23328 141
23488 141
23874 87
24041 66
26086 98
30138 141
757 117
1568 50
9257 117
9802 106
9887 117
10449 99
14769 12
15038 65
26788 114
27628 16
28300 97
30840 117
31131 117
31788 117
1001 79
20150 59
25151 79
25341 139
25618 79
26203 72
28112 102
30030 138
31748 79
32552 79
759 146
4451 146
9241 146
15845 120
19617 138
20907 62
21586 146
22306 85
23283 85
27750 128
28545 146
31270 146
760 28
7610 104
7807 28
11267 21
11586 28
13112 28
28378 28
29395 149
31684 23
31741 85
761 131
2358 59
7596 136
11550 131
15071 147
16437 131
21845 131
23343 141
24573 39
32979 117
33717 131
762 48
5114 69
7274 48
8586 107
12901 48
17844 139
21182 98
28791 49
32084 48
32174 115
763 37
7922 37
8912 125
11596 76
16404 37
17878 37
19782 37
24271 37
27516 37
27618 121
29555 68
29763 106
30573 77
32553 37
764 84
7349 75
8606 84
9560 93
9859 84
18014 84
19684 142
20450 84
24268 145
26846 45
34012 150
765 5
5686 13
6306 3
9348 5
11206 5
13159 5
14396 7
18051 5
18845 44
27786 129
30409 5
31351 5
33499 104
33998 113
766 140
775 140
3807 130
4636 12
15988 84
17573 140
24279 140
24570 105
26074 86
26926 117
28584 110
32625 29
767 29
1062 38
11418 51
11431 56
16576 29
26675 123
29231 72
32437 29
33333 82
768 10
5564 57
6293 10
6404 10
8685 99
10051 24
10262 10
22935 149
24379 10
25831 116
28983 40
31212 10
769 5
1026 56
4419 45
6965 5
7410 5
8235 0
8315 5
14297 116
16810 5
18241 5
28412 95
31062 99
31067 25
32317 5
770 82
4893 148
9978 82
14514 31
21809 82
22371 137
23486 82
28308 37
28957 82
30372 82
31009 13
31010 90
33697 82
771 109
1181 105
9229 109
11575 109
12145 98
12461 41
15165 109
20019 109
20882 109
31587 130
772 12
1129 20
17283 12
17937 99
21837 121
26478 29
27757 81
28028 85
29532 12
34118 12
773 29
6651 35
7504 20
22906 133
24739 29
26851 29
29203 120
30539 29
31674 29
31878 23
33063 144
774 83
806 83
1580 39
6262 83
8190 103
10557 83
25022 83
30203 58
31291 126
2376 140
13933 140
17193 52
19130 89
21991 107
22148 2
25145 15
27175 140
31498 135
31712 140
31836 124
32169 140
33671 140
34045 119
776 132
7367 132
10272 38
14536 147
16320 102
20364 132
28488 112
28505 109
31496 132
31532 132
32868 0
33699 132
777 142
6243 142
7568 142
8602 124
18447 142
21024 142
21728 89
24293 63
27414 142
27947 142
32264 142
778 121
990 65
3361 52
4545 121
5304 121
6090 61
6565 143
6667 121
27046 121
28841 1
30624 98
32526 68
779 53
6418 53
6735 74
8198 125
9260 82
12746 53
23982 53
27024 122
31820 35
780 52
11074 45
11631 102
14863 70
23490 52
24916 139
26007 52
26491 121
31708 52
781 149
5167 149
6203 149
8973 78
9219 62
13171 149
20228 149
22606 131
26708 149
31947 137
31983 105
34017 54
16308 102
17164 30
18353 67
23104 133
27161 56
27610 135
28738 56
31256 117
32389 56
33475 56
34106 133
783 30
7576 65
8727 132
21613 30
27030 30
29886 30
30811 59
31794 30
33214 17
33396 117
784 86
5767 89
7878 122
10515 86
27739 86
28768 102
29887 82
34344 86
785 34
9442 26
12944 71
13809 34
14000 34
14193 95
15595 106
21202 127
21582 34
22309 130
28709 34
29540 103
3422 5
5148 86
5413 131
6442 86
9000 48
14947 86
16367 86
19573 0
30653 86
32227 143
33979 113
787 15
2468 110
4783 86
8717 15
12912 15
22380 21
24651 69
28695 96
29075 15
32920 38
788 120
8607 95
12422 17
12838 11
13424 125
14851 120
18032 151
19011 120
21452 120
23759 120
24318 27
30359 70
31728 120
32765 95
34426 9
789 27
3438 115
5710 27
6183 27
11746 27
15382 54
18799 11
23664 27
24944 27
33131 112
790 95
8726 95
10209 139
11219 40
12362 30
16856 95
19635 95
22070 95
24084 145
24380 96
26199 146
27095 53
31800 95
32835 95
791 143
4514 143
4895 143
6375 45
8855 20
10180 145
14830 143
23408 42
24139 143
24559 143
28107 143
34220 91
792 135
8472 99
11774 135
17151 143
17891 135
18634 135
21410 120
22203 1
22546 135
23825 135
26144 7
26192 19
28464 125
28559 148
793 85
1958 85
7603 62
8991 85
9332 85
20079 72
25285 142
25891 85
30766 40
794 49
5170 97
7719 49
8326 49
16527 119
22375 99
24377 46
24450 33
24501 125
25845 59
30745 99
33223 49
33987 49
34305 49
795 60
2073 60
3530 148
13148 60
15656 53
16363 62
21986 60
25251 97
27198 109
30776 60
31490 60
796 55
7633 55
8750 140
8755 55
15395 136
24283 124
24542 55
28093 3
30483 9
31523 55
32418 146
33810 55
797 115
4143 115
7186 73
21113 115
26736 77
29489 115
31314 113
31387 2
34115 115
798 50
3785 48
9772 50
12211 50
17605 86
23598 50
24930 50
29556 50
29820 51
32742 105
32975 100
34524 130
799 4
1750 13
2607 4
24107 74
25465 5
25750 37
27946 4
28449 136
29498 16
29671 4
800 110
830 110
4755 4
16896 128
17352 103
17760 110
21247 110
29815 110
34449 115
801 95
2622 95
7899 98
18452 95
18857 100
20819 95
22338 95
23241 85
26397 142
27068 93
802 24
2743 67
2953 24
5449 34
7038 24
14571 24
16561 12
19021 24
20623 138
22278 74
23177 24
30413 86
803 134
8310 142
11570 134
12269 38
22101 134
23321 134
26637 134
29978 134
32480 66
32795 70
804 120
5416 131
8743 91
10906 120
15490 120
15964 133
19845 120
20153 112
20922 120
26307 39
26774 120
30006 23
31540 12
33275 33
805 59
1726 59
4319 59
6469 59
8112 63
13689 73
16491 59
22863 90
23211 59
30245 59
1997 83
9133 83
18855 93
25315 53
25972 119
26739 23
32657 141
33539 83
807 146
1872 146
5355 148
12166 131
14938 146
23961 28
24202 21
29931 146
808 112
1241 112
5116 112
8505 112
10615 112
11301 112
17657 131
20702 61
21074 112
22544 53
23464 112
809 79
10591 55
12525 79
14397 142
22855 28
23893 79
24185 28
26056 79
28189 126
10643 148
16614 91
23546 125
26338 148
26879 141
33127 26
811 124
3446 124
4422 124
9008 124
11306 24
12427 65
16824 100
19569 121
25468 9
28052 11
812 103
4200 103
6007 103
7757 103
8718 138
11676 81
17901 103
21154 109
22288 119
28081 73
28233 9
28607 103
813 148
816 113
11705 148
13019 108
14149 148
17476 19
18677 148
20947 148
23533 40
25277 127
27804 44
32397 148
814 14
2062 120
3201 107
3608 14
5741 73
6749 14
8011 136
10575 14
13438 14
19903 84
22584 14
28725 11
29669 96
29746 14
32099 58
2016 20
7338 20
10413 101
14980 48
17671 20
19251 143
19310 20
25449 70
27783 97
1637 113
6219 77
9026 77
9751 113
10235 113
19410 111
28041 50
29837 62
31284 113
33360 113
33880 113
817 96
2332 50
2848 96
3646 139
5164 149
7011 96
8461 96
14993 84
18716 2
28457 96
31801 38
32833 96
818 58
846 58
2691 58
3468 62
4682 118
13162 58
17159 138
22952 58
27616 58
28148 123
28490 124
29019 24
32521 58
819 85
8350 79
9504 49
13885 28
16602 81
21623 141
23252 85
23537 85
23715 144
25288 85
28487 52
31597 85
34190 61
820 62
1990 20
17276 62
18425 81
18668 3
21244 53
22060 62
24645 62
26100 106
27081 62
30436 62
31366 130
821 32
11458 66
16117 108
20468 63
20943 138
21234 32
22757 32
23386 2
30648 32
32650 32
822 100
6550 100
6681 100
9272 100
12348 135
16520 136
16543 145
22110 19
24125 18
28349 100
31457 89
823 29
5203 101
9862 29
14228 6
18315 137
27880 60
29501 29
30843 137
31105 29
824 1
7406 122
13327 144
20682 1
24017 35
27721 24
31796 79
34011 103
825 146
4512 45
7790 101
10075 60
12982 146
14170 146
15984 43
17419 120
22976 146
28987 143
30346 146
30605 51
32665 13
34197 146
6524 131
8389 36
17233 134
17829 131
22421 131
22646 134
22885 131
29186 131
827 44
6906 44
10867 142
17394 105
20513 44
20601 44
23794 6
24695 75
30701 54
30780 44
31035 61
33341 44
828 93
3340 63
4557 93
5122 93
11223 49
12943 93
14678 46
16325 93
21281 93
21899 93
24289 75
33822 55
829 36
6482 66
8724 36
10963 104
11609 36
16213 36
20272 36
21569 36
21762 37
23956 36
31306 36
5579 42
6292 23
11132 110
11251 81
13409 110
21874 110
25961 117
27719 54
29789 76
33958 110
831 103
2957 103
5156 79
7358 131
9254 1
10935 50
11732 103
12051 6
14649 103
24808 47
27125 103
28848 103
30301 103
31376 136
34113 67
6984 72
8610 117
12296 36
13318 52
13477 52
15128 52
21711 139
27440 52
31985 140
33542 30
1425 44
2426 6
7917 25
9896 87
11569 6
14320 124
26430 9
31652 40
31986 105
33106 6
834 83
2184 83
15999 13
18787 27
19803 67
21776 83
23062 83
23911 91
32141 83
2768 137
7605 124
22297 56
23495 66
25941 124
28121 150
33193 101
836 97
2652 1
3419 97
10536 95
11493 97
17070 97
17455 97
18659 113
19499 119
21121 47
23267 108
24083 116
24908 97
28774 111
30864 97
33173 86
2786 107
6302 35
12979 10
14616 107
19698 15
30317 149
31608 119
32266 107
7642 77
16444 73
17403 22
21239 18
22706 77
33826 77
7189 86
7517 86
11487 10
15851 86
21804 41
23508 86
25125 96
29546 35
31571 93
840 29
892 117
6000 29
6073 2
6796 29
6935 9
15735 28
15869 29
19951 90
22412 61
25867 9
28050 29
28282 27
841 117
1852 51
7658 117
10216 57
12452 117
15904 97
18697 117
23992 117
31958 117
34066 114
842 123
7096 62
8196 123
8302 123
14353 137
14650 50
18022 123
18142 70
20062 123
20113 63
23231 122
25554 123
30008 123
30470 77
33361 123
843 64
3351 64
9598 87
20220 64
20716 120
21207 64
25560 78
27404 20
33074 64
844 144
8464 85
9052 11
14815 18
17013 58
17887 73
24310 144
24712 144
31183 144
31623 75
32425 144
9416 60
12856 121
19207 24
23459 116
32853 64
33422 31
33816 56
1896 131
3348 88
5440 63
5538 77
13075 58
27012 58
27466 26
31123 26
847 17
1090 130
1751 115
7051 17
25039 17
27504 136
31214 17
31516 17
32331 72
8498 105
17115 73
25595 95
30418 122
34218 67
849 51
3240 80
11011 69
16380 42
20749 51
24102 46
27152 124
27822 87
28707 51
29967 51
850 67
3323 110
11446 67
11751 67
14018 67
14902 67
21716 67
22548 4
23215 134
24069 29
32003 103
851 32
1244 23
5032 23
8242 32
11449 32
14640 32
21261 32
28884 83
32228 58
32995 32
33663 32
852 84
1737 65
2047 84
3725 84
4901 84
5526 52
6119 84
19954 65
21519 117
21967 84
27604 50
31668 5
853 150
6079 19
9142 150
13433 150
13945 122
18345 63
21329 138
22922 19
23247 147
24044 108
27577 150
27828 150
28024 20
30875 150
854 65
11022 65
14085 39
18667 44
18820 50
20813 43
21268 92
23048 88
25466 65
28735 48
30912 65
32892 65
855 106
1680 125
4117 63
11604 106
22240 80
28446 106
28797 30
34100 91
856 144
1940 144
2093 135
3588 43
3950 33
4802 14
4938 149
6278 42
11842 144
15569 144
17814 144
18934 144
20545 144
27117 48
29454 144
857 132
1242 73
7079 132
12849 22
19869 12
19876 106
22212 76
27561 32
27824 132
858 76
2629 76
5128 122
11089 131
12148 66
13216 76
26752 22
28501 76
30790 13
33328 76
33764 75
859 141
1899 141
3358 62
4946 141
11344 91
12347 141
21764 1
21800 95
24790 141
26687 80
28012 62
28270 6
860 93
1158 49
1520 135
6378 93
8223 80
13055 9
26781 93
28313 93
30201 93
32987 93
34009 93
861 4
5339 27
6167 93
8985 24
13291 53
19350 84
25591 4
31076 4
33187 4
862 88
5316 88
6244 97
10949 88
12216 22
16172 88
26023 82
26989 88
29447 92
30729 3
32974 88
33179 120
33599 51
34211 88
9848 112
17928 112
19600 122
22478 112
27951 112
28721 112
28739 116
32884 86
864 141
3765 141
10868 141
10961 141
15424 27
15853 87
16773 62
21264 108
21387 129
22766 141
24170 141
31619 25
32245 122
865 148
1719 148
10743 148
11051 149
11611 148
16998 76
22377 148
25772 48
29286 122
30305 92
866 71
7918 25
13848 71
17838 49
18950 71
21109 71
23713 113
27541 82
29455 71
30213 121
30298 109
2022 149
2794 81
2804 149
4889 151
8165 50
9977 149
15011 37
22198 149
22972 32
32961 34
868 43
4312 16
12151 59
13268 43
16672 43
19106 43
19630 43
24351 84
30297 43
32398 43
32805 43
33264 126
869 99
7026 8
7306 55
9714 99
10784 144
22440 107
22457 67
23192 76
23349 99
26246 99
26874 99
29650 70
32569 99
870 112
1890 130
10287 47
20333 112
20913 0
21322 112
33968 61
871 81
4851 138
8821 94
21183 81
25572 17
26841 81
30033 81
32741 123
13389 42
15002 36
21768 101
22015 51
24504 51
26094 51
27377 51
28320 66
873 77
4917 30
7454 65
9419 32
11231 77
14464 73
16285 135
17191 63
26719 77
874 114
2803 38
6731 114
7887 114
8006 114
15290 127
18069 114
19585 32
22624 107
22931 114
25576 78
28362 29
31736 145
31785 114
33858 12
33927 114
875 88
1905 124
2236 14
4837 110
10877 83
14276 125
18635 88
21942 88
26465 88
31782 88
876 148
1101 64
4068 148
11129 148
13765 133
19891 148
20122 75
23860 148
26861 144
28479 92
34081 148
877 69
10422 69
14774 114
19182 101
24232 101
25726 69
28690 69
30721 56
33891 68
2661 67
8597 67
19765 131
20251 67
21349 2
29346 128
31426 25
32989 67
8244 149
8539 127
12391 71
12798 4
20832 108
22650 149
25386 149
880 17
2979 49
4836 49
9747 73
9919 17
10974 17
17303 17
21549 71
26369 134
27238 126
31078 20
881 82
5722 82
8768 85
8850 82
15542 82
19898 108
20794 134
25428 139
30898 105
882 135
10664 135
13753 135
20438 40
28165 22
30481 3
30697 120
33641 67
883 22
1264 51
8523 40
14206 109
14763 49
22736 19
25280 22
30821 22
884 9
2584 131
6885 9
10332 110
12961 80
14081 9
17604 9
17668 63
18278 9
30762 9
885 151
2313 151
3891 151
7054 90
12420 120
13472 151
16014 13
21408 151
27187 47
32455 151
32536 104
886 83
1118 19
3560 83
13167 28
14257 74
16813 83
22155 113
23234 83
25136 34
30722 2
1061 76
1184 21
4960 84
10436 22
15226 142
24591 84
27232 84
31564 99
32857 148
888 90
1771 56
6334 103
12295 147
13261 90
17104 150
20471 90
22925 26
24524 28
28155 90
28550 90
30291 4
889 24
3580 24
11063 109
13928 24
15229 24
16125 102
20994 36
22453 136
27642 24
29213 128
31208 24
6204 144
7979 62
10920 28
11918 6
14768 37
25132 109
28623 6
891 135
16911 107
16937 113
20213 135
20346 92
31809 30
32289 3
7137 37
11393 90
16468 49
18029 57
22801 78
26635 117
34472 117
893 41
7034 41
9955 41
10083 53
12085 41
22005 82
24277 41
24845 136
30902 41
33923 41
894 41
1649 41
2666 41
4780 68
7932 41
11415 41
11655 99
13145 41
14376 30
14796 5
26208 95
30001 74
30192 72
33105 50
15353 53
15583 79
19206 109
22413 79
25543 79
25871 143
26496 69
29483 79
31163 79
32295 34
34292 70
896 106
3903 63
5931 99
10730 106
14204 67
16565 106
18338 106
21046 106
24862 130
29689 43
31759 55
32107 119
32371 84
897 90
4231 45
14180 90
17637 123
19998 90
20815 90
20965 18
21378 48
21880 90
25080 90
26952 90
27191 149
29217 59
898 2
1376 108
17509 2
19025 23
24544 128
27919 37
28580 39
29688 61
3150 19
5036 19
8020 19
9431 64
10778 96
12806 62
12968 44
23298 19
24511 5
26248 19
29528 128
34131 19
900 34
6304 34
13110 34
15765 126
18496 47
28524 34
29824 34
901 91
1270 88
5356 91
15267 52
15795 91
18171 91
22233 92
26033 117
26148 138
27901 91
31003 91
31340 91
902 1
13284 149
21048 144
22049 1
25182 64
28016 31
28090 47
28655 59
28777 1
30221 120
903 98
2255 98
6499 98
7077 117
10791 98
22098 4
30494 98
33383 98
904 137
1561 137
2146 51
5434 107
8851 137
17075 123
18093 137
20199 145
21299 43
21916 137
25701 134
28054 102
905 24
1585 89
2654 24
3600 22
9267 11
16386 47
19047 46
20880 24
24974 24
29963 24
31226 24
33726 84
906 67
11881 67
14410 82
16908 67
18843 112
19921 64
20940 67
21391 99
24705 61
29573 67
33194 2
907 142
6925 129
8641 136
13338 142
18614 133
22100 62
25198 93
27563 79
32341 56
33608 142
6775 27
10801 50
16828 100
17917 74
29635 125
32621 100
32997 100
12720 63
17550 110
25658 63
27424 63
27665 98
27970 59
28582 63
910 73
2442 129
2573 40
4517 73
5738 73
13732 111
15418 73
15655 73
18833 73
23479 73
24216 36
30045 10
33043 8
33786 69
911 5
4940 5
6001 120
15720 149
19746 56
23793 12
28108 5
28944 124
30454 5
33642 7
912 27
5169 27
6852 27
7059 27
12147 109
18176 26
22799 101
24165 26
27482 27
31148 27
31710 75
913 79
3825 79
4877 42
15591 90
18916 127
21921 34
24386 79
27752 103
30900 80
914 43
5483 80
16623 92
18340 43
24315 79
27262 43
28726 95
31381 43
32242 98
32271 43
915 128
2785 128
3070 133
4814 97
4930 10
12800 26
22485 128
23940 26
30628 128
32593 128
34474 119
916 104
10588 2
12345 104
20327 147
22728 116
24754 104
32490 71
33278 104
33457 104
917 106
4821 106
6282 82
6316 145
8632 117
9213 106
11045 150
13501 106
17512 40
28086 106
30618 106
918 2
2188 2
10996 62
22059 17
22095 2
25232 2
27013 74
29806 57
30952 18
31954 2
33189 2
919 141
2434 141
2436 141
5323 141
7458 1
9701 141
9998 43
18982 28
20373 9
25435 141
26046 64
31061 125
16887 149
17617 118
18392 118
19347 26
23506 105
27931 63
28672 56
31177 69
32329 118
13797 76
32148 112
32792 112
32885 48
33630 11
5807 75
7301 75
9541 48
13540 75
14794 113
18084 19
19904 120
20051 69
27384 75
