0 0
1 1
2 2
3 3
4 4
5 5
6 6
7 7
8 8
9 9
10 10
11 11
12 12
13 10
14 13
15 14
16 15
17 16
18 17
19 0
20 15
21 1
22 18
23 9
24 19
25 20
26 21
27 18
28 22
29 23
30 24
31 25
32 0
33 4
34 26
35 27
36 28
37 20
38 29
39 17
40 30
41 15
42 31
43 4
44 18
45 32
46 9
47 33
48 17
49 25
50 0
51 5
52 12
53 15
54 34
55 9
56 9
57 35
58 20
59 12
60 19
61 25
62 36
63 31
64 37
65 38
66 39
67 22
68 20
69 35
70 40
71 2
72 41
73 0
74 42
75 43
76 38
77 44
78 20
79 34
80 9
81 8
82 6
83 36
84 39
85 45
86 5
87 5
88 17
89 5
90 3
91 8
92 0
93 20
94 4
95 10
96 9
97 46
98 47
99 25
100 0
101 1
102 28
103 32
104 2
105 48
106 23
107 20
108 2
109 49
110 8
111 50
112 7
113 6
114 51
115 0
116 6
117 51
118 51
119 9
120 5
121 2
122 36
123 52
124 53
125 41
126 39
127 50
128 6
129 54
130 28
131 9
132 12
133 8
134 20
135 51
136 0
137 38
138 0
139 8
140 12
141 18
142 41
143 34
144 50
145 8
146 50
147 20
148 20
149 36
150 31
151 55
152 32
153 34
154 0
155 20
156 0
157 0
158 5
159 30
160 50
161 7
162 38
163 38
164 22
165 35
166 0
167 37
168 17
169 7
170 36
171 55
172 56
173 12
174 8
175 5
176 56
177 18
178 51
179 34
180 12
181 25
182 10
183 36
184 18
185 3
186 26
187 52
188 6
189 41
190 26
191 50
192 29
193 28
194 57
195 50
196 16
197 0
198 8
199 23
200 12
201 58
202 51
203 37
204 9
205 0
206 23
207 20
208 51
209 51
210 32
211 51
212 40
213 25
214 39
215 36
216 58
217 5
218 46
219 46
220 6
221 23
222 8
223 20
224 55
225 52
226 42
227 12
228 12
229 30
230 20
231 48
232 55
233 14
234 44
235 35
236 13
237 40
238 27
239 59
240 13
241 60
242 56
243 8
244 39
245 5
246 36
247 28
248 51
249 8
250 37
251 3
252 54
253 8
254 17
255 34
256 56
257 3
258 2
259 12
260 17
261 17
262 60
263 30
264 2
265 17
266 52
267 0
268 16
269 9
270 12
271 36
272 40
273 48
274 20
275 51
276 54
277 54
278 43
279 15
280 4
281 37
282 31
283 34
284 7
285 55
286 4
287 58
288 41
289 9
290 48
291 8
292 44
293 17
294 20
295 57
296 9
297 38
298 7
299 51
300 47
301 13
302 40
303 46
304 12
305 51
306 17
307 2
308 61
309 6
310 56
311 37
312 37
313 14
314 18
315 56
316 62
317 32
318 6
319 16
320 0
321 5
322 38
323 45
324 51
325 12
326 5
327 60
328 56
329 36
330 9
331 60
332 0
333 58
334 6
335 56
336 10
337 10
338 55
339 34
340 20
341 10
342 30
343 52
344 61
345 56
346 20
347 12
348 0
349 8
350 3
351 9
352 44
353 56
354 12
355 57
356 39
357 47
358 63
359 55
360 39
361 37
362 54
363 50
364 47
365 2
366 23
367 50
368 32
369 30
370 29
371 12
372 39
373 36
374 28
375 36
376 39
377 38
378 54
379 60
380 40
381 0
382 32
383 41
384 20
385 56
386 12
387 8
388 8
389 50
390 34
391 54
392 38
393 54
394 17
395 15
396 6
397 4
398 46
399 0
400 20
401 33
402 50
403 4
404 30
405 30
406 36
407 37
408 48
409 59
410 41
411 20
412 56
413 17
414 4
415 52
416 55
417 34
418 10
419 17
420 1
421 30
422 57
423 9
424 54
425 36
426 56
427 40
428 20
429 5
430 51
431 23
432 9
433 60
434 50
435 5
436 3
437 40
438 61
439 0
440 39
441 32
442 2
443 19
444 14
445 8
446 41
447 0
448 23
449 17
450 31
451 25
452 32
453 50
454 30
455 30
456 2
457 43
458 64
459 50
460 55
461 45
462 65
463 34
464 56
465 5
466 52
467 34
468 30
469 31
470 34
471 65
472 55
473 36
474 37
475 9
476 3
477 10
478 20
479 39
480 29
481 39
482 41
483 32
484 41
485 2
486 45
487 54
488 0
489 9
490 62
491 33
492 17
493 50
494 66
495 0
496 28
497 8
498 46
499 50
500 15
501 32
502 17
503 36
504 46
505 10
506 67
507 34
508 34
509 55
510 5
511 50
512 9
513 3
514 20
515 1
516 66
517 41
518 65
519 12
520 12
521 0
522 0
523 36
524 15
525 38
526 9
527 41
528 62
529 37
530 50
531 34
532 12
533 1
534 34
535 53
536 12
537 48
538 31
539 43
540 54
541 0
542 19
543 7
544 15
545 56
546 0
547 20
548 12
549 3
550 36
551 8
552 36
553 9
554 25
555 40
556 51
557 30
558 52
559 20
560 38
561 34
562 50
563 23
564 56
565 39
566 2
567 19
568 45
569 25
570 57
571 1
572 12
573 28
574 54
575 37
576 10
577 50
578 11
579 13
580 29
581 5
582 38
583 37
584 44
585 2
586 55
587 20
588 13
589 50
590 23
591 15
592 3
593 26
594 23
595 0
596 0
597 47
598 32
599 9
600 0
601 36
602 31
603 68
604 3
605 46
606 20
607 46
608 34
609 6
610 2
611 3
612 34
613 7
614 49
615 37
616 0
617 37
618 17
619 48
620 39
621 38
622 36
623 42
624 58
625 29
626 36
627 0
628 60
629 23
630 8
631 41
632 0
633 40
634 8
635 31
636 9
637 19
638 59
639 18
640 31
641 36
642 50
643 52
644 30
645 47
646 4
647 68
648 12
649 56
650 42
651 49
652 0
653 34
654 56
655 15
656 10
657 17
658 4
659 1
660 38
661 60
662 51
663 33
664 36
665 3
666 62
667 16
668 2
669 59
670 10
671 34
672 31
673 68
674 36
675 49
676 4
677 5
678 60
679 20
680 32
681 0
682 38
683 17
684 4
685 3
686 54
687 9
688 34
689 34
690 29
691 51
692 9
693 12
694 64
695 36
696 6
697 31
698 2
699 30
700 25
701 30
702 40
703 6
704 58
705 55
706 60
707 41
708 20
709 8
710 0
711 23
712 15
713 44
714 0
715 40
716 6
717 0
718 59
719 35
720 35
721 34
722 34
723 34
724 16
725 34
726 4
727 40
728 9
729 50
730 58
731 30
732 39
733 51
734 43
735 0
736 9
737 52
738 13
739 50
740 30
741 4
742 8
743 55
744 39
745 25
746 10
747 5
748 54
749 31
750 39
751 3
752 21
753 25
754 6
755 46
756 38
757 56
758 3
759 46
760 11
761 17
762 17
763 23
764 4
765 0
766 29
767 9
768 9
769 47
770 10
771 6
772 4
773 30
774 12
775 2
776 19
777 7
778 54
779 34
780 44
781 10
782 54
783 1
784 30
785 28
786 1
787 6
788 26
789 4
790 6
791 57
792 56
793 52
794 6
795 51
796 64
797 23
798 19
799 9
800 3
801 37
802 56
803 30
804 6
805 15
806 61
807 51
808 23
809 34
810 3
811 5
812 10
813 9
814 41
815 16
816 2
817 2
818 5
819 5
820 0
821 4
822 14
823 3
824 60
825 12
826 20
827 52
828 47
829 61
830 20
831 34
832 20
833 49
834 61
835 49
836 41
837 30
838 50
839 31
840 6
841 37
842 22
843 20
844 48
845 10
846 56
847 40
848 4
849 5
850 54
851 33
852 56
853 54
854 6
855 30
856 55
857 2
858 58
859 17
860 41
861 36
862 36
863 30
864 43
865 51
866 1
867 36
868 12
869 54
870 3
871 50
872 38
873 54
874 6
875 31
876 12
877 54
878 12
879 23
880 0
881 52
882 51
883 41
884 46
885 60
886 25
887 50
888 52
889 60
890 5
891 17
892 20
893 68
894 56
895 60
896 62
897 34
898 50
899 40
900 29
901 5
902 40
903 55
904 15
905 2
906 60
907 56
908 50
909 40
910 58
911 39
912 41
913 34
914 40
915 4
916 37
917 36
918 46
919 5
920 51
921 5
922 23
923 52
924 0
925 11
926 39
927 50
928 59
929 9
930 34
931 25
932 38
933 0
934 30
935 34
936 20
937 17
938 18
939 8
940 32
941 10
942 12
943 52
944 57
945 34
946 50
947 12
948 62
949 10
950 40
951 17
952 40
953 13
954 31
955 44
956 23
957 51
958 39
959 55
960 41
961 44
962 6
963 16
964 10
965 34
966 5
967 3
968 62
969 23
970 60
971 34
972 31
973 37
974 0
975 16
976 17
977 30
978 57
979 54
980 53
981 0
982 15
983 36
984 0
985 2
986 5
987 68
988 51
989 23
990 56
991 6
992 5
993 50
994 20
995 67
996 54
997 50
998 36
999 52
1000 0
1001 36
1002 8
1003 28
1004 32
1005 26
1006 34
1007 6
1008 9
1009 39
1010 8
1011 23
1012 30
1013 0
1014 23
1015 40
1016 59
1017 44
1018 51
1019 12
1020 15
1021 51
1022 6
1023 66
1024 36
1025 67
1026 46
1027 56
1028 16
1029 34
1030 34
1031 55
1032 52
1033 50
1034 15
1035 37
1036 62
1037 41
1038 4
1039 6
1040 57
1041 18
1042 34
1043 52
1044 18
1045 9
1046 41
1047 17
1048 38
1049 1
1050 6
1051 37
1052 5
1053 13
1054 12
1055 63
1056 38
1057 38
1058 51
1059 17
1060 27
1061 44
1062 38
1063 9
1064 50
1065 1
1066 31
1067 6
1068 5
1069 20
1070 51
1071 6
1072 34
1073 35
1074 21
1075 51
1076 26
1077 21
1078 40
1079 9
1080 51
1081 10
1082 18
1083 30
1084 42
1085 50
1086 25
1087 2
1088 11
1089 34
1090 34
1091 34
1092 50
1093 25
1094 36
1095 61
1096 0
1097 17
1098 10
1099 31
1100 17
1101 23
1102 61
1103 41
1104 5
1105 39
1106 31
1107 36
1108 12
1109 2
1110 17
1111 36
1112 44
1113 22
1114 62
1115 20
1116 28
1117 12
1118 68
1119 36
1120 54
1121 6
1122 52
1123 5
1124 10
1125 36
1126 56
1127 20
1128 29
1129 36
1130 40
1131 30
1132 31
1133 56
1134 29
1135 17
1136 2
1137 33
1138 43
1139 7
1140 8
1141 39
1142 40
1143 3
1144 51
1145 4
1146 4
1147 56
1148 20
1149 9
1150 5
1151 6
1152 31
1153 34
1154 15
1155 9
1156 30
1157 9
1158 30
1159 23
1160 20
1161 23
1162 50
1163 5
1164 49
1165 60
1166 47
1167 60
1168 31
1169 25
1170 41
1171 10
1172 2
1173 17
1174 2
1175 6
1176 0
1177 29
1178 56
1179 0
1180 30
1181 3
1182 28
1183 17
1184 3
1185 13
1186 39
1187 20
1188 59
1189 23
1190 52
1191 8
1192 6
1193 0
1194 42
1195 5
1196 8
1197 52
1198 25
1199 6
1200 57
1201 36
1202 20
1203 1
1204 50
1205 4
1206 9
1207 56
1208 0
1209 34
1210 3
1211 36
1212 6
1213 60
1214 50
1215 8
1216 36
1217 30
1218 47
1219 67
1220 57
1221 5
1222 30
1223 59
1224 8
1225 55
1226 17
1227 46
1228 56
1229 30
1230 56
1231 50
1232 41
1233 6
1234 18
1235 20
1236 23
1237 24
1238 51
1239 10
1240 6
1241 50
1242 5
1243 51
1244 2
1245 65
1246 30
1247 20
1248 6
1249 30
1250 23
1251 10
1252 6
1253 5
1254 45
1255 3
1256 28
1257 60
1258 15
1259 50
1260 34
1261 3
1262 31
1263 9
1264 21
1265 50
1266 20
1267 48
1268 12
1269 47
1270 43
1271 8
1272 56
1273 51
1274 62
1275 56
1276 13
1277 25
1278 58
1279 42
1280 12
1281 51
1282 3
1283 2
1284 36
1285 48
1286 56
1287 6
1288 45
1289 32
1290 20
1291 40
1292 58
1293 5
1294 50
1295 23
1296 30
1297 49
1298 39
1299 34
1300 0
1301 5
1302 34
1303 8
1304 59
1305 37
1306 41
1307 12
1308 6
1309 8
1310 14
1311 4
1312 16
1313 4
1314 56
1315 28
1316 25
1317 3
1318 31
1319 35
1320 39
1321 14
1322 0
1323 55
1324 28
1325 4
1326 49
1327 4
1328 8
1329 3
1330 32
1331 43
1332 17
1333 4
1334 5
1335 3
1336 40
1337 17
1338 41
1339 34
1340 0
1341 6
1342 2
1343 50
1344 16
1345 8
1346 23
1347 10
1348 17
1349 0
1350 12
1351 27
1352 30
1353 44
1354 17
1355 34
1356 17
1357 12
1358 1
1359 0
1360 51
1361 2
1362 18
1363 0
1364 36
1365 12
1366 17
1367 12
1368 21
1369 62
1370 65
1371 9
1372 64
1373 51
1374 1
1375 27
1376 51
1377 12
1378 6
1379 40
1380 16
1381 26
1382 1
1383 4
1384 23
1385 60
1386 19
1387 27
1388 50
1389 54
1390 36
1391 6
1392 58
1393 61
1394 67
1395 12
1396 28
1397 66
1398 12
1399 56
1400 56
1401 32
1402 56
1403 6
1404 60
1405 20
1406 50
1407 55
1408 3
1409 68
1410 5
1411 6
1412 51
1413 29
1414 25
1415 14
1416 51
1417 3
1418 56
1419 42
1420 12
1421 9
1422 3
1423 68
1424 12
1425 60
1426 1
1427 10
1428 42
1429 6
1430 0
1431 20
1432 9
1433 6
1434 39
1435 16
1436 3
1437 54
1438 50
1439 30
1440 8
1441 0
1442 38
1443 67
1444 36
1445 23
1446 2
1447 12
1448 7
1449 4
1450 51
1451 55
1452 67
1453 13
1454 6
1455 0
1456 1
1457 43
1458 50
1459 44
1460 46
1461 3
1462 59
1463 47
1464 2
1465 1
1466 37
1467 34
1468 20
1469 28
1470 36
1471 43
1472 5
1473 20
1474 9
1475 2
1476 26
1477 3
1478 51
1479 20
1480 13
1481 0
1482 1
1483 12
1484 34
1485 55
1486 67
1487 54
1488 46
1489 66
1490 50
1491 4
1492 9
1493 12
1494 54
1495 20
1496 6
1497 48
1498 34
1499 60
1500 8
1501 28
1502 48
1503 42
1504 0
1505 22
1506 9
1507 21
1508 12
1509 38
1510 3
1511 8
1512 5
1513 12
1514 38
1515 54
1516 4
1517 41
1518 36
1519 43
1520 2
1521 66
1522 20
1523 41
1524 8
1525 12
1526 42
1527 30
1528 2
1529 35
1530 17
1531 68
1532 58
1533 18
1534 52
1535 1
1536 9
1537 56
1538 5
1539 8
1540 9
1541 60
1542 2
1543 38
1544 6
1545 58
1546 1
1547 62
1548 6
1549 57
1550 49
1551 24
1552 56
1553 47
1554 56
1555 58
1556 8
1557 16
1558 12
1559 36
1560 6
1561 41
1562 27
1563 55
1564 2
1565 3
1566 53
1567 31
1568 46
1569 56
1570 21
1571 39
1572 17
1573 58
1574 60
1575 58
1576 4
1577 30
1578 4
1579 33
1580 51
1581 66
1582 36
1583 65
1584 3
1585 58
1586 51
1587 3
1588 8
1589 0
1590 30
1591 0
1592 10
1593 52
1594 31
1595 6
1596 9
1597 5
1598 11
1599 20
1600 64
1601 10
1602 12
1603 56
1604 20
1605 5
1606 46
1607 0
1608 20
1609 11
1610 56
1611 64
1612 5
1613 32
1614 2
1615 12
1616 6
1617 0
1618 51
1619 3
1620 20
1621 25
1622 28
1623 39
1624 7
1625 15
1626 34
1627 17
1628 8
1629 0
1630 3
1631 41
1632 6
1633 32
1634 52
1635 67
1636 55
1637 36
1638 10
1639 17
1640 43
1641 62
1642 62
1643 20
1644 26
1645 35
1646 2
1647 2
1648 3
1649 31
1650 41
1651 5
1652 17
1653 9
1654 60
1655 47
1656 61
1657 41
1658 8
1659 20
1660 8
1661 39
1662 23
1663 54
1664 68
1665 36
1666 39
1667 2
1668 41
1669 5
1670 12
1671 2
1672 34
1673 12
1674 17
1675 31
1676 3
1677 11
1678 2
1679 46
1680 9
1681 30
1682 8
1683 38
1684 3
1685 23
1686 8
1687 4
1688 31
1689 16
1690 36
1691 51
1692 34
1693 18
1694 1
1695 20
1696 13
1697 58
1698 21
1699 3
1700 3
1701 60
1702 36
1703 40
1704 17
1705 6
1706 30
1707 9
1708 37
1709 62
1710 68
1711 23
1712 29
1713 68
1714 21
1715 50
1716 51
1717 51
1718 50
1719 32
1720 24
1721 8
1722 48
1723 50
1724 51
1725 22
1726 56
1727 40
1728 10
1729 51
1730 5
1731 32
1732 62
1733 35
1734 34
1735 54
1736 17
1737 1
1738 43
1739 56
1740 39
1741 0
1742 12
1743 17
1744 30
1745 50
1746 4
1747 0
1748 39
1749 2
1750 9
1751 50
1752 50
1753 17
1754 26
1755 46
1756 9
1757 23
1758 65
1759 9
1760 41
1761 9
1762 26
1763 5
1764 15
1765 31
1766 19
1767 0
1768 17
1769 0
1770 20
1771 3
1772 37
1773 58
1774 31
1775 36
1776 8
1777 41
1778 46
1779 27
1780 9
1781 32
1782 46
1783 26
1784 30
1785 37
1786 38
1787 50
1788 3
1789 48
1790 4
1791 54
1792 55
1793 39
1794 37
1795 39
1796 58
1797 46
1798 0
1799 65
1800 46
1801 67
1802 36
1803 56
1804 30
1805 17
1806 7
1807 52
1808 37
1809 47
1810 8
1811 2
1812 26
1813 23
1814 18
1815 23
1816 50
1817 62
1818 1
1819 1
1820 20
1821 34
1822 6
1823 46
1824 20
1825 12
1826 63
1827 54
1828 29
1829 46
1830 30
1831 12
1832 56
1833 36
1834 4
1835 3
1836 3
1837 6
1838 40
1839 25
1840 65
1841 34
1842 0
1843 17
1844 31
1845 10
1846 5
1847 27
1848 41
1849 47
1850 40
1851 55
1852 51
1853 41
1854 4
1855 6
1856 0
1857 0
1858 30
1859 34
1860 32
1861 60
1862 4
1863 40
1864 15
1865 27
1866 6
1867 41
1868 17
1869 22
1870 43
1871 50
1872 2
1873 36
1874 30
1875 38
1876 56
1877 8
1878 8
1879 35
1880 8
1881 40
1882 20
1883 5
1884 9
1885 32
1886 23
1887 4
1888 5
1889 48
1890 18
1891 9
1892 6
1893 10
1894 9
1895 41
1896 25
1897 51
1898 6
1899 54
1900 11
1901 9
1902 50
1903 17
1904 24
1905 56
1906 18
1907 44
1908 41
1909 42
1910 30
1911 4
1912 8
1913 32
1914 0
1915 23
1916 5
1917 52
1918 4
1919 12
1920 63
1921 5
1922 56
1923 18
1924 30
1925 9
1926 38
1927 9
1928 48
1929 66
1930 36
1931 39
1932 13
1933 26
1934 12
1935 13
1936 3
1937 12
1938 17
1939 13
1940 47
1941 16
1942 28
1943 51
1944 41
1945 26
1946 30
1947 60
1948 30
1949 5
1950 3
1951 31
1952 22
1953 23
1954 60
1955 34
1956 34
1957 10
1958 9
1959 29
1960 32
1961 33
1962 10
1963 38
1964 56
1965 56
1966 42
1967 46
1968 34
1969 2
1970 56
1971 31
1972 5
1973 34
1974 5
1975 0
1976 25
1977 36
1978 61
1979 45
1980 0
1981 6
1982 41
1983 0
1984 0
1985 41
1986 34
1987 6
1988 12
1989 51
1990 5
1991 0
1992 8
1993 10
1994 6
1995 62
1996 12
1997 18
1998 60
1999 34
2000 0
2001 28
2002 3
2003 3
2004 17
2005 56
2006 4
2007 5
2008 30
2009 50
2010 0
2011 56
2012 51
2013 9
2014 50
2015 34
2016 2
2017 6
2018 9
2019 20
2020 51
2021 40
2022 2
2023 30
2024 9
2025 41
2026 29
2027 17
2028 34
2029 12
2030 66
2031 56
2032 36
2033 6
2034 42
2035 28
2036 60
2037 5
2038 4
2039 39
2040 31
2041 20
2042 12
2043 3
2044 39
2045 6
2046 2
2047 25
2048 2
2049 5
2050 28
2051 34
2052 50
2053 14
2054 3
2055 5
2056 36
2057 30
2058 20
2059 22
2060 51
2061 1
2062 12
2063 38
2064 4
2065 38
2066 34
2067 5
2068 0
2069 17
2070 16
2071 4
2072 36
2073 12
2074 15
2075 6
2076 20
2077 56
2078 39
2079 2
2080 56
2081 19
2082 9
2083 16
2084 10
2085 47
2086 5
2087 49
2088 46
2089 39
2090 0
2091 28
2092 38
2093 10
2094 6
2095 0
2096 18
2097 17
2098 26
2099 28
2100 0
2101 15
2102 34
2103 18
2104 25
2105 35
2106 1
2107 35
2108 1
2109 2
2110 14
2111 4
2112 20
2113 0
2114 12
2115 4
2116 10
2117 58
2118 20
2119 50
2120 66
2121 25
2122 36
2123 8
2124 46
2125 2
2126 60
2127 57
2128 32
2129 20
2130 40
2131 6
2132 35
2133 6
2134 65
2135 9
2136 45
2137 56
2138 23
2139 60
2140 49
2141 2
2142 23
2143 0
2144 52
2145 51
2146 39
2147 25
2148 51
2149 6
2150 0
2151 61
2152 18
2153 30
2154 6
2155 52
2156 62
2157 30
2158 20
2159 23
2160 57
2161 13
2162 52
2163 39
2164 12
2165 40
2166 66
2167 39
2168 42
2169 54
2170 49
2171 4
2172 3
2173 56
2174 55
2175 30
2176 8
2177 30
2178 53
2179 52
2180 62
2181 10
2182 12
2183 5
2184 42
2185 30
2186 1
2187 40
2188 37
2189 40
2190 6
2191 7
2192 2
2193 51
2194 36
2195 10
2196 3
2197 50
2198 42
2199 41
2200 30
2201 17
2202 5
2203 29
2204 29
2205 6
2206 56
2207 32
2208 13
2209 54
2210 3
2211 3
2212 9
2213 0
2214 52
2215 41
2216 46
2217 5
2218 24
2219 50
2220 12
2221 12
2222 30
2223 40
2224 56
2225 64
2226 39
2227 54
2228 34
2229 56
2230 9
2231 41
2232 12
2233 4
2234 30
2235 10
2236 0
2237 32
2238 31
2239 66
2240 28
2241 50
2242 2
2243 25
2244 4
2245 0
2246 34
2247 20
2248 34
2249 52
2250 8
2251 30
2252 60
2253 59
2254 34
2255 46
2256 8
2257 8
2258 40
2259 36
2260 64
2261 18
2262 3
2263 26
2264 50
2265 4
2266 36
2267 46
2268 30
2269 40
2270 10
2271 4
2272 5
2273 9
2274 38
2275 52
2276 36
2277 17
2278 8
2279 61
2280 5
2281 31
2282 51
2283 9
2284 1
2285 23
2286 16
2287 56
2288 56
2289 3
2290 15
2291 8
2292 39
2293 41
2294 41
2295 51
2296 62
2297 26
2298 3
2299 34
2300 54
2301 39
2302 20
2303 25
2304 50
2305 13
2306 56
2307 68
2308 26
2309 51
2310 42
2311 51
2312 3
2313 60
2314 8
2315 36
2316 9
2317 24
2318 31
2319 60
2320 13
2321 29
2322 9
2323 12
2324 7
2325 2
2326 8
2327 42
2328 61
2329 51
2330 0
2331 41
2332 12
2333 55
2334 51
2335 10
2336 20
2337 61
2338 16
2339 58
2340 8
2341 25
2342 0
2343 26
2344 60
2345 13
2346 53
2347 18
2348 52
2349 30
2350 20
2351 5
2352 34
2353 43
2354 31
2355 23
2356 54
2357 8
2358 41
2359 12
2360 38
2361 9
2362 24
2363 68
2364 35
2365 6
2366 46
2367 53
2368 30
2369 40
2370 31
2371 35
2372 20
2373 49
2374 23
2375 43
2376 46
2377 8
2378 23
2379 43
2380 16
2381 50
2382 12
2383 30
2384 36
2385 50
2386 10
2387 68
2388 51
2389 51
2390 1
2391 18
2392 36
2393 30
2394 23
2395 30
2396 60
2397 6
2398 60
2399 36
2400 52
2401 42
2402 8
2403 3
2404 51
2405 56
2406 4
2407 6
2408 5
2409 51
2410 5
2411 20
2412 0
2413 8
2414 31
2415 6
2416 12
2417 17
2418 30
2419 65
2420 50
2421 35
2422 42
2423 6
2424 0
2425 4
2426 50
2427 41
2428 46
2429 48
2430 9
2431 0
2432 0
2433 8
2434 32
2435 10
2436 34
2437 23
2438 12
2439 49
2440 62
2441 6
2442 42
2443 31
2444 0
2445 58
2446 56
2447 23
2448 10
2449 12
2450 30
2451 0
2452 68
2453 50
2454 56
2455 22
2456 10
2457 47
2458 27
2459 1
2460 6
2461 2
2462 2
2463 0
2464 5
2465 20
2466 56
2467 30
2468 38
2469 61
2470 0
2471 30
2472 60
2473 3
2474 30
2475 0
2476 4
2477 6
2478 21
2479 38
2480 36
2481 36
2482 28
2483 39
2484 6
2485 62
2486 6
2487 6
2488 12
2489 20
2490 0
2491 1
2492 6
2493 60
2494 12
2495 0
2496 0
2497 13
2498 47
2499 56
2500 8
2501 54
2502 31
2503 36
2504 29
2505 1
2506 14
2507 17
2508 60
2509 4
2510 20
2511 3
2512 29
2513 51
2514 8
2515 57
2516 10
2517 43
2518 34
2519 58
2520 3
2521 18
2522 18
2523 5
2524 0
2525 35
2526 56
2527 39
2528 5
2529 10
2530 12
2531 22
2532 30
2533 10
2534 15
2535 46
2536 1
2537 6
2538 55
2539 44
2540 34
2541 50
2542 3
2543 5
2544 0
2545 10
2546 68
2547 36
2548 28
2549 46
2550 43
2551 23
2552 9
2553 51
2554 6
2555 32
2556 6
2557 8
2558 5
2559 16
2560 7
2561 10
2562 28
2563 8
2564 4
2565 56
2566 48
2567 30
2568 47
2569 17
2570 36
2571 12
2572 51
2573 61
2574 50
2575 30
2576 30
2577 56
2578 54
2579 51
2580 7
2581 2
2582 4
2583 32
2584 30
2585 17
2586 5
2587 51
2588 1
2589 28
2590 9
2591 23
2592 8
2593 4
2594 40
2595 18
2596 6
2597 12
2598 65
2599 14
2600 38
2601 34
2602 17
2603 37
2604 20
2605 34
2606 40
2607 12
2608 38
2609 3
2610 1
2611 24
2612 51
2613 56
2614 4
2615 19
2616 52
2617 54
2618 57
2619 2
2620 41
2621 51
2622 6
2623 51
2624 53
2625 34
2626 57
2627 0
2628 44
2629 51
2630 56
2631 8
2632 5
2633 8
2634 52
2635 55
2636 47
2637 11
2638 17
2639 17
2640 60
2641 10
2642 50
2643 5
2644 25
2645 1
2646 24
2647 13
2648 45
2649 8
2650 30
2651 51
2652 3
2653 5
2654 8
2655 30
2656 13
2657 39
2658 10
2659 19
2660 17
2661 51
2662 20
2663 1
2664 2
2665 35
2666 34
2667 2
2668 47
2669 13
2670 14
2671 64
2672 39
2673 46
2674 23
2675 5
2676 38
2677 0
2678 9
2679 49
2680 43
2681 40
2682 6
2683 6
2684 28
2685 25
2686 36
2687 20
2688 10
2689 11
2690 51
2691 30
2692 6
2693 25
2694 49
2695 56
2696 0
2697 38
2698 56
2699 5
2700 3
2701 10
2702 8
2703 36
2704 37
2705 62
2706 6
2707 32
2708 0
2709 55
2710 23
2711 6
2712 2
2713 16
2714 5
2715 63
2716 18
2717 17
2718 6
2719 6
2720 1
2721 12
2722 51
2723 42
2724 60
2725 23
2726 6
2727 40
2728 30
2729 36
2730 26
2731 6
2732 10
2733 5
2734 16
2735 17
2736 41
2737 40
2738 42
2739 26
2740 36
2741 59
2742 20
2743 52
2744 23
2745 47
2746 28
2747 5
2748 14
2749 52
2750 34
2751 41
2752 0
2753 12
2754 3
2755 34
2756 52
2757 50
2758 12
2759 3
2760 37
2761 37
2762 51
2763 10
2764 20
2765 4
2766 12
2767 31
2768 12
2769 44
2770 6
2771 43
2772 54
2773 8
2774 5
2775 6
2776 37
2777 1
2778 39
2779 54
2780 6
2781 6
2782 56
2783 38
2784 12
2785 0
2786 29
2787 48
2788 5
2789 8
2790 10
2791 55
2792 38
2793 50
2794 0
2795 3
2796 9
2797 10
2798 51
2799 50
2800 0
2801 41
2802 35
2803 67
2804 20
2805 30
2806 28
2807 12
2808 57
2809 60
2810 52
2811 50
2812 9
2813 32
2814 44
2815 35
2816 55
2817 65
2818 12
2819 8
2820 68
2821 6
2822 50
2823 56
2824 31
2825 47
2826 4
2827 5
2828 51
2829 52
2830 45
2831 1
2832 51
2833 10
2834 28
2835 60
2836 55
2837 15
2838 12
2839 37
2840 11
2841 6
2842 51
2843 19
2844 46
2845 46
2846 36
2847 0
2848 36
2849 2
2850 51
2851 8
2852 6
2853 39
2854 16
2855 9
2856 31
2857 35
2858 44
2859 10
2860 49
2861 0
2862 18
2863 9
2864 15
2865 2
2866 42
2867 1
2868 30
2869 34
2870 54
2871 8
2872 4
2873 36
2874 37
2875 27
2876 8
2877 50
2878 59
2879 5
2880 1
2881 55
2882 2
2883 12
2884 1
2885 56
2886 10
2887 40
2888 6
2889 29
2890 8
2891 8
2892 40
2893 31
2894 18
2895 39
2896 46
2897 2
2898 5
2899 36
2900 6
2901 6
2902 52
2903 10
2904 3
2905 20
2906 17
2907 35
2908 32
2909 2
2910 15
2911 1
2912 31
2913 61
2914 55
2915 28
2916 2
2917 55
2918 50
2919 25
2920 18
2921 12
2922 41
2923 6
2924 31
2925 6
2926 16
2927 38
2928 51
2929 14
2930 62
2931 41
2932 55
2933 3
2934 20
2935 54
2936 25
2937 68
2938 30
2939 68
2940 30
2941 12
2942 34
2943 56
2944 4
2945 0
2946 27
2947 41
2948 36
2949 22
2950 8
2951 51
2952 9
2953 34
2954 18
2955 47
2956 42
2957 8
2958 35
2959 25
2960 12
2961 0
2962 0
2963 42
2964 27
2965 46
2966 17
2967 0
2968 28
2969 12
2970 18
2971 40
2972 0
2973 37
2974 6
2975 30
2976 6
2977 36
2978 36
2979 34
2980 23
2981 12
2982 52
2983 16
2984 36
2985 32
2986 9
2987 12
2988 56
2989 13
2990 3
2991 34
2992 32
2993 36
2994 16
2995 4
2996 25
2997 66
2998 5
2999 9
3000 22
3001 54
3002 8
3003 51
3004 55
3005 51
3006 23
3007 18
3008 5
3009 28
3010 0
3011 19
3012 0
3013 34
3014 6
3015 35
3016 54
3017 35
3018 53
3019 33
3020 44
3021 2
3022 19
3023 10
3024 1
3025 44
3026 32
3027 50
3028 17
3029 65
3030 0
3031 4
3032 68
3033 60
3034 26
3035 66
3036 9
3037 6
3038 5
3039 6
3040 4
3041 30
3042 51
3043 30
3044 36
3045 35
3046 15
3047 0
3048 55
3049 55
3050 20
3051 17
3052 22
3053 0
3054 0
3055 6
3056 18
3057 20
3058 64
3059 66
3060 54
3061 17
3062 2
3063 1
3064 0
3065 21
3066 12
3067 56
3068 32
3069 55
3070 2
3071 8
3072 51
3073 41
3074 20
3075 5
3076 31
3077 37
3078 54
3079 51
3080 40
3081 17
3082 6
3083 2
3084 51
3085 34
3086 1
3087 17
3088 5
3089 23
3090 38
3091 12
3092 41
3093 3
3094 9
3095 51
3096 2
3097 17
3098 56
3099 52
3100 9
3101 17
3102 37
3103 15
3104 64
3105 48
3106 12
3107 5
3108 2
3109 20
3110 38
3111 8
3112 2
3113 60
3114 3
3115 10
3116 0
3117 36
3118 17
3119 37
3120 5
3121 0
3122 49
3123 32
3124 5
3125 51
3126 23
3127 1
3128 30
3129 30
3130 3
3131 5
3132 3
3133 6
3134 40
3135 4
3136 60
3137 6
3138 30
3139 5
3140 41
3141 56
3142 32
3143 0
3144 8
3145 40
3146 4
3147 5
3148 8
3149 44
3150 40
3151 36
3152 7
3153 17
3154 10
3155 26
3156 43
3157 29
3158 51
3159 36
3160 23
3161 20
3162 3
3163 31
3164 64
3165 36
3166 56
3167 30
3168 34
3169 6
3170 31
3171 39
3172 18
3173 56
3174 51
3175 50
3176 57
3177 23
3178 43
3179 41
3180 28
3181 47
3182 23
3183 36
3184 36
3185 37
3186 25
3187 2
3188 51
3189 51
3190 31
3191 41
3192 36
3193 12
3194 67
3195 35
3196 20
3197 9
3198 24
3199 55
3200 34
3201 3
3202 51
3203 50
3204 50
3205 27
3206 68
3207 6
3208 20
3209 42
3210 40
3211 64
3212 51
3213 18
3214 38
3215 45
3216 20
3217 19
3218 9
3219 12
3220 34
3221 10
3222 9
3223 8
3224 32
3225 6
3226 20
3227 58
3228 42
3229 47
3230 5
3231 60
3232 67
3233 28
3234 46
3235 9
3236 17
3237 6
3238 50
3239 52
3240 30
3241 26
3242 34
3243 20
3244 28
3245 6
3246 34
3247 23
3248 13
3249 0
3250 41
3251 40
3252 8
3253 35
3254 60
3255 0
3256 54
3257 0
3258 25
3259 0
3260 18
3261 8
3262 4
3263 4
3264 36
3265 60
3266 20
3267 65
3268 52
3269 31
3270 36
3271 20
3272 9
3273 5
3274 23
3275 41
3276 36
3277 12
3278 50
3279 37
3280 8
3281 6
3282 3
3283 30
3284 24
3285 6
3286 17
3287 44
3288 0
3289 8
3290 39
3291 36
3292 7
3293 37
3294 6
3295 58
3296 6
3297 61
3298 13
3299 62
3300 50
3301 6
3302 29
3303 48
3304 48
3305 0
3306 5
3307 16
3308 5
3309 10
3310 30
3311 60
3312 30
3313 53
3314 10
3315 3
3316 35
3317 8
3318 47
3319 56
3320 20
3321 39
3322 17
3323 6
3324 9
3325 62
3326 36
3327 23
3328 17
3329 28
3330 32
3331 55
3332 23
3333 51
3334 28
3335 10
3336 48
3337 15
3338 2
3339 31
3340 4
3341 54
3342 5
3343 32
3344 28
3345 1
3346 40
3347 34
3348 9
3349 39
3350 8
3351 20
3352 28
3353 3
3354 56
3355 30
3356 44
3357 34
3358 30
3359 32
3360 8
3361 32
3362 9
3363 8
3364 54
3365 9
3366 28
3367 5
3368 56
3369 62
3370 38
3371 31
3372 13
3373 7
3374 32
3375 40
3376 10
3377 1
3378 68
3379 14
3380 12
3381 38
3382 1
3383 47
3384 9
3385 30
3386 55
3387 0
3388 41
3389 40
3390 6
3391 7
3392 34
3393 39
3394 30
3395 9
3396 36
3397 40
3398 9
3399 5
3400 23
3401 31
3402 2
3403 6
3404 48
3405 60
3406 54
3407 30
3408 38
3409 43
3410 55
3411 0
3412 54
3413 18
3414 40
3415 2
3416 12
3417 51
3418 2
3419 22
3420 30
3421 2
3422 40
3423 9
3424 6
3425 58
3426 17
3427 0
3428 5
3429 8
3430 31
3431 9
3432 20
3433 65
3434 55
3435 39
3436 43
3437 60
3438 0
3439 62
3440 8
3441 0
3442 54
3443 6
3444 5
3445 15
3446 11
3447 32
3448 25
3449 19
3450 50
3451 26
3452 36
3453 20
3454 30
3455 68
3456 51
3457 36
3458 13
3459 48
3460 34
3461 6
3462 10
3463 39
3464 35
3465 13
3466 44
3467 25
3468 8
3469 8
3470 9
3471 43
3472 12
3473 12
3474 50
3475 2
3476 8
3477 50
3478 30
3479 8
3480 52
3481 30
3482 20
3483 2
3484 56
3485 23
3486 38
3487 32
3488 9
3489 4
3490 6
3491 51
3492 12
3493 1
3494 10
3495 51
3496 34
3497 9
3498 2
3499 34
3500 20
3501 17
3502 54
3503 33
3504 18
3505 5
3506 23
3507 44
3508 23
3509 0
3510 30
3511 37
3512 12
3513 0
3514 20
3515 15
3516 40
3517 51
3518 30
3519 4
3520 43
3521 37
3522 11
3523 64
3524 12
3525 0
3526 5
3527 17
3528 56
3529 2
3530 61
3531 42
3532 6
3533 9
3534 10
3535 60
3536 36
3537 49
3538 7
3539 66
3540 20
3541 63
3542 29
3543 51
3544 61
3545 23
3546 37
3547 15
3548 56
3549 23
3550 10
3551 55
3552 59
3553 47
3554 34
3555 28
3556 37
3557 31
3558 40
3559 20
3560 43
3561 7
3562 50
3563 26
3564 10
3565 15
3566 0
3567 20
3568 23
3569 13
3570 12
3571 9
3572 46
3573 2
3574 31
3575 16
3576 58
3577 46
3578 37
3579 29
3580 60
3581 6
3582 9
3583 23
3584 6
3585 62
3586 4
3587 66
3588 9
3589 2
3590 1
3591 39
3592 36
3593 9
3594 12
3595 58
3596 60
3597 54
3598 12
3599 49
3600 42
3601 35
3602 5
3603 6
3604 37
3605 25
3606 12
3607 3
3608 44
3609 28
3610 9
3611 34
3612 6
3613 40
3614 20
3615 42
3616 0
3617 3
3618 10
3619 62
3620 37
3621 60
3622 2
3623 36
3624 44
3625 40
3626 28
3627 39
3628 60
3629 2
3630 40
3631 54
3632 6
3633 20
3634 0
3635 2
3636 36
3637 36
3638 55
3639 60
3640 68
3641 17
3642 41
3643 3
3644 9
3645 39
3646 19
3647 9
3648 62
3649 1
3650 9
3651 42
3652 34
3653 51
3654 51
3655 23
3656 30
3657 52
3658 4
3659 50
3660 41
3661 34
3662 23
3663 21
3664 7
3665 36
3666 48
3667 25
3668 21
3669 38
3670 42
3671 9
3672 21
3673 28
3674 34
3675 26
3676 37
3677 36
3678 15
3679 56
3680 22
3681 52
3682 29
3683 37
3684 10
3685 6
3686 32
3687 54
3688 1
3689 26
3690 5
3691 1
3692 25
3693 23
3694 2
3695 10
3696 5
3697 6
3698 60
3699 10
3700 36
3701 12
3702 27
3703 57
3704 8
3705 3
3706 19
3707 0
3708 39
3709 50
3710 14
3711 40
3712 0
3713 38
3714 41
3715 40
3716 38
3717 8
3718 23
3719 20
3720 17
3721 41
3722 9
3723 50
3724 25
3725 17
3726 13
3727 9
3728 36
3729 34
3730 2
3731 5
3732 55
3733 42
3734 5
3735 68
3736 34
3737 20
3738 68
3739 37
3740 6
3741 25
3742 30
3743 51
3744 17
3745 0
3746 29
3747 32
3748 51
3749 60
3750 36
3751 53
3752 60
3753 52
3754 3
3755 19
3756 68
3757 3
3758 46
3759 68
3760 15
3761 40
3762 0
3763 18
3764 54
3765 47
3766 4
3767 52
3768 9
3769 8
3770 33
3771 8
3772 30
3773 39
3774 12
3775 20
3776 50
3777 10
3778 2
3779 34
3780 40
3781 56
3782 40
3783 31
3784 9
3785 55
3786 10
3787 50
3788 12
3789 56
3790 51
3791 56
3792 35
3793 14
3794 6
3795 8
3796 0
3797 32
3798 0
3799 28
3800 30
3801 1
3802 36
3803 51
3804 34
3805 1
3806 9
3807 18
3808 0
3809 0
3810 25
3811 6
3812 41
3813 10
3814 7
3815 56
3816 20
3817 2
3818 56
3819 32
3820 8
3821 8
3822 52
3823 51
3824 0
3825 38
3826 5
3827 42
3828 40
3829 39
3830 34
3831 5
3832 0
3833 37
3834 30
3835 23
3836 23
3837 20
3838 58
3839 52
3840 54
3841 6
3842 28
3843 5
3844 57
3845 15
3846 6
3847 51
3848 6
3849 9
3850 8
3851 40
3852 48
3853 50
3854 48
3855 0
3856 44
3857 0
3858 6
3859 47
3860 17
3861 1
3862 51
3863 37
3864 3
3865 37
3866 56
3867 58
3868 6
3869 6
3870 0
3871 58
3872 51
3873 8
3874 37
3875 3
3876 58
3877 44
3878 1
3879 2
3880 30
3881 11
3882 30
3883 6
3884 9
3885 54
3886 33
3887 47
3888 56
3889 52
3890 60
3891 67
3892 3
3893 21
3894 22
3895 5
3896 4
3897 5
3898 10
3899 37
3900 5
3901 25
3902 41
3903 62
3904 38
3905 2
3906 18
3907 41
3908 17
3909 50
3910 51
3911 51
3912 10
3913 51
3914 52
3915 54
3916 51
3917 22
3918 34
3919 60
3920 36
3921 12
3922 57
3923 17
3924 36
3925 8
3926 1
3927 0
3928 29
3929 40
3930 9
3931 23
3932 32
3933 56
3934 12
3935 7
3936 8
3937 32
3938 15
3939 63
3940 60
3941 60
3942 11
3943 1
3944 51
3945 9
3946 15
3947 8
3948 34
3949 17
3950 8
3951 1
3952 9
3953 30
3954 32
3955 9
3956 12
3957 20
3958 41
3959 52
3960 56
3961 59
3962 30
3963 25
3964 5
3965 55
3966 60
3967 23
3968 42
3969 10
3970 16
3971 25
3972 54
3973 56
3974 9
3975 34
3976 51
3977 20
3978 39
3979 39
3980 30
3981 34
3982 56
3983 40
3984 28
3985 68
3986 23
3987 5
3988 34
3989 36
3990 20
3991 56
3992 50
3993 23
3994 51
3995 46
3996 17
3997 4
3998 15
3999 60
4000 60
4001 6
4002 20
4003 63
4004 5
4005 41
4006 44
4007 36
4008 20
4009 51
4010 50
4011 40
4012 60
4013 8
4014 20
4015 6
4016 0
4017 9
4018 35
4019 48
4020 51
4021 23
4022 12
4023 57
4024 8
4025 40
4026 4
4027 6
4028 9
4029 54
4030 41
4031 37
4032 2
4033 41
4034 12
4035 9
4036 55
4037 42
4038 48
4039 39
4040 5
4041 5
4042 12
4043 0
4044 34
4045 2
4046 25
4047 1
4048 8
4049 62
4050 6
4051 38
4052 34
4053 56
4054 30
4055 18
4056 17
4057 35
4058 6
4059 3
4060 12
4061 51
4062 6
4063 30
4064 39
4065 46
4066 26
4067 1
4068 5
4069 9
4070 5
4071 41
4072 52
4073 41
4074 51
4075 8
4076 24
4077 55
4078 35
4079 2
4080 3
4081 38
4082 2
4083 0
4084 9
4085 8
4086 42
4087 8
4088 12
4089 25
4090 39
4091 12
4092 6
4093 36
4094 1
4095 64
4096 13
4097 37
4098 68
4099 10
4100 10
4101 43
4102 38
4103 5
4104 9
4105 5
4106 56
4107 30
4108 3
4109 9
4110 49
4111 23
4112 31
4113 36
4114 10
4115 6
4116 28
4117 29
4118 4
4119 51
4120 56
4121 48
4122 34
4123 56
4124 31
4125 35
4126 30
4127 2
4128 49
4129 4
4130 44
4131 5
4132 8
4133 17
4134 20
4135 58
4136 60
4137 56
4138 23
4139 4
4140 56
4141 38
4142 8
4143 8
4144 65
4145 36
4146 38
4147 32
4148 16
4149 39
4150 35
4151 36
4152 31
4153 51
4154 41
4155 12
4156 23
4157 41
4158 9
4159 41
4160 6
4161 17
4162 60
4163 23
4164 41
4165 28
4166 56
4167 31
4168 0
4169 5
4170 0
4171 36
4172 21
4173 51
4174 0
4175 41
4176 10
4177 5
4178 9
4179 30
4180 9
4181 60
4182 38
4183 66
4184 3
4185 39
4186 61
4187 4
4188 46
4189 35
4190 1
4191 34
4192 8
4193 60
4194 51
4195 6
4196 31
4197 8
4198 5
4199 55
4200 18
4201 5
4202 20
4203 20
4204 60
4205 57
4206 0
4207 5
4208 62
4209 2
4210 6
4211 34
4212 51
4213 66
4214 41
4215 1
4216 56
4217 62
4218 30
4219 21
4220 12
4221 42
4222 56
4223 15
4224 51
4225 17
4226 24
4227 68
4228 4
4229 17
4230 4
4231 9
4232 16
4233 44
4234 19
4235 29
4236 60
4237 61
4238 56
4239 31
4240 56
4241 35
4242 6
4243 47
4244 1
4245 51
4246 49
4247 36
4248 50
4249 20
4250 8
4251 2
4252 54
4253 43
4254 30
4255 51
4256 52
4257 63
4258 10
4259 36
4260 6
4261 4
4262 2
4263 6
4264 28
4265 20
4266 24
4267 33
4268 62
4269 40
4270 65
4271 23
4272 50
4273 5
4274 18
4275 5
4276 50
4277 25
4278 4
4279 10
4280 6
4281 36
4282 60
4283 39
4284 8
4285 62
4286 30
4287 62
4288 0
4289 30
4290 17
4291 30
4292 60
4293 3
4294 10
4295 2
4296 51
4297 38
4298 68
4299 31
4300 46
4301 2
4302 52
4303 55
4304 38
4305 7
4306 20
4307 36
4308 66
4309 5
4310 6
4311 4
4312 34
4313 14
4314 38
4315 6
4316 10
4317 50
4318 38
4319 40
4320 32
4321 5
4322 25
4323 2
4324 20
4325 30
4326 12
4327 50
4328 25
4329 13
4330 9
4331 8
4332 41
4333 39
4334 60
4335 9
4336 41
4337 46
4338 8
4339 30
4340 6
4341 38
4342 39
4343 42
4344 6
4345 10
4346 7
4347 9
4348 22
4349 6
4350 32
4351 51
4352 28
4353 41
4354 37
4355 41
4356 12
4357 23
4358 38
4359 41
4360 35
4361 56
4362 20
4363 49
4364 6
4365 12
4366 17
4367 8
4368 4
4369 40
4370 5
4371 22
4372 62
4373 39
4374 7
4375 36
4376 44
4377 0
4378 30
4379 20
4380 1
4381 2
4382 8
4383 54
4384 42
4385 2
4386 51
4387 10
4388 28
4389 43
4390 10
4391 4
4392 52
4393 6
4394 48
4395 51
4396 37
4397 30
4398 0
4399 54
4400 20
4401 0
4402 36
4403 9
4404 68
4405 18
4406 4
4407 7
4408 0
4409 38
4410 48
4411 0
4412 9
4413 23
4414 12
4415 18
4416 38
4417 3
4418 10
4419 5
4420 48
4421 5
4422 35
4423 38
4424 12
4425 12
4426 66
4427 51
4428 1
4429 9
4430 11
4431 30
4432 10
4433 27
4434 62
4435 51
4436 6
4437 17
4438 0
4439 35
4440 0
4441 29
4442 8
4443 12
4444 60
4445 20
4446 12
4447 51
4448 30
4449 24
4450 26
4451 5
4452 30
4453 66
4454 9
4455 9
4456 4
4457 13
4458 17
4459 30
4460 12
4461 63
4462 30
4463 28
4464 5
4465 8
4466 4
4467 26
4468 6
4469 5
4470 9
4471 35
4472 60
4473 51
4474 46
4475 56
4476 30
4477 18
4478 9
4479 9
4480 2
4481 35
4482 36
4483 10
4484 1
4485 37
4486 5
4487 53
4488 5
4489 0
4490 4
4491 2
4492 2
4493 36
4494 10
4495 36
4496 58
4497 23
4498 21
4499 56
4500 31
4501 2
4502 51
4503 41
4504 34
4505 23
4506 23
4507 58
4508 2
4509 56
4510 61
4511 34
4512 15
4513 34
4514 31
4515 4
4516 49
4517 2
4518 23
4519 3
4520 48
4521 34
4522 52
4523 34
4524 41
4525 60
4526 30
4527 8
4528 23
4529 20
4530 3
4531 60
4532 10
4533 38
4534 8
4535 37
4536 17
4537 20
4538 37
4539 18
4540 50
4541 50
4542 30
4543 64
4544 29
4545 24
4546 38
4547 12
4548 56
4549 20
4550 66
4551 4
4552 19
4553 32
4554 12
4555 3
4556 8
4557 56
4558 0
4559 43
4560 48
4561 40
4562 66
4563 17
4564 6
4565 67
4566 68
4567 54
4568 23
4569 3
4570 5
4571 25
4572 38
4573 1
4574 35
4575 55
4576 50
4577 68
4578 4
4579 23
4580 63
4581 32
4582 27
4583 20
4584 51
4585 0
4586 38
4587 31
4588 26
4589 60
4590 61
4591 46
4592 13
4593 5
4594 0
4595 0
4596 30
4597 16
4598 3
4599 0
4600 14
4601 63
4602 56
4603 68
4604 9
4605 0
4606 41
4607 60
4608 25
4609 42
4610 60
4611 2
4612 45
4613 68
4614 39
4615 1
4616 54
4617 36
4618 55
4619 51
4620 20
4621 51
4622 6
4623 37
4624 62
4625 0
4626 46
4627 19
4628 17
4629 15
4630 8
4631 34
4632 30
4633 66
4634 17
4635 6
4636 47
4637 35
4638 36
4639 6
4640 32
4641 58
4642 11
4643 0
4644 34
4645 20
4646 34
4647 35
4648 0
4649 28
4650 34
4651 4
4652 36
4653 34
4654 8
4655 30
4656 49
4657 2
4658 20
4659 30
4660 9
4661 52
4662 31
4663 45
4664 38
4665 9
4666 65
4667 41
4668 12
4669 10
4670 5
4671 54
4672 38
4673 8
4674 3
4675 34
4676 64
4677 2
4678 5
4679 0
4680 30
4681 31
4682 3
4683 31
4684 5
4685 32
4686 15
4687 3
4688 35
4689 65
4690 7
4691 10
4692 42
4693 20
4694 51
4695 30
4696 31
4697 0
4698 40
4699 1
4700 20
4701 54
4702 6
4703 1
4704 17
4705 63
4706 6
4707 8
4708 18
4709 32
4710 6
4711 20
4712 60
4713 54
4714 51
4715 58
4716 36
4717 50
4718 41
4719 37
4720 54
4721 51
4722 3
4723 23
4724 35
4725 12
4726 60
4727 52
4728 11
4729 53
4730 50
4731 23
4732 68
4733 49
4734 23
4735 31
4736 37
4737 56
4738 12
4739 5
4740 0
4741 26
4742 41
4743 37
4744 9
4745 9
4746 56
4747 5
4748 56
4749 4
4750 30
4751 3
4752 3
4753 62
4754 20
4755 47
4756 59
4757 0
4758 54
4759 32
4760 7
4761 48
4762 42
4763 2
4764 51
4765 31
4766 65
4767 3
4768 39
4769 17
4770 5
4771 41
4772 52
4773 12
4774 36
4775 31
4776 5
4777 0
4778 40
4779 48
4780 9
4781 7
4782 49
4783 54
4784 51
4785 43
4786 6
4787 37
4788 9
4789 37
4790 9
4791 25
4792 6
4793 61
4794 56
4795 4
4796 3
4797 34
4798 50
4799 45
4800 36
4801 7
4802 17
4803 50
4804 28
4805 50
4806 10
4807 50
4808 6
4809 56
4810 49
4811 30
4812 66
4813 60
4814 52
4815 51
4816 46
4817 58
4818 56
4819 60
4820 10
4821 68
4822 30
4823 36
4824 17
4825 49
4826 32
4827 12
4828 8
4829 29
4830 18
4831 2
4832 42
4833 51
4834 3
4835 36
4836 0
4837 51
4838 30
4839 1
4840 60
4841 38
4842 52
4843 51
4844 42
4845 9
4846 5
4847 49
4848 2
4849 23
4850 37
4851 12
4852 46
4853 0
4854 43
4855 45
4856 56
4857 2
4858 68
4859 20
4860 5
4861 10
4862 23
4863 59
4864 6
4865 17
4866 68
4867 12
4868 0
4869 41
4870 35
4871 1
4872 42
4873 4
4874 56
4875 4
4876 23
4877 37
4878 51
4879 42
4880 50
4881 30
4882 4
4883 37
4884 4
4885 68
4886 9
4887 6
4888 51
4889 9
4890 2
4891 5
4892 5
4893 54
4894 25
4895 50
4896 39
4897 9
4898 1
4899 3
4900 67
4901 1
4902 55
4903 42
4904 20
4905 8
4906 39
4907 41
4908 40
4909 4
4910 17
4911 54
4912 55
4913 50
4914 67
4915 36
4916 4
4917 23
4918 6
4919 4
4920 30
4921 9
4922 10
4923 10
4924 6
4925 16
4926 35
4927 56
4928 2
4929 43
4930 39
4931 41
4932 25
4933 0
4934 6
4935 20
4936 30
4937 63
4938 0
4939 52
4940 63
4941 36
4942 2
4943 0
4944 1
4945 15
4946 56
4947 60
4948 15
4949 17
4950 0
4951 34
4952 30
4953 24
4954 4
4955 12
4956 41
4957 8
4958 54
4959 58
4960 58
4961 52
4962 64
4963 42
4964 8
4965 46
4966 51
4967 39
4968 30
4969 50
4970 51
4971 51
4972 39
4973 8
4974 17
4975 14
4976 0
4977 30
4978 9
4979 17
4980 68
4981 48
4982 0
4983 9
4984 58
4985 51
4986 23
4987 56
4988 35
4989 23
4990 2
4991 44
4992 20
4993 24
4994 6
4995 41
4996 60
4997 56
4998 34
4999 28
5000 5
5001 17
5002 4
5003 34
5004 23
5005 15
5006 50
5007 7
5008 34
5009 43
5010 7
5011 0
5012 6
5013 58
5014 0
5015 1
5016 2
5017 10
5018 67
5019 62
5020 55
5021 4
5022 33
5023 34
5024 47
5025 67
5026 10
5027 56
5028 56
5029 36
5030 36
5031 41
5032 30
5033 39
5034 54
5035 36
5036 30
5037 49
5038 37
5039 17
5040 17
5041 37
5042 3
5043 60
5044 42
5045 68
5046 8
5047 58
5048 37
5049 9
5050 20
5051 4
5052 35
5053 17
5054 0
5055 28
5056 27
5057 38
5058 10
5059 42
5060 13
5061 61
5062 18
5063 54
5064 61
5065 54
5066 39
5067 51
5068 38
5069 8
5070 17
5071 20
5072 37
5073 51
5074 54
5075 40
5076 17
5077 48
5078 60
5079 36
5080 2
5081 34
5082 5
5083 20
5084 30
5085 13
5086 66
5087 6
5088 31
5089 1
5090 0
5091 17
5092 17
5093 25
5094 2
5095 40
5096 2
5097 21
5098 34
5099 16
5100 66
5101 4
5102 6
5103 17
5104 1
5105 51
5106 41
5107 17
5108 32
5109 23
5110 44
5111 5
5112 44
5113 41
5114 23
5115 4
5116 28
5117 40
5118 17
5119 1
5120 51
5121 46
5122 36
5123 6
5124 56
5125 25
5126 9
5127 8
5128 51
5129 6
5130 52
5131 12
5132 46
5133 4
5134 1
5135 60
5136 11
5137 54
5138 5
5139 30
5140 8
5141 47
5142 60
5143 53
5144 26
5145 51
5146 1
5147 28
5148 8
5149 1
5150 0
5151 18
5152 57
5153 10
5154 56
5155 36
5156 38
5157 51
5158 0
5159 34
5160 5
5161 40
5162 57
5163 10
5164 56
5165 9
5166 9
5167 38
5168 40
5169 36
5170 9
5171 34
5172 38
5173 26
5174 0
5175 54
5176 58
5177 6
5178 4
5179 39
5180 34
5181 47
5182 10
5183 50
5184 56
5185 1
5186 25
5187 17
5188 1
5189 10
5190 31
5191 58
5192 46
5193 35
5194 46
5195 43
5196 58
5197 16
5198 58
5199 8
5200 9
5201 51
5202 32
5203 34
5204 10
5205 32
5206 16
5207 28
5208 22
5209 55
5210 36
5211 9
5212 9
5213 18
5214 39
5215 13
5216 28
5217 23
5218 7
5219 9
5220 65
5221 6
5222 3
5223 44
5224 3
5225 50
5226 35
5227 42
5228 50
5229 2
5230 3
5231 5
5232 13
5233 44
5234 2
5235 8
5236 56
5237 35
5238 35
5239 37
5240 30
5241 9
5242 54
5243 60
5244 46
5245 60
5246 28
5247 38
5248 51
5249 2
5250 51
5251 9
5252 4
5253 0
5254 47
5255 16
5256 5
5257 20
5258 52
5259 54
5260 51
5261 6
5262 8
5263 31
5264 29
5265 60
5266 41
5267 3
5268 16
5269 8
5270 56
5271 29
5272 20
5273 6
5274 12
5275 33
5276 3
5277 37
5278 47
5279 23
5280 66
5281 9
5282 9
5283 14
5284 2
5285 56
5286 50
5287 25
5288 5
5289 30
5290 51
5291 55
5292 48
5293 47
5294 50
5295 41
5296 17
5297 12
5298 56
5299 9
5300 23
5301 68
5302 60
5303 50
5304 21
5305 30
5306 25
5307 50
5308 47
5309 2
5310 17
5311 31
5312 31
5313 58
5314 42
5315 17
5316 66
5317 6
5318 56
5319 20
5320 48
5321 54
5322 13
5323 38
5324 60
5325 5
5326 2
5327 68
5328 28
5329 51
5330 2
5331 9
5332 32
5333 5
5334 18
5335 3
5336 10
5337 44
5338 6
5339 47
5340 10
5341 49
5342 48
5343 18
5344 10
5345 23
5346 10
5347 9
5348 50
5349 23
5350 52
5351 20
5352 36
5353 24
5354 50
5355 14
5356 8
5357 18
5358 42
5359 30
5360 50
5361 9
5362 35
5363 58
5364 8
5365 0
5366 6
5367 51
5368 15
5369 8
5370 10
5371 30
5372 12
5373 50
5374 28
5375 34
5376 4
5377 4
5378 56
5379 0
5380 4
5381 9
5382 36
5383 2
5384 4
5385 58
5386 29
5387 8
5388 0
5389 56
5390 4
5391 36
5392 56
5393 66
5394 6
5395 1
5396 37
5397 8
5398 2
5399 24
5400 39
5401 52
5402 23
5403 13
5404 34
5405 40
5406 46
5407 12
5408 3
5409 48
5410 29
5411 10
5412 6
5413 51
5414 37
5415 17
5416 56
5417 36
5418 17
5419 58
5420 12
5421 48
5422 23
5423 41
5424 51
5425 56
5426 51
5427 17
5428 30
5429 31
5430 44
5431 52
5432 56
5433 38
5434 31
5435 39
5436 55
5437 46
5438 21
5439 3
5440 8
5441 23
5442 50
5443 15
5444 1
5445 6
5446 41
5447 53
5448 39
5449 0
5450 42
5451 21
5452 33
5453 8
5454 5
5455 23
5456 34
5457 47
5458 0
5459 2
5460 55
5461 5
5462 56
5463 6
5464 12
5465 43
5466 56
5467 23
5468 8
5469 43
5470 30
5471 30
5472 36
5473 65
5474 7
5475 51
5476 50
5477 8
5478 25
5479 41
5480 30
5481 8
5482 60
5483 57
5484 2
5485 10
5486 42
5487 7
5488 1
5489 12
5490 6
5491 20
5492 9
5493 54
5494 30
5495 8
5496 6
5497 67
5498 6
5499 40
5500 5
5501 9
5502 68
5503 5
5504 51
5505 40
5506 65
5507 3
5508 39
5509 23
5510 56
5511 10
5512 55
5513 16
5514 56
5515 64
5516 9
5517 18
5518 25
5519 4
5520 52
5521 2
5522 0
5523 17
5524 30
5525 9
5526 9
5527 62
5528 20
5529 24
5530 52
5531 28
5532 61
5533 56
5534 58
5535 27
5536 5
5537 58
5538 31
5539 51
5540 37
5541 39
5542 27
5543 37
5544 32
5545 41
5546 28
5547 6
5548 6
5549 30
5550 46
5551 31
5552 23
5553 50
5554 7
5555 5
5556 39
5557 5
5558 27
5559 1
5560 23
5561 22
5562 56
5563 9
5564 41
5565 54
5566 12
5567 60
5568 35
5569 23
5570 9
5571 5
5572 22
5573 29
5574 4
5575 0
5576 28
5577 10
5578 40
5579 4
5580 55
5581 56
5582 16
5583 58
5584 56
5585 12
5586 31
5587 43
5588 17
5589 6
5590 4
5591 39
5592 22
5593 9
5594 60
5595 31
5596 8
5597 8
5598 8
5599 51
5600 47
5601 16
5602 54
5603 39
5604 40
5605 51
5606 52
5607 60
5608 5
5609 30
5610 33
5611 36
5612 12
5613 17
5614 51
5615 17
5616 9
5617 35
5618 37
5619 0
5620 5
5621 5
5622 37
5623 7
5624 0
5625 47
5626 22
5627 54
5628 37
5629 12
5630 12
5631 23
5632 38
5633 4
5634 10
5635 54
5636 56
5637 2
5638 34
5639 2
5640 8
5641 39
5642 12
5643 6
5644 2
5645 17
5646 41
5647 15
5648 44
5649 49
5650 18
5651 51
5652 50
5653 6
5654 39
5655 41
5656 25
5657 39
5658 3
5659 12
5660 50
5661 12
5662 40
5663 20
5664 46
5665 20
5666 65
5667 1
5668 66
5669 2
5670 48
5671 28
5672 62
5673 41
5674 26
5675 11
5676 44
5677 0
5678 54
5679 17
5680 20
5681 65
5682 5
5683 30
5684 34
5685 54
5686 9
5687 18
5688 0
5689 59
5690 39
5691 34
5692 19
5693 30
5694 54
5695 17
5696 5
5697 17
5698 34
5699 34
5700 36
5701 55
5702 34
5703 2
5704 2
5705 50
5706 29
5707 38
5708 23
5709 2
5710 50
5711 52
5712 8
5713 2
5714 6
5715 60
5716 31
5717 60
5718 20
5719 20
5720 12
5721 17
5722 0
5723 13
5724 65
5725 18
5726 10
5727 34
5728 68
5729 2
5730 54
5731 56
5732 58
5733 32
5734 9
5735 55
5736 41
5737 5
5738 8
5739 68
5740 0
5741 51
5742 17
5743 60
5744 9
5745 9
5746 17
5747 6
5748 51
5749 9
5750 10
5751 47
5752 56
5753 60
5754 58
5755 8
5756 36
5757 34
5758 27
5759 61
5760 2
5761 25
5762 39
5763 36
5764 32
5765 38
5766 12
5767 6
5768 1
5769 2
5770 9
5771 9
5772 60
5773 4
5774 33
5775 68
5776 51
5777 54
5778 55
5779 40
5780 55
5781 54
5782 2
5783 20
5784 37
5785 30
5786 68
5787 17
5788 50
5789 9
5790 2
5791 40
5792 39
5793 0
5794 36
5795 5
5796 44
5797 20
5798 25
5799 27
5800 48
5801 58
5802 16
5803 34
5804 39
5805 56
5806 37
5807 10
5808 36
5809 24
5810 31
5811 9
5812 19
5813 6
5814 37
5815 24
5816 9
5817 40
5818 5
5819 19
5820 51
5821 52
5822 28
5823 54
5824 0
5825 56
5826 16
5827 34
5828 31
5829 36
5830 3
5831 50
5832 8
5833 68
5834 10
5835 51
5836 4
5837 26
5838 5
5839 31
5840 4
5841 57
5842 67
5843 38
5844 56
5845 12
5846 0
5847 39
5848 45
5849 3
5850 49
5851 43
5852 38
5853 41
5854 9
5855 24
5856 41
5857 24
5858 34
5859 50
5860 3
5861 34
5862 36
5863 3
5864 23
5865 52
5866 9
5867 52
5868 19
5869 20
5870 51
5871 40
5872 0
5873 1
5874 30
5875 41
5876 59
5877 65
5878 17
5879 6
5880 6
5881 36
5882 0
5883 25
5884 17
5885 28
5886 17
5887 34
5888 50
5889 9
5890 44
5891 6
5892 52
5893 46
5894 2
5895 34
5896 65
5897 42
5898 1
5899 21
5900 36
5901 10
5902 0
5903 23
5904 4
5905 36
5906 48
5907 12
5908 65
5909 3
5910 12
5911 17
5912 41
5913 9
5914 15
5915 19
5916 20
5917 56
5918 60
5919 67
5920 3
5921 6
5922 47
5923 19
5924 68
5925 20
5926 57
5927 6
5928 34
5929 54
5930 10
5931 9
5932 32
5933 56
5934 30
5935 16
5936 39
5937 6
5938 36
5939 56
5940 5
5941 8
5942 17
5943 51
5944 37
5945 26
5946 34
5947 5
5948 56
5949 10
5950 23
5951 0
5952 34
5953 2
5954 5
5955 31
5956 5
5957 3
5958 17
5959 29
5960 19
5961 54
5962 23
5963 58
5964 20
5965 19
5966 12
5967 19
5968 17
5969 51
5970 17
5971 2
5972 51
5973 46
5974 0
5975 38
5976 28
5977 56
5978 6
5979 15
5980 4
5981 51
5982 52
5983 51
5984 52
5985 61
5986 36
5987 48
5988 10
5989 10
5990 17
5991 47
5992 31
5993 12
5994 18
5995 12
5996 44
5997 50
5998 11
5999 41
6000 0
6001 16
6002 36
6003 13
6004 60
6005 36
6006 29
6007 34
6008 9
6009 9
6010 34
6011 4
6012 12
6013 27
6014 54
6015 9
6016 6
6017 56
6018 58
6019 31
6020 8
6021 4
6022 46
6023 29
6024 30
6025 10
6026 5
6027 8
6028 2
6029 9
6030 60
6031 12
6032 36
6033 17
6034 39
6035 6
6036 50
6037 22
6038 54
6039 20
6040 6
6041 36
6042 52
6043 41
6044 2
6045 35
6046 39
6047 66
6048 59
6049 25
6050 8
6051 8
6052 24
6053 5
6054 40
6055 0
6056 25
6057 24
6058 30
6059 34
6060 36
6061 9
6062 53
6063 22
6064 54
6065 18
6066 46
6067 5
6068 30
6069 8
6070 25
6071 50
6072 1
6073 52
6074 58
6075 5
6076 31
6077 60
6078 6
6079 2
6080 31
6081 34
6082 2
6083 62
6084 0
6085 36
6086 43
6087 2
6088 52
6089 28
6090 6
6091 56
6092 50
6093 6
6094 16
6095 52
6096 56
6097 56
6098 60
6099 30
6100 34
6101 51
6102 52
6103 46
6104 6
6105 36
6106 0
6107 51
6108 12
6109 6
6110 48
6111 51
6112 5
6113 2
6114 36
6115 55
6116 0
6117 34
6118 1
6119 51
6120 61
6121 5
6122 66
6123 29
6124 2
6125 51
6126 62
6127 50
6128 0
6129 20
6130 6
6131 6
6132 54
6133 40
6134 31
6135 52
6136 40
6137 9
6138 35
6139 25
6140 1
6141 20
6142 64
6143 34
6144 9
6145 20
6146 49
6147 9
6148 27
6149 30
6150 50
6151 52
6152 50
6153 17
6154 57
6155 58
6156 23
6157 28
6158 36
6159 50
6160 38
6161 20
6162 51
6163 2
6164 6
6165 4
6166 5
6167 35
6168 56
6169 9
6170 30
6171 5
6172 4
6173 4
6174 17
6175 5
6176 20
6177 17
6178 63
6179 46
6180 50
6181 5
6182 47
6183 57
6184 47
6185 3
6186 8
6187 56
6188 26
6189 40
6190 38
6191 37
6192 35
6193 9
6194 50
6195 50
6196 54
6197 6
6198 13
6199 0
6200 0
6201 38
6202 0
6203 5
6204 8
6205 39
6206 40
6207 25
6208 23
6209 34
6210 40
6211 60
6212 56
6213 20
6214 12
6215 31
6216 35
6217 6
6218 40
6219 20
6220 8
6221 4
6222 31
6223 6
6224 51
6225 32
6226 60
6227 4
6228 31
6229 6
6230 38
6231 27
6232 37
6233 6
6234 46
6235 67
6236 15
6237 3
6238 2
6239 31
6240 34
6241 5
6242 17
6243 18
6244 6
6245 5
6246 0
6247 54
6248 4
6249 56
6250 0
6251 35
6252 39
6253 50
6254 60
6255 17
6256 55
6257 7
6258 44
6259 20
6260 37
6261 39
6262 30
6263 9
6264 29
6265 41
6266 55
6267 22
6268 50
6269 41
6270 5
6271 2
6272 6
6273 36
6274 12
6275 30
6276 54
6277 38
6278 10
6279 2
6280 34
6281 30
6282 14
6283 32
6284 56
6285 3
6286 23
6287 63
6288 6
6289 5
6290 19
6291 24
6292 51
6293 64
6294 52
6295 42
6296 5
6297 65
6298 39
6299 34
6300 0
6301 30
6302 55
6303 39
6304 6
6305 42
6306 2
6307 34
6308 9
6309 57
6310 39
6311 30
6312 1
6313 32
6314 40
6315 12
6316 17
6317 34
6318 43
6319 28
6320 8
6321 5
6322 11
6323 52
6324 23
6325 24
6326 20
6327 10
6328 58
6329 20
6330 3
6331 34
6332 12
6333 23
6334 34
6335 8
6336 13
6337 35
6338 60
6339 47
6340 1
6341 50
6342 65
6343 26
6344 20
6345 32
6346 61
6347 9
6348 31
6349 62
6350 54
6351 5
6352 5
6353 9
6354 49
6355 8
6356 44
6357 8
6358 28
6359 9
6360 50
6361 39
6362 50
6363 63
6364 0
6365 21
6366 33
6367 40
6368 47
6369 19
6370 20
6371 35
6372 56
6373 23
6374 4
6375 13
6376 51
6377 3
6378 41
6379 20
6380 26
6381 32
6382 5
6383 56
6384 56
6385 36
6386 56
6387 50
6388 8
6389 13
6390 2
6391 65
6392 5
6393 41
6394 50
6395 56
6396 51
6397 0
6398 13
6399 2
6400 36
6401 31
6402 10
6403 0
6404 6
6405 50
6406 37
6407 54
6408 49
6409 28
6410 65
6411 10
6412 17
6413 51
6414 51
6415 56
6416 32
6417 12
6418 56
6419 51
6420 55
6421 34
6422 12
6423 11
6424 30
6425 31
6426 13
6427 9
6428 10
6429 41
6430 64
6431 6
6432 50
6433 53
6434 51
6435 30
6436 8
6437 18
6438 44
6439 39
6440 54
6441 30
6442 32
6443 36
6444 9
6445 36
6446 9
6447 0
6448 60
6449 5
6450 8
6451 9
6452 62
6453 51
6454 48
6455 30
6456 52
6457 17
6458 32
6459 10
6460 35
6461 6
6462 8
6463 37
6464 53
6465 44
6466 46
6467 41
6468 20
6469 9
6470 0
6471 60
6472 36
6473 23
6474 3
6475 68
6476 2
6477 0
6478 30
6479 6
6480 49
6481 30
6482 33
6483 3
6484 68
6485 32
6486 26
6487 36
6488 0
6489 48
6490 54
6491 0
6492 23
6493 29
6494 20
6495 58
6496 32
6497 30
6498 23
6499 60
6500 32
6501 19
6502 28
6503 23
6504 6
6505 8
6506 38
6507 28
6508 42
6509 52
6510 27
6511 6
6512 10
6513 36
6514 56
6515 55
6516 36
6517 9
6518 0
6519 42
6520 34
6521 51
6522 6
6523 30
6524 50
6525 21
6526 30
6527 56
6528 5
6529 20
6530 6
6531 54
6532 12
6533 4
6534 46
6535 36
6536 15
6537 44
6538 30
6539 30
6540 55
6541 50
6542 2
6543 6
6544 33
6545 12
6546 43
6547 9
6548 2
6549 17
6550 2
6551 46
6552 45
6553 50
6554 5
6555 18
6556 4
6557 60
6558 41
6559 36
6560 16
6561 15
6562 38
6563 9
6564 53
6565 51
6566 21
6567 4
6568 19
6569 50
6570 2
6571 42
6572 20
6573 8
6574 39
6575 55
6576 55
6577 41
6578 58
6579 58
6580 20
6581 25
6582 41
6583 47
6584 43
6585 63
6586 10
6587 60
6588 42
6589 5
6590 0
6591 56
6592 23
6593 9
6594 55
6595 43
6596 50
6597 51
6598 18
6599 40
6600 58
6601 10
6602 58
6603 10
6604 31
6605 21
6606 15
6607 28
6608 57
6609 11
6610 5
6611 4
6612 4
6613 4
6614 15
6615 60
6616 33
6617 8
6618 23
6619 2
6620 41
6621 58
6622 51
6623 0
6624 56
6625 2
6626 10
6627 54
6628 50
6629 12
6630 1
6631 50
6632 4
6633 56
6634 41
6635 60
6636 51
6637 3
6638 40
6639 54
6640 62
6641 4
6642 5
6643 23
6644 1
6645 18
6646 8
6647 55
6648 20
6649 30
6650 2
6651 5
6652 34
6653 38
6654 35
6655 49
6656 48
6657 9
6658 6
6659 15
6660 3
6661 35
6662 40
6663 6
6664 6
6665 30
6666 22
6667 60
6668 44
6669 38
6670 25
6671 36
6672 62
6673 60
6674 18
6675 9
6676 1
6677 51
6678 37
6679 17
6680 51
6681 34
6682 20
6683 30
6684 51
6685 51
6686 40
6687 12
6688 50
6689 50
6690 48
6691 40
6692 20
6693 56
6694 51
6695 6
6696 52
6697 51
6698 3
6699 54
6700 12
6701 48
6702 50
6703 4
6704 9
6705 50
6706 6
6707 16
6708 51
6709 18
6710 7
6711 34
6712 30
6713 9
6714 56
6715 31
6716 65
6717 46
6718 17
6719 37
6720 37
6721 53
6722 3
6723 51
6724 23
6725 56
6726 39
6727 37
6728 1
6729 12
6730 38
6731 6
6732 47
6733 37
6734 31
6735 30
6736 42
6737 43
6738 18
6739 37
6740 17
6741 17
6742 38
6743 39
6744 51
6745 26
6746 49
6747 10
6748 50
6749 27
6750 56
6751 38
6752 40
6753 57
6754 55
6755 6
6756 0
6757 31
6758 15
6759 12
6760 29
6761 65
6762 6
6763 29
6764 0
6765 17
6766 54
6767 17
6768 42
6769 62
6770 60
6771 4
6772 4
6773 56
6774 51
6775 0
6776 13
6777 10
6778 3
6779 57
6780 6
6781 34
6782 54
6783 12
6784 36
6785 15
6786 6
6787 0
6788 25
6789 51
6790 34
6791 4
6792 56
6793 5
6794 5
6795 0
6796 9
6797 36
6798 36
6799 32
6800 34
6801 50
6802 3
6803 4
6804 20
6805 20
6806 50
6807 10
6808 17
6809 52
6810 60
6811 32
6812 50
6813 18
6814 17
6815 5
6816 2
6817 41
6818 36
6819 13
6820 2
6821 65
6822 2
6823 26
6824 31
6825 51
6826 17
6827 61
6828 55
6829 13
6830 20
6831 29
6832 20
6833 37
6834 52
6835 17
6836 36
6837 64
6838 6
6839 44
6840 56
6841 47
6842 9
6843 35
6844 34
6845 1
6846 56
6847 3
6848 15
6849 42
6850 36
6851 47
6852 1
6853 5
6854 2
6855 18
6856 20
6857 60
6858 34
6859 64
6860 62
6861 60
6862 10
6863 23
6864 46
6865 56
6866 5
6867 60
6868 25
6869 6
6870 31
6871 34
6872 20
6873 10
6874 37
6875 34
6876 36
6877 24
6878 8
6879 40
6880 26
6881 51
6882 4
6883 55
6884 21
6885 4
6886 3
6887 31
6888 51
6889 45
6890 10
6891 2
6892 6
6893 51
6894 68
6895 9
6896 20
6897 23
6898 30
6899 10
6900 9
6901 0
6902 52
6903 17
6904 60
6905 31
6906 62
6907 36
6908 2
6909 8
6910 40
6911 12
6912 54
6913 27
6914 30
6915 42
6916 6
6917 28
6918 44
6919 36
6920 51
6921 3
6922 41
6923 57
6924 56
6925 20
6926 56
6927 17
6928 33
6929 50
6930 6
6931 20
6932 52
6933 5
6934 17
6935 36
6936 54
6937 11
6938 1
6939 22
6940 12
6941 42
6942 29
6943 1
6944 57
6945 4
6946 52
6947 25
6948 0
6949 28
6950 41
6951 0
6952 46
6953 31
6954 3
6955 17
6956 34
6957 13
6958 49
6959 42
6960 0
6961 51
6962 31
6963 9
6964 34
6965 28
6966 30
6967 51
6968 54
6969 5
6970 51
6971 13
6972 16
6973 5
6974 39
6975 5
6976 60
6977 37
6978 41
6979 51
6980 2
6981 60
6982 0
6983 31
6984 6
6985 23
6986 39
6987 17
6988 6
6989 30
6990 35
6991 41
6992 39
6993 38
6994 6
6995 0
6996 34
6997 6
6998 30
6999 36
7000 51
7001 30
7002 10
7003 50
7004 30
7005 6
7006 60
7007 25
7008 48
7009 34
7010 3
7011 68
7012 32
7013 30
7014 53
7015 15
7016 52
7017 30
7018 27
7019 2
7020 44
7021 14
7022 47
7023 17
7024 20
7025 4
7026 37
7027 4
7028 3
7029 4
7030 47
7031 30
7032 5
7033 18
7034 38
7035 9
7036 28
7037 30
7038 63
7039 1
7040 6
7041 35
7042 20
7043 25
7044 32
7045 46
7046 4
7047 29
7048 5
7049 2
7050 68
7051 10
7052 40
7053 33
7054 52
7055 44
7056 40
7057 41
7058 41
7059 50
7060 43
7061 52
7062 5
7063 67
7064 8
7065 9
7066 54
7067 56
7068 10
7069 34
7070 46
7071 20
7072 29
7073 7
7074 6
7075 39
7076 55
7077 5
7078 6
7079 9
7080 22
7081 34
7082 31
7083 9
7084 4
7085 56
7086 32
7087 52
7088 37
7089 51
7090 7
7091 33
7092 52
7093 30
7094 2
7095 15
7096 50
7097 25
7098 2
7099 37
7100 1
7101 30
7102 42
7103 9
7104 58
7105 12
7106 4
7107 40
7108 63
7109 29
7110 23
7111 34
7112 32
7113 36
7114 40
7115 6
7116 41
7117 23
7118 13
7119 60
7120 9
7121 20
7122 40
7123 51
7124 3
7125 26
7126 6
7127 30
7128 2
7129 3
7130 8
7131 6
7132 10
7133 17
7134 2
7135 64
7136 1
7137 20
7138 5
7139 56
7140 51
7141 44
7142 2
7143 36
7144 2
7145 36
7146 64
7147 47
7148 4
7149 36
7150 4
7151 0
7152 20
7153 10
7154 38
7155 60
7156 48
7157 17
7158 54
7159 17
7160 60
7161 35
7162 5
7163 21
7164 17
7165 6
7166 5
7167 61
7168 38
7169 34
7170 8
7171 0
7172 20
7173 0
7174 14
7175 31
7176 36
7177 30
7178 30
7179 23
7180 68
7181 9
7182 61
7183 50
7184 8
7185 20
7186 34
7187 56
7188 22
7189 4
7190 0
7191 1
7192 17
7193 23
7194 44
7195 35
7196 30
7197 49
7198 5
7199 9
7200 67
7201 9
7202 9
7203 51
7204 10
7205 19
7206 32
7207 38
7208 8
7209 0
7210 52
7211 53
7212 59
7213 65
7214 37
7215 22
7216 5
7217 6
7218 1
7219 28
7220 17
7221 42
7222 44
7223 53
7224 51
7225 66
7226 44
7227 56
7228 25
7229 9
7230 17
7231 57
7232 48
7233 56
7234 5
7235 54
7236 0
7237 2
7238 15
7239 34
7240 39
7241 15
7242 56
7243 8
7244 5
7245 3
7246 54
7247 4
7248 12
7249 54
7250 68
7251 16
7252 38
7253 42
7254 37
7255 51
7256 30
7257 17
7258 43
7259 29
7260 60
7261 21
7262 1
7263 4
7264 2
7265 23
7266 35
7267 45
7268 27
7269 10
7270 8
7271 20
7272 48
7273 5
7274 40
7275 0
7276 20
7277 51
7278 51
7279 35
7280 9
7281 0
7282 0
7283 37
7284 27
7285 5
7286 36
7287 45
7288 54
7289 40
7290 41
7291 8
7292 23
7293 1
7294 23
7295 30
7296 0
7297 5
7298 23
7299 5
7300 41
7301 52
7302 34
7303 10
7304 2
7305 28
7306 50
7307 9
7308 36
7309 0
7310 50
7311 55
7312 30
7313 41
7314 5
7315 29
7316 39
7317 9
7318 19
7319 35
7320 37
7321 8
7322 30
7323 30
7324 25
7325 13
7326 46
7327 41
7328 2
7329 63
7330 12
7331 6
7332 8
7333 12
7334 0
7335 12
7336 60
7337 48
7338 50
7339 6
7340 23
7341 6
7342 56
7343 2
7344 23
7345 27
7346 1
7347 54
7348 36
7349 66
7350 39
7351 8
7352 30
7353 31
7354 20
7355 40
7356 8
7357 67
7358 2
7359 35
7360 22
7361 17
7362 55
7363 60
7364 19
7365 48
7366 5
7367 38
7368 23
7369 12
7370 5
7371 12
7372 28
7373 13
7374 8
7375 7
7376 6
7377 41
7378 60
7379 36
7380 44
7381 31
7382 16
7383 36
7384 67
7385 3
7386 51
7387 35
7388 3
7389 17
7390 40
7391 47
7392 3
7393 12
7394 5
7395 0
7396 31
7397 5
7398 25
7399 17
7400 38
7401 6
7402 56
7403 12
7404 65
7405 14
7406 28
7407 52
7408 10
7409 60
7410 24
7411 3
7412 21
7413 0
7414 0
7415 12
7416 20
7417 56
7418 63
7419 0
7420 10
7421 54
7422 40
7423 11
7424 12
7425 28
7426 9
7427 15
7428 31
7429 20
7430 6
7431 56
7432 55
7433 43
7434 24
7435 51
7436 12
7437 51
7438 4
7439 38
7440 34
7441 55
7442 10
7443 9
7444 1
7445 32
7446 30
7447 56
7448 60
7449 5
7450 20
7451 50
7452 40
7453 9
7454 23
7455 64
7456 10
7457 18
7458 42
7459 54
7460 8
7461 54
7462 56
7463 38
7464 8
7465 34
7466 6
7467 18
7468 56
7469 3
7470 34
7471 23
7472 11
7473 39
7474 56
7475 54
7476 4
7477 16
7478 9
7479 56
7480 6
7481 64
7482 5
7483 0
7484 31
7485 64
7486 5
7487 17
7488 50
7489 51
7490 25
7491 0
7492 25
7493 52
7494 39
7495 41
7496 36
7497 56
7498 46
7499 24
7500 8
7501 51
7502 20
7503 17
7504 9
7505 56
7506 20
7507 6
7508 17
7509 9
7510 54
7511 39
7512 68
7513 4
7514 56
7515 39
7516 39
7517 41
7518 27
7519 10
7520 51
7521 2
7522 51
7523 17
7524 2
7525 38
7526 5
7527 68
7528 9
7529 0
7530 32
7531 34
7532 30
7533 1
7534 8
7535 40
7536 44
7537 20
7538 36
7539 10
7540 26
7541 5
7542 1
7543 30
7544 31
7545 38
7546 15
7547 4
7548 34
7549 50
7550 54
7551 23
7552 16
7553 6
7554 55
7555 55
7556 13
7557 5
7558 8
7559 4
7560 4
7561 7
7562 3
7563 65
7564 39
7565 2
7566 51
7567 56
7568 0
7569 39
7570 8
7571 6
7572 40
7573 56
7574 50
7575 29
7576 5
7577 23
7578 31
7579 4
7580 9
7581 23
7582 51
7583 2
7584 0
7585 1
7586 9
7587 5
7588 28
7589 5
7590 42
7591 17
7592 42
7593 34
7594 51
7595 20
7596 31
7597 5
7598 2
7599 9
7600 20
7601 5
7602 2
7603 60
7604 43
7605 12
7606 49
7607 51
7608 42
7609 36
7610 27
7611 12
7612 10
7613 27
7614 51
7615 56
7616 8
7617 58
7618 0
7619 51
7620 15
7621 36
7622 39
7623 18
7624 44
7625 50
7626 39
7627 6
7628 0
7629 28
7630 26
7631 51
7632 2
7633 5
7634 36
7635 6
7636 51
7637 10
7638 8
7639 58
7640 2
7641 50
7642 42
7643 3
7644 30
7645 5
7646 12
7647 26
7648 34
7649 8
7650 2
7651 0
7652 38
7653 52
7654 36
7655 42
7656 25
7657 23
7658 51
7659 41
7660 26
7661 11
7662 51
7663 50
7664 38
7665 58
7666 36
7667 46
7668 6
7669 20
7670 50
7671 41
7672 4
7673 51
7674 20
7675 38
7676 9
7677 34
7678 0
7679 0
7680 25
7681 12
7682 4
7683 6
7684 34
7685 5
7686 8
7687 5
7688 30
7689 5
7690 36
7691 24
7692 39
7693 68
7694 46
7695 5
7696 4
7697 1
7698 30
7699 36
7700 28
7701 54
7702 49
7703 57
7704 40
7705 56
7706 65
7707 54
7708 39
7709 16
7710 0
7711 10
7712 10
7713 32
7714 40
7715 13
7716 15
7717 5
7718 21
7719 0
7720 8
7721 0
7722 38
7723 3
7724 8
7725 28
7726 0
7727 44
7728 0
7729 35
7730 51
7731 41
7732 56
7733 2
7734 31
7735 18
7736 53
7737 41
7738 51
7739 44
7740 51
7741 61
7742 6
7743 49
7744 50
7745 8
7746 25
7747 0
7748 37
7749 7
7750 64
7751 18
7752 36
7753 51
7754 51
7755 34
7756 5
7757 39
7758 17
7759 40
7760 1
7761 55
7762 55
7763 51
7764 8
7765 51
7766 40
7767 12
7768 34
7769 30
7770 51
7771 25
7772 12
7773 29
7774 17
7775 32
7776 31
7777 6
7778 52
7779 8
7780 51
7781 20
7782 9
7783 44
7784 9
7785 9
7786 59
7787 60
7788 40
7789 40
7790 38
7791 63
7792 56
7793 4
7794 51
7795 23
7796 5
7797 29
7798 50
7799 0
7800 6
7801 34
7802 60
7803 1
7804 18
7805 58
7806 13
7807 25
7808 32
7809 68
7810 52
7811 41
7812 59
7813 58
7814 51
7815 7
7816 49
7817 41
7818 11
7819 39
7820 4
7821 50
7822 6
7823 19
7824 10
7825 9
7826 40
7827 30
7828 0
7829 39
7830 4
7831 39
7832 8
7833 7
7834 36
7835 46
7836 6
7837 18
7838 18
7839 56
7840 40
7841 62
7842 30
7843 19
7844 38
7845 0
7846 10
7847 12
7848 23
7849 31
7850 54
7851 60
7852 3
7853 51
7854 10
7855 31
7856 20
7857 50
7858 31
7859 51
7860 5
7861 42
7862 35
7863 51
7864 57
7865 11
7866 54
7867 6
7868 64
7869 6
7870 26
7871 5
7872 48
7873 6
7874 3
7875 8
7876 30
7877 6
7878 34
7879 57
7880 7
7881 25
7882 2
7883 34
7884 35
7885 6
7886 34
7887 36
7888 13
7889 68
7890 43
7891 3
7892 32
7893 58
7894 20
7895 18
7896 53
7897 54
7898 67
7899 13
7900 37
7901 0
7902 12
7903 10
7904 39
7905 68
7906 4
7907 62
7908 47
7909 34
7910 40
7911 37
7912 50
7913 60
7914 6
7915 32
7916 6
7917 47
7918 16
7919 60
7920 6
7921 20
7922 5
7923 30
7924 8
7925 10
7926 51
7927 61
7928 52
7929 3
7930 6
7931 36
7932 6
7933 2
7934 8
7935 14
7936 4
7937 10
7938 39
7939 51
7940 6
7941 34
7942 7
7943 20
7944 8
7945 51
7946 10
7947 31
7948 28
7949 30
7950 20
7951 39
7952 49
7953 28
7954 10
7955 20
7956 5
7957 0
7958 44
7959 36
7960 42
7961 13
7962 37
7963 36
7964 5
7965 0
7966 17
7967 62
7968 46
7969 50
7970 6
7971 5
7972 36
7973 11
7974 20
7975 31
7976 35
7977 56
7978 68
7979 41
7980 68
7981 21
7982 44
7983 0
7984 8
7985 18
7986 36
7987 63
7988 36
7989 31
7990 41
7991 39
7992 2
7993 48
7994 51
7995 0
7996 32
7997 66
7998 66
7999 0
8000 9
8001 2
8002 51
8003 50
8004 38
8005 12
8006 36
8007 36
8008 10
8009 20
8010 10
8011 50
8012 17
8013 60
8014 6
8015 6
8016 20
8017 15
8018 0
8019 25
8020 61
8021 17
8022 0
8023 2
8024 4
8025 60
8026 6
8027 16
8028 61
8029 3
8030 35
8031 3
8032 56
8033 54
8034 18
8035 25
8036 1
8037 37
8038 1
8039 23
8040 54
8041 56
8042 52
8043 50
8044 17
8045 2
8046 35
8047 51
8048 32
8049 20
8050 4
8051 28
8052 31
8053 62
8054 8
8055 20
8056 39
8057 41
8058 20
8059 36
8060 5
8061 12
8062 23
8063 25
8064 2
8065 55
8066 34
8067 0
8068 18
8069 41
8070 55
8071 41
8072 51
8073 9
8074 31
8075 8
8076 8
8077 50
8078 20
8079 5
8080 56
8081 37
8082 56
8083 29
8084 50
8085 38
8086 49
8087 9
8088 34
8089 6
8090 34
8091 51
8092 30
8093 8
8094 2
8095 26
8096 17
8097 5
8098 23
8099 56
8100 30
8101 66
8102 48
8103 12
8104 3
8105 23
8106 60
8107 44
8108 55
8109 50
8110 0
8111 54
8112 7
8113 1
8114 53
8115 34
8116 29
8117 17
8118 10
8119 0
8120 7
8121 60
8122 60
8123 56
8124 46
8125 25
8126 56
8127 6
8128 36
8129 11
8130 30
8131 26
8132 23
8133 0
8134 9
8135 36
8136 44
8137 0
8138 51
8139 32
8140 49
8141 20
8142 6
8143 20
8144 56
8145 11
8146 68
8147 58
8148 9
8149 46
8150 30
8151 54
8152 18
8153 0
8154 4
8155 41
8156 36
8157 50
8158 0
8159 17
8160 9
8161 6
8162 9
8163 19
8164 3
8165 3
8166 57
8167 9
8168 3
8169 68
8170 35
8171 1
8172 30
8173 32
8174 5
8175 9
8176 51
8177 37
8178 6
8179 0
8180 6
8181 36
8182 23
8183 2
8184 28
8185 51
8186 39
8187 9
8188 21
8189 51
8190 54
8191 55
8192 5
8193 31
8194 64
8195 36
8196 30
8197 6
8198 36
8199 23
8200 60
8201 9
8202 68
8203 60
8204 6
8205 62
8206 3
8207 7
8208 10
8209 30
8210 12
8211 36
8212 30
8213 39
8214 0
8215 1
8216 0
8217 26
8218 56
8219 20
8220 54
8221 37
8222 43
8223 0
8224 62
8225 12
8226 9
8227 41
8228 4
8229 37
8230 9
8231 4
8232 60
8233 1
8234 41
8235 34
8236 38
8237 9
8238 20
8239 11
8240 6
8241 12
8242 9
8243 9
8244 11
8245 51
8246 44
8247 48
8248 31
8249 46
8250 18
8251 17
8252 39
8253 16
8254 58
8255 2
8256 34
8257 30
8258 5
8259 38
8260 47
8261 41
8262 25
8263 10
8264 37
8265 12
8266 60
8267 51
8268 15
8269 24
8270 62
8271 30
8272 28
8273 9
8274 62
8275 8
8276 40
8277 20
8278 28
8279 56
8280 30
8281 39
8282 2
8283 17
8284 23
8285 68
8286 54
8287 4
8288 35
8289 7
8290 50
8291 34
8292 54
8293 51
8294 31
8295 0
8296 2
8297 37
8298 67
8299 45
8300 57
8301 56
8302 56
8303 20
8304 17
8305 19
8306 4
8307 9
8308 6
8309 4
8310 57
8311 36
8312 8
8313 50
8314 30
8315 60
8316 40
8317 10
8318 26
8319 42
8320 6
8321 36
8322 64
8323 25
8324 33
8325 34
8326 42
8327 60
8328 30
8329 1
8330 8
8331 40
8332 29
8333 47
8334 28
8335 30
8336 10
8337 20
8338 36
8339 39
8340 18
8341 12
8342 31
8343 8
8344 9
8345 36
8346 23
8347 65
8348 0
8349 16
8350 51
8351 65
8352 44
8353 6
8354 40
8355 5
8356 3
8357 52
8358 17
8359 43
8360 32
8361 48
8362 1
8363 1
8364 56
8365 40
8366 46
8367 39
8368 56
8369 39
8370 4
8371 42
8372 61
8373 52
8374 6
8375 48
8376 56
8377 9
8378 49
8379 5
8380 68
8381 50
8382 40
8383 9
8384 3
8385 18
8386 35
8387 13
8388 51
8389 36
8390 38
8391 51
8392 12
8393 65
8394 39
8395 36
8396 25
8397 35
8398 32
8399 63
8400 2
8401 33
8402 2
8403 0
8404 28
8405 57
8406 39
8407 10
8408 54
8409 38
8410 8
8411 8
8412 5
8413 9
8414 39
8415 50
8416 25
8417 37
8418 39
8419 35
8420 5
8421 47
8422 22
8423 56
8424 13
8425 56
8426 56
8427 41
8428 6
8429 49
8430 46
8431 39
8432 9
8433 35
8434 57
8435 50
8436 12
8437 35
8438 0
8439 40
8440 16
8441 28
8442 6
8443 54
8444 49
8445 23
8446 68
8447 0
8448 28
8449 4
8450 8
8451 9
8452 41
8453 48
8454 29
8455 49
8456 0
8457 40
8458 49
8459 5
8460 41
8461 31
8462 36
8463 55
8464 22
8465 51
8466 3
8467 31
8468 47
8469 9
8470 48
8471 37
8472 38
8473 32
8474 27
8475 11
8476 39
8477 27
8478 67
8479 13
8480 48
8481 6
8482 56
8483 0
8484 30
8485 23
8486 52
8487 56
8488 6
8489 4
8490 42
8491 40
8492 46
8493 17
8494 2
8495 9
8496 50
8497 4
8498 16
8499 56
8500 4
8501 66
8502 8
8503 40
8504 12
8505 39
8506 50
8507 30
8508 51
8509 36
8510 2
8511 51
8512 2
8513 50
8514 23
8515 5
8516 8
8517 50
8518 10
8519 35
8520 54
8521 21
8522 28
8523 5
8524 59
8525 54
8526 18
8527 20
8528 60
8529 10
8530 64
8531 56
8532 17
8533 4
8534 50
8535 12
8536 68
8537 28
8538 54
8539 13
8540 0
8541 8
8542 53
8543 20
8544 39
8545 12
8546 23
8547 8
8548 12
8549 30
8550 19
8551 8
8552 23
8553 15
8554 2
8555 23
8556 13
8557 20
8558 51
8559 30
8560 32
8561 20
8562 13
8563 56
8564 60
8565 54
8566 41
8567 29
8568 55
8569 38
8570 0
8571 24
8572 56
8573 2
8574 25
8575 0
8576 56
8577 35
8578 52
8579 8
8580 56
8581 37
8582 25
8583 15
8584 32
8585 56
8586 6
8587 34
8588 2
8589 30
8590 48
8591 60
8592 19
8593 31
8594 29
8595 2
8596 40
8597 51
8598 60
8599 50
8600 9
8601 0
8602 38
8603 34
8604 34
8605 47
8606 9
8607 23
8608 40
8609 22
8610 18
8611 6
8612 68
8613 43
8614 8
8615 23
8616 9
8617 20
8618 38
8619 0
8620 17
8621 15
8622 6
8623 51
8624 51
8625 39
8626 39
8627 52
8628 5
8629 40
8630 44
8631 2
8632 17
8633 3
8634 12
8635 51
8636 36
8637 12
8638 8
8639 56
8640 41
8641 32
8642 0
8643 20
8644 6
8645 59
8646 33
8647 40
8648 38
8649 8
8650 24
8651 21
8652 13
8653 60
8654 51
8655 23
8656 66
8657 13
8658 20
8659 5
8660 54
8661 23
8662 49
8663 36
8664 12
8665 59
8666 9
8667 19
8668 0
8669 23
8670 16
8671 65
8672 62
8673 8
8674 23
8675 31
8676 6
8677 34
8678 59
8679 1
8680 23
8681 16
8682 20
8683 8
8684 42
8685 36
8686 58
8687 0
8688 36
8689 2
8690 24
8691 0
8692 6
8693 40
8694 8
8695 10
8696 23
8697 15
8698 12
8699 50
8700 37
8701 6
8702 56
8703 8
8704 60
8705 34
8706 56
8707 5
8708 39
8709 23
8710 23
8711 10
8712 13
8713 17
8714 42
8715 7
8716 20
8717 47
8718 51
8719 25
8720 39
8721 8
8722 36
8723 25
8724 6
8725 20
8726 3
8727 21
8728 63
8729 4
8730 5
8731 27
8732 30
8733 8
8734 59
8735 51
8736 17
8737 2
8738 3
8739 25
8740 58
8741 23
8742 44
8743 8
8744 68
8745 15
8746 34
8747 35
8748 35
8749 9
8750 51
8751 56
8752 50
8753 23
8754 55
8755 60
8756 11
8757 0
8758 34
8759 10
8760 30
8761 5
8762 60
8763 40
8764 1
8765 43
8766 51
8767 52
8768 1
8769 41
8770 18
8771 7
8772 0
8773 21
8774 60
8775 5
8776 67
8777 30
8778 0
8779 6
8780 25
8781 18
8782 45
8783 58
8784 9
8785 0
8786 5
8787 50
8788 59
8789 34
8790 26
8791 2
8792 51
8793 41
8794 0
8795 9
8796 2
8797 41
8798 12
8799 55
8800 51
8801 16
8802 20
8803 2
8804 60
8805 10
8806 35
8807 3
8808 28
8809 60
8810 30
8811 30
8812 64
8813 32
8814 6
8815 59
8816 39
8817 33
8818 45
8819 41
8820 51
8821 8
8822 51
8823 62
8824 63
8825 46
8826 43
8827 50
8828 48
8829 31
8830 41
8831 23
8832 9
8833 12
8834 50
8835 28
8836 31
8837 39
8838 17
8839 26
8840 23
8841 30
8842 4
8843 6
8844 54
8845 56
8846 30
8847 57
8848 40
8849 3
8850 2
8851 35
8852 23
8853 18
8854 62
8855 6
8856 4
8857 23
8858 23
8859 16
8860 50
8861 35
8862 6
8863 35
8864 47
8865 8
8866 4
8867 15
8868 16
8869 28
8870 2
8871 66
8872 2
8873 6
8874 1
8875 9
8876 30
8877 5
8878 36
8879 51
8880 50
8881 4
8882 17
8883 17
8884 50
8885 30
8886 2
8887 54
8888 39
8889 10
8890 6
8891 30
8892 18
8893 31
8894 46
8895 34
8896 28
8897 0
8898 60
8899 38
8900 22
8901 42
8902 38
8903 20
8904 41
8905 46
8906 32
8907 39
8908 4
8909 54
8910 39
8911 13
8912 29
8913 50
8914 50
8915 1
8916 10
8917 39
8918 54
8919 54
8920 33
8921 47
8922 34
8923 4
8924 30
8925 6
8926 11
8927 66
8928 30
8929 60
8930 67
8931 34
8932 34
8933 10
8934 2
8935 9
8936 31
8937 56
8938 37
8939 28
8940 44
8941 26
8942 20
8943 55
8944 57
8945 40
8946 56
8947 30
8948 18
8949 50
8950 0
8951 9
8952 44
8953 62
8954 43
8955 50
8956 5
8957 41
8958 0
8959 37
8960 8
8961 12
8962 9
8963 5
8964 58
8965 30
8966 51
8967 18
8968 36
8969 6
8970 47
8971 12
8972 25
8973 32
8974 1
8975 63
8976 65
8977 36
8978 6
8979 37
8980 6
8981 38
8982 39
8983 51
8984 0
8985 23
8986 23
8987 4
8988 23
8989 65
8990 36
8991 55
8992 36
8993 64
8994 62
8995 30
8996 46
8997 17
8998 2
8999 3
9000 36
9001 52
9002 6
9003 51
9004 56
9005 6
9006 20
9007 68
9008 20
9009 1
9010 41
9011 15
9012 8
9013 39
9014 3
9015 51
9016 9
9017 35
9018 51
9019 6
9020 25
9021 9
9022 41
9023 52
9024 55
9025 56
9026 35
9027 30
9028 8
9029 41
9030 63
9031 4
9032 21
9033 54
9034 55
9035 6
9036 58
9037 52
9038 12
9039 52
9040 12
9041 0
9042 40
9043 17
9044 12
9045 39
9046 35
9047 25
9048 38
9049 42
9050 12
9051 49
9052 3
9053 4
9054 12
9055 34
9056 2
9057 21
9058 30
9059 47
9060 4
9061 8
9062 40
9063 51
9064 49
9065 41
9066 62
9067 11
9068 25
9069 44
9070 2
9071 0
9072 51
9073 37
9074 9
9075 56
9076 25
9077 52
9078 5
9079 3
9080 52
9081 2
9082 35
9083 41
9084 32
9085 51
9086 30
9087 4
9088 41
9089 20
9090 9
9091 39
9092 42
9093 3
9094 56
9095 58
9096 54
9097 2
9098 13
9099 1
9100 22
9101 4
9102 48
9103 42
9104 0
9105 32
9106 15
9107 18
9108 31
9109 36
9110 31
9111 38
9112 4
9113 12
9114 17
9115 23
9116 25
9117 60
9118 39
9119 67
9120 17
9121 10
9122 36
9123 51
9124 9
9125 50
9126 41
9127 2
9128 30
9129 3
9130 51
9131 52
9132 34
9133 57
9134 20
9135 9
9136 35
9137 33
9138 10
9139 9
9140 63
9141 14
9142 60
9143 52
9144 31
9145 35
9146 9
9147 41
9148 51
9149 37
9150 5
9151 25
9152 12
9153 33
9154 10
9155 56
9156 62
9157 67
9158 64
9159 1
9160 23
9161 3
9162 6
9163 36
9164 50
9165 0
9166 12
9167 0
9168 20
9169 40
9170 9
9171 33
9172 51
9173 17
9174 54
9175 47
9176 56
9177 50
9178 2
9179 46
9180 6
9181 2
9182 41
9183 0
9184 60
9185 44
9186 0
9187 32
9188 0
9189 0
9190 1
9191 6
9192 60
9193 36
9194 4
9195 42
9196 36
9197 26
9198 55
9199 32
9200 31
9201 49
9202 33
9203 6
9204 58
9205 0
9206 1
9207 16
9208 49
9209 31
9210 3
9211 5
9212 55
9213 17
9214 36
9215 23
9216 28
9217 6
9218 34
9219 5
9220 12
9221 1
9222 37
9223 41
9224 25
9225 36
9226 68
9227 26
9228 36
9229 23
9230 8
9231 66
9232 2
9233 3
9234 0
9235 48
9236 7
9237 7
9238 34
9239 5
9240 5
9241 9
9242 10
9243 29
9244 58
9245 10
9246 50
9247 68
9248 2
9249 32
9250 23
9251 20
9252 4
9253 5
9254 5
9255 66
9256 8
9257 20
9258 51
9259 17
9260 12
9261 28
9262 30
9263 1
9264 9
9265 68
9266 3
9267 39
9268 23
9269 51
9270 50
9271 6
9272 51
9273 0
9274 2
9275 38
9276 34
9277 25
9278 35
9279 17
9280 16
9281 23
9282 40
9283 40
9284 42
9285 8
9286 46
9287 12
9288 10
9289 18
9290 51
9291 58
9292 65
9293 43
9294 2
9295 64
9296 51
9297 11
9298 20
9299 30
9300 8
9301 8
9302 9
9303 8
9304 40
9305 37
9306 57
9307 44
9308 20
9309 18
9310 44
9311 39
9312 30
9313 5
9314 40
9315 5
9316 33
9317 4
9318 20
9319 33
9320 40
9321 18
9322 28
9323 26
9324 23
9325 35
9326 12
9327 46
9328 20
9329 3
9330 47
9331 17
9332 3
9333 14
9334 9
9335 28
9336 46
9337 30
9338 23
9339 42
9340 20
9341 54
9342 12
9343 9
9344 37
9345 43
9346 39
9347 16
9348 0
9349 42
9350 54
9351 7
9352 48
9353 50
9354 20
9355 38
9356 6
9357 60
9358 58
9359 59
9360 51
9361 52
9362 17
9363 38
9364 39
9365 35
9366 2
9367 18
9368 56
9369 60
9370 34
9371 29
9372 0
9373 28
9374 50
9375 46
9376 37
9377 8
9378 20
9379 30
9380 17
9381 55
9382 2
9383 10
9384 60
9385 36
9386 62
9387 54
9388 58
9389 12
9390 12
9391 3
9392 12
9393 39
9394 61
9395 6
9396 36
9397 9
9398 39
9399 52
9400 37
9401 51
9402 54
9403 32
9404 0
9405 7
9406 57
9407 40
9408 27
9409 60
9410 39
9411 26
9412 36
9413 30
9414 41
9415 38
9416 52
9417 48
9418 10
9419 27
9420 50
9421 40
9422 21
9423 30
9424 0
9425 12
9426 12
9427 52
9428 60
9429 8
9430 50
9431 0
9432 6
9433 50
9434 8
9435 7
9436 56
9437 54
9438 50
9439 25
9440 39
9441 31
9442 8
9443 18
9444 4
9445 17
9446 49
9447 8
9448 26
9449 46
9450 0
9451 35
9452 35
9453 30
9454 36
9455 0
9456 6
9457 37
9458 8
9459 17
9460 32
9461 5
9462 60
9463 66
9464 54
9465 35
9466 34
9467 15
9468 58
9469 54
9470 34
9471 24
9472 8
9473 62
9474 36
9475 68
9476 2
9477 58
9478 12
9479 17
9480 50
9481 58
9482 38
9483 10
9484 55
9485 51
9486 12
9487 36
9488 2
9489 24
9490 4
9491 32
9492 8
9493 17
9494 36
9495 36
9496 4
9497 23
9498 23
9499 37
9500 20
9501 59
9502 17
9503 56
9504 60
9505 0
9506 5
9507 39
9508 66
9509 54
9510 1
9511 28
9512 30
9513 30
9514 9
9515 8
9516 20
9517 34
9518 6
9519 4
9520 35
9521 40
9522 49
9523 5
9524 25
9525 32
9526 52
9527 34
9528 36
9529 57
9530 41
9531 33
9532 29
9533 6
9534 36
9535 2
9536 10
9537 5
9538 46
9539 31
9540 32
9541 23
9542 5
9543 4
9544 10
9545 38
9546 6
9547 5
9548 27
9549 5
9550 9
9551 30
9552 36
9553 61
9554 5
9555 34
9556 54
9557 50
9558 34
9559 39
9560 47
9561 26
9562 65
9563 3
9564 56
9565 5
9566 37
9567 38
9568 62
9569 3
9570 51
9571 30
9572 0
9573 3
9574 65
9575 30
9576 30
9577 50
9578 35
9579 51
9580 44
9581 1
9582 40
9583 6
9584 66
9585 54
9586 54
9587 6
9588 37
9589 66
9590 20
9591 17
9592 20
9593 56
9594 46
9595 39
9596 38
9597 8
9598 36
9599 51
9600 50
9601 41
9602 10
9603 39
9604 51
9605 38
9606 20
9607 3
9608 36
9609 39
9610 36
9611 38
9612 56
9613 60
9614 68
9615 68
9616 60
9617 14
9618 6
9619 36
9620 56
9621 23
9622 29
9623 20
9624 17
9625 30
9626 4
9627 50
9628 2
9629 3
9630 38
9631 5
9632 32
9633 30
9634 13
9635 9
9636 54
9637 63
9638 54
9639 3
9640 44
9641 54
9642 8
9643 47
9644 34
9645 17
9646 5
9647 30
9648 65
9649 5
9650 25
9651 18
9652 63
9653 4
9654 41
9655 1
9656 55
9657 3
9658 6
9659 10
9660 31
9661 8
9662 8
9663 51
9664 3
9665 41
9666 46
9667 65
9668 38
9669 38
9670 32
9671 58
9672 5
9673 38
9674 27
9675 56
9676 50
9677 67
9678 9
9679 55
9680 45
9681 36
9682 30
9683 23
9684 3
9685 38
9686 39
9687 23
9688 9
9689 4
9690 2
9691 20
9692 3
9693 9
9694 12
9695 0
9696 31
9697 56
9698 11
9699 7
9700 12
9701 12
9702 23
9703 12
9704 5
9705 41
9706 34
9707 37
9708 51
9709 34
9710 31
9711 49
9712 8
9713 20
9714 43
9715 43
9716 17
9717 60
9718 0
9719 36
9720 62
9721 12
9722 8
9723 6
9724 20
9725 60
9726 25
9727 34
9728 12
9729 25
9730 34
9731 6
9732 28
9733 9
9734 5
9735 25
9736 20
9737 34
9738 20
9739 23
9740 58
9741 58
9742 4
9743 39
9744 51
9745 16
9746 60
9747 57
9748 51
9749 23
9750 12
9751 23
9752 44
9753 6
9754 26
9755 50
9756 60
9757 15
9758 9
9759 1
9760 50
9761 9
9762 2
9763 37
9764 8
9765 60
9766 12
9767 34
9768 17
9769 56
9770 37
9771 36
9772 26
9773 12
9774 23
9775 8
9776 51
9777 47
9778 51
9779 26
9780 46
9781 50
9782 41
9783 28
9784 56
9785 5
9786 46
9787 56
9788 6
9789 51
9790 60
9791 6
9792 14
9793 6
9794 57
9795 9
9796 14
9797 39
9798 10
9799 56
9800 6
9801 1
9802 5
9803 31
9804 17
9805 10
9806 4
9807 62
9808 39
9809 39
9810 52
9811 23
9812 22
9813 40
9814 6
9815 4
9816 56
9817 15
9818 12
9819 12
9820 23
9821 36
9822 6
9823 60
9824 36
9825 35
9826 0
9827 10
9828 50
9829 9
9830 38
9831 9
9832 33
9833 36
9834 9
9835 17
9836 35
9837 43
9838 8
9839 54
9840 41
9841 9
9842 38
9843 23
9844 37
9845 5
9846 51
9847 60
9848 21
9849 1
9850 6
9851 18
9852 38
9853 10
9854 50
9855 48
9856 29
9857 22
9858 3
9859 68
9860 9
9861 55
9862 39
9863 50
9864 2
9865 9
9866 9
9867 1
9868 27
9869 44
9870 51
9871 1
9872 23
9873 6
9874 26
9875 50
9876 1
9877 20
9878 20
9879 56
9880 50
9881 46
9882 47
9883 7
9884 62
9885 2
9886 34
9887 38
9888 31
9889 2
9890 51
9891 26
9892 6
9893 40
9894 5
9895 41
9896 20
9897 66
9898 12
9899 30
9900 2
9901 41
9902 40
9903 2
9904 50
9905 56
9906 3
9907 9
9908 5
9909 12
9910 3
9911 4
9912 54
9913 20
9914 67
9915 34
9916 60
9917 40
9918 35
9919 4
9920 5
9921 34
9922 39
9923 26
9924 20
9925 46
9926 8
9927 37
9928 36
9929 28
9930 10
9931 3
9932 4
9933 0
9934 54
9935 28
9936 41
9937 0
9938 30
9939 56
9940 37
9941 2
9942 6
9943 47
9944 12
9945 34
9946 55
9947 36
9948 54
9949 0
9950 34
9951 42
9952 23
9953 1
9954 4
9955 2
9956 47
9957 34
9958 9
9959 2
9960 56
9961 49
9962 50
9963 9
9964 35
9965 0
9966 34
9967 12
9968 68
9969 46
9970 51
9971 30
9972 50
9973 15
9974 51
9975 45
9976 41
9977 20
9978 8
9979 34
9980 4
9981 18
9982 43
9983 36
9984 6
9985 34
9986 36
9987 6
9988 36
9989 9
9990 0
9991 36
9992 8
9993 47
9994 24
9995 0
9996 36
9997 35
9998 40
9999 8
10000 39
10001 56
10002 36
10003 40
10004 50
10005 45
10006 56
10007 29
10008 36
10009 39
10010 31
10011 30
10012 56
10013 5
10014 9
10015 14
10016 10
10017 56
10018 6
10019 24
10020 60
10021 54
10022 47
10023 28
10024 10
10025 20
10026 3
10027 56
10028 29
10029 46
10030 3
10031 4
10032 11
10033 45
10034 36
10035 31
10036 8
10037 52
10038 54
10039 9
10040 14
10041 10
10042 37
10043 25
10044 42
10045 66
10046 20
10047 52
10048 4
10049 63
10050 36
10051 52
10052 5
10053 17
10054 34
10055 12
10056 40
10057 17
10058 6
10059 6
10060 12
10061 8
10062 65
10063 49
10064 60
10065 9
10066 34
10067 52
10068 30
10069 51
10070 1
10071 50
10072 41
10073 4
10074 34
10075 31
10076 30
10077 0
10078 35
10079 9
10080 16
10081 50
10082 63
10083 0
10084 4
10085 12
10086 3
10087 15
10088 6
10089 5
10090 34
10091 28
10092 38
10093 34
10094 3
10095 29
10096 68
10097 23
10098 6
10099 23
10100 38
10101 18
10102 30
10103 0
10104 60
10105 41
10106 55
10107 20
10108 3
10109 23
10110 0
10111 36
10112 25
10113 30
10114 56
10115 68
10116 17
10117 56
10118 9
10119 40
10120 12
10121 28
10122 5
10123 53
10124 9
10125 50
10126 60
10127 18
10128 34
10129 52
10130 0
10131 45
10132 12
10133 6
10134 39
10135 36
10136 43
10137 50
10138 48
10139 39
10140 39
10141 5
10142 8
10143 2
10144 63
10145 5
10146 20
10147 52
10148 12
10149 23
10150 56
10151 6
10152 15
10153 25
10154 11
10155 51
10156 61
10157 56
10158 43
10159 9
10160 16
10161 22
10162 8
10163 2
10164 36
10165 12
10166 22
10167 36
10168 18
10169 11
10170 6
10171 23
10172 17
10173 40
10174 4
10175 39
10176 17
10177 12
10178 18
10179 51
10180 54
10181 55
10182 12
10183 10
10184 47
10185 51
10186 7
10187 2
10188 1
10189 43
10190 8
10191 28
10192 31
10193 5
10194 48
10195 42
10196 64
10197 2
10198 20
10199 27
10200 1
10201 46
10202 56
10203 0
10204 5
10205 54
10206 50
10207 35
10208 48
10209 36
10210 23
10211 20
10212 10
10213 13
10214 12
10215 8
10216 0
10217 0
10218 34
10219 18
10220 44
10221 7
10222 42
10223 30
10224 51
10225 31
10226 5
10227 40
10228 51
10229 20
10230 10
10231 20
10232 1
10233 48
10234 40
10235 6
10236 50
10237 38
10238 33
10239 7
10240 36
10241 52
10242 8
10243 54
10244 8
10245 23
10246 26
10247 2
10248 37
10249 36
10250 37
10251 51
10252 8
10253 3
10254 56
10255 36
10256 9
10257 41
10258 9
10259 56
10260 34
10261 60
10262 38
10263 27
10264 45
10265 53
10266 34
10267 51
10268 32
10269 28
10270 13
10271 3
10272 12
10273 68
10274 23
10275 34
10276 19
10277 20
10278 13
10279 9
10280 55
10281 14
10282 50
10283 31
10284 63
10285 0
10286 52
10287 4
10288 2
10289 33
10290 20
10291 55
10292 43
10293 62
10294 30
10295 43
10296 55
10297 17
10298 7
10299 0
10300 2
10301 28
10302 51
10303 52
10304 37
10305 5
10306 17
10307 42
10308 4
10309 51
10310 0
10311 6
10312 3
10313 52
10314 36
10315 55
10316 5
10317 39
10318 36
10319 28
10320 0
10321 30
10322 56
10323 38
10324 11
10325 4
10326 40
10327 26
10328 51
10329 51
10330 51
10331 28
10332 52
10333 68
10334 29
10335 0
10336 0
10337 6
10338 18
10339 20
10340 2
10341 2
10342 6
10343 51
10344 49
10345 33
10346 54
10347 3
10348 51
10349 8
10350 15
10351 60
10352 1
10353 54
10354 36
10355 25
10356 35
10357 4
10358 3
10359 0
10360 15
10361 17
10362 15
10363 20
10364 6
10365 28
10366 68
10367 23
10368 6
10369 66
10370 24
10371 17
10372 27
10373 6
10374 31
10375 34
10376 34
10377 50
10378 16
10379 50
10380 5
10381 28
10382 51
10383 55
10384 34
10385 37
10386 30
10387 19
10388 41
10389 51
10390 38
10391 36
10392 50
10393 17
10394 6
10395 20
10396 30
10397 20
10398 6
10399 20
10400 18
10401 5
10402 31
10403 18
10404 12
10405 20
10406 56
10407 23
10408 4
10409 45
10410 56
10411 9
10412 2
10413 6
10414 28
10415 17
10416 8
10417 9
10418 41
10419 15
10420 17
10421 3
10422 40
10423 56
10424 30
10425 32
10426 9
10427 0
10428 29
10429 36
10430 23
10431 52
10432 52
10433 25
10434 62
10435 17
10436 11
10437 0
10438 12
10439 68
10440 3
10441 39
10442 13
10443 57
10444 9
10445 22
10446 5
10447 34
10448 35
10449 61
10450 43
10451 28
10452 16
10453 17
10454 25
10455 10
10456 54
10457 28
10458 12
10459 52
10460 30
10461 30
10462 18
10463 6
10464 61
10465 54
10466 36
10467 0
10468 7
10469 52
10470 1
10471 32
10472 22
10473 1
10474 56
10475 25
10476 13
10477 56
10478 56
10479 36
10480 53
10481 36
10482 20
10483 31
10484 31
10485 30
10486 23
10487 38
10488 23
10489 8
10490 2
10491 3
10492 23
10493 3
10494 12
10495 20
10496 38
10497 20
10498 37
10499 20
10500 30
10501 41
10502 12
10503 8
10504 9
10505 35
10506 5
10507 65
10508 51
10509 38
10510 38
10511 34
10512 6
10513 39
10514 35
10515 28
10516 49
10517 27
10518 51
10519 23
10520 9
10521 10
10522 54
10523 30
10524 17
10525 18
10526 20
10527 7
10528 56
10529 31
10530 31
10531 23
10532 58
10533 4
10534 30
10535 36
10536 20
10537 48
10538 32
10539 30
10540 10
10541 55
10542 51
10543 44
10544 42
10545 7
10546 34
10547 44
10548 30
10549 51
10550 20
10551 12
10552 50
10553 29
10554 1
10555 30
10556 56
10557 13
10558 66
10559 55
10560 6
10561 52
10562 41
10563 23
10564 23
10565 41
10566 17
10567 52
10568 5
10569 8
10570 10
10571 10
10572 65
10573 40
10574 2
10575 57
10576 30
10577 50
10578 8
10579 38
10580 9
10581 9
10582 2
10583 29
10584 32
10585 38
10586 37
10587 5
10588 53
10589 64
10590 58
10591 17
10592 5
10593 5
10594 20
10595 12
10596 52
10597 20
10598 36
10599 10
10600 38
10601 9
10602 61
10603 36
10604 3
10605 2
10606 8
10607 34
10608 38
10609 43
10610 38
10611 11
10612 56
10613 30
10614 53
10615 46
10616 8
10617 66
10618 64
10619 30
10620 51
10621 2
10622 40
10623 43
10624 25
10625 46
10626 30
10627 20
10628 34
10629 48
10630 16
10631 32
10632 55
10633 20
10634 20
10635 9
10636 51
10637 54
10638 29
10639 62
10640 0
10641 52
10642 29
10643 36
10644 6
10645 9
10646 35
10647 61
10648 3
10649 20
10650 17
10651 47
10652 3
10653 30
10654 36
10655 46
10656 12
10657 67
10658 0
10659 25
10660 67
10661 54
10662 28
10663 17
10664 50
10665 34
10666 44
10667 36
10668 57
10669 17
10670 36
10671 19
10672 0
10673 15
10674 60
10675 6
10676 20
10677 40
10678 34
10679 46
10680 31
10681 32
10682 40
10683 1
10684 17
10685 51
10686 35
10687 20
10688 60
10689 34
10690 4
10691 12
10692 18
10693 55
10694 0
10695 39
10696 34
10697 60
10698 8
10699 8
10700 5
10701 32
10702 28
10703 5
10704 20
10705 67
10706 13
10707 39
10708 54
10709 55
10710 12
10711 52
10712 8
10713 20
10714 17
10715 36
10716 46
10717 2
10718 8
10719 20
10720 6
10721 22
10722 35
10723 56
10724 64
10725 5
10726 30
10727 10
10728 15
10729 20
10730 56
10731 0
10732 51
10733 0
10734 18
10735 5
10736 44
10737 1
10738 22
10739 34
10740 6
10741 6
10742 50
10743 56
10744 24
10745 4
10746 26
10747 10
10748 24
10749 54
10750 3
10751 24
10752 60
10753 10
10754 0
10755 20
10756 10
10757 20
10758 10
10759 20
10760 27
10761 12
10762 55
10763 54
10764 13
10765 2
10766 31
10767 3
10768 5
10769 55
10770 2
10771 3
10772 50
10773 50
10774 50
10775 25
10776 18
10777 8
10778 47
10779 4
10780 38
10781 10
10782 8
10783 58
10784 13
10785 50
10786 9
10787 38
10788 37
10789 10
10790 21
10791 5
10792 60
10793 48
10794 36
10795 11
10796 67
10797 28
10798 39
10799 20
10800 15
10801 2
10802 36
10803 24
10804 36
10805 56
10806 8
10807 9
10808 56
10809 6
10810 58
10811 51
10812 11
10813 46
10814 3
10815 12
10816 36
10817 20
10818 12
10819 9
10820 30
10821 63
10822 32
10823 16
10824 50
10825 5
10826 33
10827 18
10828 8
10829 12
10830 34
10831 34
10832 62
10833 34
10834 12
10835 2
10836 13
10837 6
10838 6
10839 37
10840 55
10841 10
10842 0
10843 0
10844 52
10845 3
10846 56
10847 4
10848 5
10849 48
10850 51
10851 3
10852 34
10853 20
10854 51
10855 68
10856 6
10857 13
10858 54
10859 0
10860 0
10861 38
10862 47
10863 56
10864 6
10865 51
10866 29
10867 60
10868 61
10869 34
10870 13
10871 2
10872 2
10873 0
10874 2
10875 10
10876 60
10877 54
10878 9
10879 2
10880 12
10881 7
10882 17
10883 34
10884 2
10885 2
10886 46
10887 68
10888 8
10889 20
10890 31
10891 30
10892 25
10893 8
10894 58
10895 5
10896 51
10897 41
10898 30
10899 6
10900 39
10901 8
10902 12
10903 29
10904 3
10905 54
10906 2
10907 39
10908 6
10909 62
10910 29
10911 32
10912 16
10913 2
10914 8
10915 2
10916 17
10917 41
10918 3
10919 9
10920 41
10921 0
10922 66
10923 31
10924 56
10925 17
10926 36
10927 34
10928 12
10929 67
10930 40
10931 50
10932 20
10933 50
10934 8
10935 60
10936 56
10937 3
10938 0
10939 60
10940 0
10941 35
10942 17
10943 36
10944 25
10945 36
10946 12
10947 9
10948 50
10949 34
10950 60
10951 50
10952 34
10953 2
10954 12
10955 62
10956 58
10957 8
10958 53
10959 38
10960 38
10961 52
10962 58
10963 12
10964 0
10965 40
10966 7
10967 2
10968 28
10969 0
10970 51
10971 65
10972 59
10973 3
10974 34
10975 51
10976 9
10977 54
10978 56
10979 23
10980 20
10981 61
10982 8
10983 61
10984 2
10985 56
10986 13
10987 64
10988 20
10989 0
10990 47
10991 19
10992 57
10993 31
10994 8
10995 34
10996 31
10997 46
10998 30
10999 2
11000 5
11001 39
11002 20
11003 13
11004 21
11005 6
11006 0
11007 6
11008 45
11009 5
11010 38
11011 6
11012 23
11013 60
11014 36
11015 56
11016 56
11017 66
11018 46
11019 67
11020 17
11021 1
11022 3
11023 25
11024 6
11025 6
11026 5
11027 40
11028 56
11029 36
11030 61
11031 17
11032 37
11033 20
11034 20
11035 40
11036 28
11037 30
11038 46
11039 36
11040 41
11041 29
11042 50
11043 18
11044 0
11045 5
11046 5
11047 2
11048 30
11049 13
11050 12
11051 2
11052 12
11053 20
11054 27
11055 52
11056 38
11057 51
11058 34
11059 43
11060 12
11061 0
11062 34
11063 60
11064 4
11065 5
11066 25
11067 46
11068 14
11069 17
11070 1
11071 54
11072 32
11073 36
11074 2
11075 13
11076 36
11077 51
11078 2
11079 0
11080 2
11081 43
11082 17
11083 50
11084 50
11085 3
11086 50
11087 17
11088 37
11089 51
11090 30
11091 60
11092 26
11093 39
11094 57
11095 31
11096 52
11097 15
11098 23
11099 2
11100 7
11101 0
11102 8
11103 60
11104 23
11105 31
11106 50
11107 23
11108 23
11109 4
11110 18
11111 31
11112 0
11113 56
11114 30
11115 3
11116 36
11117 4
11118 51
11119 21
11120 50
11121 5
11122 17
11123 9
11124 6
11125 12
11126 30
11127 55
11128 54
11129 30
11130 52
11131 40
11132 56
11133 47
11134 39
11135 24
11136 5
11137 60
11138 0
11139 56
11140 4
11141 2
11142 2
11143 25
11144 56
11145 40
11146 60
11147 19
11148 20
11149 12
11150 4
11151 0
11152 55
11153 47
11154 3
11155 2
11156 6
11157 39
11158 29
11159 15
11160 9
11161 23
11162 40
11163 38
11164 35
11165 12
11166 55
11167 19
11168 9
11169 10
11170 56
11171 2
11172 8
11173 30
11174 28
11175 27
11176 6
11177 55
11178 4
11179 30
11180 24
11181 50
11182 17
11183 41
11184 47
11185 12
11186 6
11187 0
11188 23
11189 36
11190 28
11191 23
11192 56
11193 52
11194 9
11195 2
11196 35
11197 51
11198 51
11199 51
11200 36
11201 9
11202 40
11203 18
11204 51
11205 20
11206 4
11207 23
11208 6
11209 60
11210 43
11211 34
11212 11
11213 60
11214 49
11215 18
11216 10
11217 37
11218 51
11219 25
11220 54
11221 19
11222 13
11223 12
11224 38
11225 23
11226 44
11227 20
11228 55
11229 38
11230 7
11231 48
11232 6
11233 51
11234 46
11235 34
11236 9
11237 8
11238 49
11239 34
11240 65
11241 38
11242 51
11243 5
11244 56
11245 10
11246 20
11247 64
11248 13
11249 37
11250 41
11251 50
11252 6
11253 17
11254 29
11255 5
11256 49
11257 5
11258 38
11259 5
11260 53
11261 36
11262 1
11263 10
11264 17
11265 0
11266 36
11267 41
11268 44
11269 27
11270 51
11271 36
11272 40
11273 9
11274 3
11275 10
11276 63
11277 3
11278 36
11279 46
11280 58
11281 25
11282 64
11283 56
11284 37
11285 0
11286 40
11287 50
11288 2
11289 40
11290 5
11291 1
11292 55
11293 17
11294 31
11295 8
11296 58
11297 3
11298 41
11299 50
11300 12
11301 56
11302 39
11303 68
11304 37
11305 68
11306 37
11307 46
11308 8
11309 25
11310 50
11311 2
11312 58
11313 49
11314 50
11315 58
11316 56
11317 5
11318 36
11319 20
11320 50
11321 12
11322 36
11323 32
11324 66
11325 23
11326 43
11327 29
11328 51
11329 0
11330 17
11331 50
11332 0
11333 6
11334 23
11335 8
11336 40
11337 29
11338 9
11339 23
11340 19
11341 18
11342 5
11343 13
11344 36
11345 47
11346 12
11347 19
11348 10
11349 30
11350 36
11351 58
11352 13
11353 17
11354 20
11355 15
11356 0
11357 54
11358 40
11359 2
11360 40
11361 31
11362 0
11363 15
11364 37
11365 3
11366 64
11367 25
11368 37
11369 52
11370 32
11371 17
11372 55
11373 30
11374 4
11375 11
11376 8
11377 5
11378 3
11379 20
11380 38
11381 34
11382 3
11383 41
11384 14
11385 17
11386 60
11387 28
11388 39
11389 50
11390 25
11391 17
11392 12
11393 46
11394 5
11395 20
11396 7
11397 20
11398 60
11399 27
11400 36
11401 23
11402 51
11403 56
11404 51
11405 34
11406 39
11407 51
11408 31
11409 7
11410 42
11411 42
11412 4
11413 17
11414 2
11415 0
11416 63
11417 12
11418 37
11419 40
11420 29
11421 51
11422 17
11423 30
11424 13
11425 1
11426 31
11427 47
11428 34
11429 12
11430 5
11431 16
11432 54
11433 51
11434 60
11435 56
11436 25
11437 30
11438 8
11439 51
11440 46
11441 23
11442 8
11443 0
11444 2
11445 4
11446 60
11447 9
11448 30
11449 9
11450 5
11451 32
11452 50
11453 46
11454 2
11455 12
11456 17
11457 50
11458 50
11459 56
11460 5
11461 8
11462 20
11463 36
11464 4
11465 17
11466 36
11467 6
11468 48
11469 52
11470 0
11471 34
11472 1
11473 30
11474 50
11475 29
11476 23
11477 36
11478 34
11479 35
11480 38
11481 10
11482 3
11483 56
11484 59
11485 34
11486 34
11487 38
11488 5
11489 68
11490 31
11491 50
11492 36
11493 0
11494 31
11495 5
11496 32
11497 3
11498 9
11499 9
11500 36
11501 8
11502 38
11503 52
11504 54
11505 7
11506 48
11507 7
11508 45
11509 10
11510 47
11511 41
11512 40
11513 6
11514 36
11515 4
11516 34
11517 60
11518 60
11519 16
11520 23
11521 10
11522 2
11523 17
11524 33
11525 62
11526 0
11527 54
11528 45
11529 2
11530 29
11531 8
11532 62
11533 16
11534 20
11535 0
11536 51
11537 41
11538 39
11539 6
11540 48
11541 9
11542 13
11543 50
11544 4
11545 62
11546 43
11547 8
11548 56
11549 43
11550 25
11551 12
11552 9
11553 2
11554 9
11555 32
11556 62
11557 37
11558 25
11559 5
11560 31
11561 13
11562 2
11563 57
11564 47
11565 33
11566 51
11567 38
11568 3
11569 43
11570 39
11571 9
11572 43
11573 25
11574 60
11575 46
11576 32
11577 8
11578 47
11579 3
11580 37
11581 56
11582 17
11583 46
11584 47
11585 36
11586 13
11587 2
11588 1
11589 36
11590 0
11591 4
11592 25
11593 0
11594 7
11595 9
11596 1
11597 47
11598 50
11599 0
11600 68
11601 22
11602 20
11603 39
11604 8
11605 9
11606 30
11607 20
11608 31
11609 4
11610 4
11611 19
11612 35
11613 0
11614 5
11615 44
11616 56
11617 6
11618 18
11619 25
11620 37
11621 56
11622 12
11623 3
11624 26
11625 8
11626 48
11627 8
11628 50
11629 30
11630 52
11631 52
11632 33
11633 51
11634 23
11635 2
11636 54
11637 39
11638 38
11639 38
11640 8
11641 45
11642 51
11643 50
11644 12
11645 34
11646 17
11647 56
11648 36
11649 9
11650 51
11651 0
11652 37
11653 0
11654 55
11655 9
11656 62
11657 31
11658 37
11659 30
11660 67
11661 3
11662 39
11663 29
11664 35
11665 7
11666 20
11667 17
11668 36
11669 12
11670 56
11671 23
11672 49
11673 15
11674 7
11675 54
11676 36
11677 68
11678 6
11679 21
11680 51
11681 10
11682 52
11683 33
11684 4
11685 18
11686 2
11687 36
11688 24
11689 31
11690 46
11691 20
11692 56
11693 34
11694 12
11695 9
11696 19
11697 23
11698 47
11699 33
11700 23
11701 34
11702 1
11703 19
11704 6
11705 20
11706 34
11707 44
11708 22
11709 0
11710 23
11711 35
11712 10
11713 40
11714 0
11715 5
11716 0
11717 9
11718 30
11719 36
11720 31
11721 40
11722 19
11723 21
11724 36
11725 23
11726 34
11727 66
11728 5
11729 63
11730 61
11731 60
11732 8
11733 47
11734 4
11735 5
11736 46
11737 36
11738 5
11739 50
11740 41
11741 40
11742 26
11743 0
11744 11
11745 6
11746 30
11747 12
11748 0
11749 32
11750 13
11751 28
11752 60
11753 66
11754 23
11755 66
11756 2
11757 36
11758 20
11759 34
11760 20
11761 17
11762 38
11763 23
11764 64
11765 8
11766 58
11767 38
11768 36
11769 52
11770 51
11771 44
11772 27
11773 62
11774 36
11775 41
11776 9
11777 3
11778 37
11779 52
11780 56
11781 40
11782 47
11783 51
11784 60
11785 60
11786 10
11787 25
11788 5
11789 41
11790 23
11791 0
11792 50
11793 54
11794 7
11795 54
11796 34
11797 7
11798 39
11799 10
11800 25
11801 68
11802 4
11803 45
11804 1
11805 37
11806 41
11807 34
11808 8
11809 30
11810 54
11811 37
11812 2
11813 38
11814 37
11815 20
11816 13
11817 12
11818 50
11819 3
11820 21
11821 47
11822 34
11823 3
11824 37
11825 36
11826 6
11827 9
11828 20
11829 30
11830 17
11831 63
11832 12
11833 52
11834 61
11835 23
11836 60
11837 40
11838 23
11839 44
11840 5
11841 39
11842 50
11843 37
11844 10
11845 5
11846 20
11847 6
11848 42
11849 40
11850 47
11851 22
11852 65
11853 17
11854 54
11855 2
11856 9
11857 41
11858 38
11859 34
11860 42
11861 4
11862 23
11863 34
11864 4
11865 56
11866 2
11867 48
11868 18
11869 30
11870 37
11871 5
11872 5
11873 4
11874 0
11875 9
11876 49
11877 1
11878 5
11879 12
11880 4
11881 8
11882 12
11883 10
11884 40
11885 50
11886 62
11887 25
11888 46
11889 8
11890 12
11891 36
11892 12
11893 8
11894 18
11895 10
11896 36
11897 29
11898 56
11899 37
11900 37
11901 9
11902 39
11903 51
11904 30
11905 51
11906 40
11907 1
11908 39
11909 47
11910 27
11911 17
11912 10
11913 31
11914 27
11915 63
11916 64
11917 3
11918 6
11919 12
11920 20
11921 60
11922 30
11923 6
11924 36
11925 18
11926 51
11927 56
11928 34
11929 60
11930 3
11931 23
11932 6
11933 20
11934 46
11935 14
11936 3
11937 40
11938 60
11939 9
11940 56
11941 30
11942 0
11943 61
11944 38
11945 36
11946 2
11947 17
11948 60
11949 31
11950 9
11951 6
11952 58
11953 67
11954 6
11955 52
11956 55
11957 38
11958 25
11959 12
11960 60
11961 16
11962 10
11963 29
11964 49
11965 15
11966 44
11967 8
11968 47
11969 34
11970 37
11971 6
11972 23
11973 23
11974 28
11975 17
11976 3
11977 57
11978 32
11979 36
11980 4
11981 60
11982 9
11983 23
11984 31
11985 6
11986 56
11987 3
11988 49
11989 60
11990 41
11991 38
11992 10
11993 0
11994 17
11995 2
11996 14
11997 37
11998 37
11999 18
12000 22
12001 51
12002 37
12003 60
12004 59
12005 23
12006 5
12007 54
12008 50
12009 6
12010 3
12011 0
12012 23
12013 17
12014 54
12015 60
12016 24
12017 56
12018 61
12019 34
12020 35
12021 2
12022 9
12023 4
12024 10
12025 42
12026 12
12027 2
12028 3
12029 51
12030 15
12031 51
12032 0
12033 5
12034 9
12035 28
12036 6
12037 30
12038 51
12039 60
12040 23
12041 6
12042 4
12043 9
12044 46
12045 42
12046 20
12047 40
12048 28
12049 15
12050 60
12051 60
12052 1
12053 8
12054 52
12055 39
12056 50
12057 10
12058 4
12059 36
12060 39
12061 17
12062 50
12063 34
12064 23
12065 38
12066 55
12067 34
12068 56
12069 24
12070 9
12071 10
12072 51
12073 17
12074 17
12075 40
12076 34
12077 9
12078 0
12079 61
12080 17
12081 46
12082 32
12083 17
12084 55
12085 54
12086 19
12087 20
12088 30
12089 18
12090 0
12091 36
12092 61
12093 18
12094 0
12095 30
12096 18
12097 34
12098 50
12099 6
12100 47
12101 28
12102 3
12103 5
12104 56
12105 7
12106 3
12107 23
12108 60
12109 10
12110 20
12111 49
12112 6
12113 9
12114 7
12115 6
12116 54
12117 0
12118 38
12119 20
12120 50
12121 18
12122 41
12123 30
12124 35
12125 54
12126 50
12127 10
12128 51
12129 46
12130 56
12131 66
12132 12
12133 2
12134 1
12135 47
12136 17
12137 5
12138 37
12139 0
12140 54
12141 35
12142 6
12143 60
12144 6
12145 37
12146 51
12147 51
12148 32
12149 62
12150 34
12151 68
12152 60
12153 51
12154 30
12155 12
12156 51
12157 36
12158 39
12159 65
12160 32
12161 48
12162 10
12163 47
12164 38
12165 10
12166 40
12167 2
12168 4
12169 18
12170 2
12171 6
12172 24
12173 50
12174 2
12175 53
12176 38
12177 2
12178 58
12179 34
12180 44
12181 52
12182 60
12183 2
12184 23
12185 29
12186 4
12187 51
12188 20
12189 39
12190 36
12191 33
12192 50
12193 12
12194 40
12195 35
12196 33
12197 50
12198 47
12199 50
12200 6
12201 2
12202 37
12203 50
12204 51
12205 12
12206 51
12207 56
12208 15
12209 39
12210 2
12211 51
12212 4
12213 1
12214 12
12215 31
12216 50
12217 5
12218 14
12219 44
12220 51
12221 15
12222 51
12223 34
12224 40
12225 0
12226 10
12227 43
12228 63
12229 46
12230 32
12231 17
12232 28
12233 6
12234 2
12235 20
12236 56
12237 4
12238 4
12239 6
12240 10
12241 15
12242 10
12243 51
12244 56
12245 5
12246 5
12247 10
12248 12
12249 35
12250 4
12251 65
12252 0
12253 39
12254 1
12255 2
12256 63
12257 43
12258 30
12259 40
12260 68
12261 8
12262 36
12263 0
12264 62
12265 23
12266 0
12267 26
12268 5
12269 31
12270 0
12271 36
12272 8
12273 40
12274 36
12275 37
12276 2
12277 2
12278 6
12279 34
12280 12
12281 41
12282 8
12283 9
12284 46
12285 6
12286 9
12287 43
12288 17
12289 32
12290 58
12291 30
12292 3
12293 56
12294 10
12295 36
12296 54
12297 11
12298 52
12299 44
12300 12
12301 34
12302 0
12303 51
12304 39
12305 6
12306 8
12307 26
12308 49
12309 40
12310 16
12311 66
12312 3
12313 12
12314 10
12315 48
12316 5
12317 32
12318 12
12319 6
12320 2
12321 20
12322 4
12323 43
12324 20
12325 20
12326 37
12327 25
12328 23
12329 5
12330 56
12331 42
12332 16
12333 25
12334 9
12335 5
12336 10
12337 26
12338 18
12339 20
12340 10
12341 10
12342 36
12343 17
12344 41
12345 2
12346 56
12347 50
12348 8
12349 12
12350 34
12351 35
12352 20
12353 52
12354 28
12355 62
12356 8
12357 9
12358 23
12359 58
12360 1
12361 31
12362 8
12363 11
12364 54
12365 67
12366 0
12367 41
12368 51
12369 5
12370 51
12371 51
12372 20
12373 10
12374 13
12375 38
12376 22
12377 19
12378 9
12379 1
12380 51
12381 4
12382 34
12383 6
12384 50
12385 6
12386 0
12387 54
12388 36
12389 60
12390 3
12391 1
12392 60
12393 54
12394 12
12395 50
12396 18
12397 20
12398 6
12399 41
12400 55
12401 56
12402 55
12403 35
12404 29
12405 6
12406 16
12407 37
12408 36
12409 6
12410 40
12411 57
12412 54
12413 0
12414 4
12415 30
12416 47
12417 60
12418 3
12419 46
12420 36
12421 4
12422 64
12423 36
12424 6
12425 0
12426 53
12427 0
12428 20
12429 7
12430 12
12431 0
12432 16
12433 36
12434 66
12435 30
12436 40
12437 6
12438 12
12439 38
12440 3
12441 38
12442 22
12443 0
12444 39
12445 30
12446 31
12447 37
12448 38
12449 56
12450 18
12451 51
12452 36
12453 25
12454 56
12455 62
12456 30
12457 42
12458 58
12459 0
12460 9
12461 9
12462 15
12463 57
12464 2
12465 40
12466 5
12467 12
12468 63
12469 44
12470 51
12471 17
12472 59
12473 66
12474 31
12475 46
12476 32
12477 26
12478 36
12479 35
12480 8
12481 54
12482 6
12483 3
12484 6
12485 56
12486 34
12487 62
12488 43
12489 3
12490 37
12491 23
12492 46
12493 6
12494 7
12495 34
12496 17
12497 55
12498 4
12499 5
12500 16
12501 60
12502 17
12503 25
12504 34
12505 17
12506 39
12507 36
12508 35
12509 38
12510 25
12511 8
12512 10
12513 37
12514 46
12515 59
12516 46
12517 5
12518 42
12519 56
12520 31
12521 28
12522 0
12523 0
12524 37
12525 10
12526 68
12527 14
12528 0
12529 1
12530 25
12531 56
12532 61
12533 39
12534 17
12535 23
12536 25
12537 8
12538 37
12539 60
12540 52
12541 4
12542 4
12543 20
12544 8
12545 51
12546 5
12547 5
12548 15
12549 17
12550 51
12551 25
12552 38
12553 30
12554 34
12555 13
12556 51
12557 35
12558 56
12559 58
12560 17
12561 7
12562 15
12563 5
12564 45
12565 56
12566 36
12567 25
12568 18
12569 36
12570 36
12571 34
12572 17
12573 23
12574 38
12575 39
12576 8
12577 11
12578 67
12579 37
12580 5
12581 51
12582 9
12583 42
12584 16
12585 3
12586 39
12587 12
12588 51
12589 4
12590 51
12591 1
12592 8
12593 2
12594 2
12595 20
12596 18
12597 34
12598 5
12599 22
12600 12
12601 43
12602 9
12603 45
12604 7
12605 52
12606 12
12607 50
12608 30
12609 2
12610 50
12611 5
12612 56
12613 47
12614 30
12615 36
12616 16
12617 56
12618 65
12619 1
12620 6
12621 10
12622 18
12623 3
12624 44
12625 36
12626 3
12627 60
12628 36
12629 40
12630 26
12631 18
12632 54
12633 35
12634 36
12635 36
12636 29
12637 67
12638 64
12639 28
12640 6
12641 0
12642 44
12643 47
12644 10
12645 12
12646 9
12647 17
12648 10
12649 51
12650 37
12651 56
12652 32
12653 2
12654 15
12655 38
12656 27
12657 25
12658 54
12659 30
12660 36
12661 4
12662 60
12663 3
12664 50
12665 2
12666 40
12667 41
12668 52
12669 4
12670 36
12671 0
12672 36
12673 51
12674 2
12675 9
12676 0
12677 38
12678 37
12679 23
12680 9
12681 56
12682 58
12683 39
12684 38
12685 51
12686 6
12687 12
12688 5
12689 6
12690 35
12691 34
12692 23
12693 28
12694 42
12695 32
12696 38
12697 9
12698 66
12699 17
12700 18
12701 51
12702 17
12703 0
12704 10
12705 4
12706 34
12707 56
12708 51
12709 10
12710 3
12711 25
12712 3
12713 17
12714 20
12715 0
12716 4
12717 41
12718 60
12719 37
12720 30
12721 42
12722 22
12723 38
12724 40
12725 42
12726 8
12727 0
12728 30
12729 34
12730 50
12731 34
12732 43
12733 30
12734 23
12735 41
12736 40
12737 5
12738 4
12739 56
12740 30
12741 54
12742 10
12743 31
12744 0
12745 40
12746 50
12747 31
12748 5
12749 47
12750 16
12751 34
12752 23
12753 8
12754 8
12755 27
12756 4
12757 67
12758 26
12759 60
12760 44
12761 23
12762 50
12763 38
12764 0
12765 0
12766 3
12767 2
12768 23
12769 17
12770 20
12771 67
12772 30
12773 30
12774 0
12775 40
12776 20
12777 10
12778 20
12779 34
12780 51
12781 0
12782 17
12783 10
12784 28
12785 36
12786 30
12787 42
12788 5
12789 44
12790 6
12791 31
12792 29
12793 16
12794 30
12795 2
12796 58
12797 55
12798 68
12799 12
12800 15
12801 38
12802 3
12803 19
12804 3
12805 30
12806 51
12807 56
12808 10
12809 55
12810 36
12811 6
12812 17
12813 37
12814 34
12815 13
12816 52
12817 35
12818 55
12819 3
12820 51
12821 56
12822 5
12823 0
12824 50
12825 48
12826 56
12827 8
12828 39
12829 1
12830 59
12831 42
12832 7
12833 30
12834 68
12835 12
12836 1
12837 20
12838 34
12839 59
12840 58
12841 47
12842 56
12843 1
12844 54
12845 36
12846 37
12847 37
12848 48
12849 51
12850 11
12851 19
12852 46
12853 34
12854 0
12855 36
12856 0
12857 3
12858 43
12859 17
12860 39
12861 38
12862 65
12863 19
12864 56
12865 61
12866 34
12867 68
12868 1
12869 8
12870 9
12871 42
12872 22
12873 58
12874 4
12875 51
12876 54
12877 9
12878 11
12879 31
12880 25
12881 29
12882 29
12883 9
12884 55
12885 9
12886 60
12887 38
12888 62
12889 3
12890 24
12891 6
12892 63
12893 12
12894 20
12895 42
12896 22
12897 15
12898 51
12899 61
12900 35
12901 41
12902 9
12903 5
12904 34
12905 46
12906 31
12907 64
12908 12
12909 41
12910 36
12911 36
12912 4
12913 46
12914 8
12915 58
12916 60
12917 64
12918 12
12919 51
12920 6
12921 52
12922 56
12923 51
12924 2
12925 34
12926 47
12927 68
12928 36
12929 51
12930 55
12931 51
12932 36
12933 3
12934 51
12935 53
12936 12
12937 54
12938 5
12939 17
12940 3
12941 0
12942 30
12943 45
12944 48
12945 25
12946 14
12947 43
12948 3
12949 50
12950 68
12951 36
12952 68
12953 49
12954 0
12955 58
12956 5
12957 29
12958 1
12959 25
12960 30
12961 5
12962 3
12963 30
12964 34
12965 10
12966 9
12967 23
12968 48
12969 36
12970 13
12971 5
12972 50
12973 4
12974 31
12975 28
12976 9
12977 8
12978 51
12979 17
12980 61
12981 38
12982 46
12983 50
12984 36
12985 40
12986 47
12987 51
12988 11
12989 5
12990 26
12991 17
12992 36
12993 34
12994 51
12995 49
12996 20
12997 41
12998 41
12999 36
13000 50
13001 3
13002 47
13003 44
13004 37
13005 55
13006 52
13007 31
13008 1
13009 56
13010 52
13011 17
13012 60
13013 23
13014 17
13015 56
13016 17
13017 56
13018 29
13019 12
13020 8
13021 61
13022 2
13023 61
13024 0
13025 21
13026 8
13027 9
13028 41
13029 9
13030 5
13031 34
13032 51
13033 68
13034 58
13035 51
13036 60
13037 0
13038 29
13039 17
13040 2
13041 12
13042 0
13043 4
13044 42
13045 5
13046 50
13047 8
13048 60
13049 38
13050 5
13051 51
13052 52
13053 9
13054 17
13055 34
13056 35
13057 51
13058 60
13059 23
13060 40
13061 52
13062 47
13063 40
13064 1
13065 32
13066 28
13067 47
13068 30
13069 40
13070 28
13071 28
13072 12
13073 53
13074 18
13075 7
13076 60
13077 0
13078 5
13079 40
13080 56
13081 34
13082 30
13083 36
13084 9
13085 36
13086 6
13087 8
13088 29
13089 66
13090 37
13091 19
13092 2
13093 10
13094 33
13095 39
13096 5
13097 55
13098 6
13099 31
13100 30
13101 58
13102 28
13103 1
13104 42
13105 50
13106 20
13107 41
13108 7
13109 40
13110 66
13111 37
13112 5
13113 54
13114 17
13115 9
13116 67
13117 31
13118 34
13119 50
13120 2
13121 38
13122 23
13123 15
13124 40
13125 17
13126 27
13127 20
13128 0
13129 40
13130 60
13131 51
13132 20
13133 63
13134 3
13135 50
13136 50
13137 6
13138 6
13139 58
13140 0
13141 31
13142 24
13143 36
13144 59
13145 34
13146 18
13147 13
13148 23
13149 36
13150 64
13151 7
13152 0
13153 58
13154 51
13155 49
13156 3
13157 36
13158 25
13159 55
13160 51
13161 34
13162 59
13163 65
13164 6
13165 31
13166 6
13167 0
13168 18
13169 49
13170 5
13171 46
13172 54
13173 6
13174 55
13175 2
13176 17
13177 60
13178 9
13179 5
13180 46
13181 56
13182 13
13183 6
13184 58
13185 6
13186 40
13187 48
13188 2
13189 2
13190 38
13191 20
13192 20
13193 34
13194 36
13195 60
13196 37
13197 8
13198 9
13199 18
13200 56
13201 10
13202 4
13203 2
13204 35
13205 0
13206 60
13207 8
13208 52
13209 3
13210 42
13211 37
13212 9
13213 9
13214 12
13215 29
13216 57
13217 9
13218 4
13219 36
13220 3
13221 51
13222 45
13223 12
13224 10
13225 29
13226 51
13227 57
13228 3
13229 9
13230 39
13231 52
13232 39
13233 5
13234 31
13235 32
13236 52
13237 23
13238 56
13239 39
13240 16
13241 5
13242 9
13243 6
13244 6
13245 9
13246 36
13247 4
13248 2
13249 39
13250 19
13251 10
13252 33
13253 12
13254 0
13255 68
13256 62
13257 20
13258 20
13259 47
13260 29
13261 50
13262 55
13263 23
13264 20
13265 5
13266 56
13267 56
13268 17
13269 48
13270 54
13271 35
13272 31
13273 62
13274 18
13275 64
13276 31
13277 9
13278 0
13279 39
13280 17
13281 17
13282 50
13283 6
13284 23
13285 15
13286 16
13287 20
13288 50
13289 54
13290 3
13291 9
13292 44
13293 36
13294 60
13295 34
13296 3
13297 26
13298 68
13299 17
13300 36
13301 34
13302 34
13303 58
13304 12
13305 38
13306 32
13307 57
13308 0
13309 28
13310 34
13311 20
13312 26
13313 36
13314 41
13315 55
13316 13
13317 10
13318 10
13319 51
13320 22
13321 50
13322 28
13323 48
13324 40
13325 56
13326 54
13327 65
13328 28
13329 28
13330 39
13331 5
13332 56
13333 34
13334 25
13335 26
13336 4
13337 57
13338 56
13339 0
13340 20
13341 36
13342 6
13343 23
13344 6
13345 51
13346 36
13347 2
13348 36
13349 35
13350 18
13351 51
13352 3
13353 17
13354 56
13355 3
13356 60
13357 9
13358 49
13359 9
13360 46
13361 5
13362 6
13363 51
13364 42
13365 10
13366 32
13367 11
13368 6
13369 17
13370 20
13371 9
13372 32
13373 23
13374 23
13375 48
13376 6
13377 23
13378 23
13379 50
13380 12
13381 23
13382 9
13383 35
13384 68
13385 52
13386 34
13387 49
13388 36
13389 20
13390 46
13391 0
13392 19
13393 4
13394 30
13395 14
13396 48
13397 53
13398 29
13399 7
13400 39
13401 11
13402 30
13403 20
13404 48
13405 20
13406 12
13407 7
13408 12
13409 62
13410 51
13411 49
13412 30
13413 56
13414 9
13415 12
13416 53
13417 19
13418 6
13419 2
13420 52
13421 8
13422 5
13423 65
13424 15
13425 38
13426 42
13427 30
13428 0
13429 0
13430 4
13431 50
13432 40
13433 2
13434 50
13435 54
13436 63
13437 34
13438 9
13439 54
13440 65
13441 0
13442 2
13443 30
13444 30
13445 31
13446 54
13447 56
13448 36
13449 30
13450 48
13451 5
13452 50
13453 34
13454 6
13455 17
13456 6
13457 7
13458 51
13459 13
13460 48
13461 3
13462 3
13463 12
13464 40
13465 5
13466 9
13467 56
13468 48
13469 7
13470 46
