0 0
1 1
2 1
3 2
4 3
5 4
6 5
7 6
8 7
9 8
10 9
11 10
12 11
13 12
14 13
15 14
16 15
17 16
18 17
19 9
20 18
21 19
22 0
23 20
24 21
25 5
26 22
27 23
28 24
29 25
30 16
31 26
32 27
33 28
34 22
35 3
36 29
37 30
38 31
39 32
40 33
41 20
42 34
43 9
44 35
45 24
46 36
47 30
48 37
49 38
50 23
51 39
52 40
53 32
54 13
55 11
56 41
57 42
58 43
59 44
60 45
61 26
62 46
63 47
64 32
65 4
66 28
67 9
68 16
69 48
70 30
71 49
72 30
73 2
74 23
75 16
76 12
77 50
78 51
79 52
80 40
81 12
82 53
83 54
84 33
85 55
86 45
87 3
88 56
89 57
90 58
91 59
92 55
93 46
94 35
95 46
96 9
97 17
98 60
99 61
100 61
101 25
102 29
103 62
104 22
105 63
106 22
107 42
108 30
109 5
110 59
111 17
112 64
113 59
114 65
115 66
116 67
117 68
118 12
119 47
120 69
121 56
122 70
123 18
124 4
125 34
126 31
127 66
128 40
129 71
130 31
131 5
132 32
133 45
134 70
135 49
136 33
137 63
138 8
139 45
140 45
141 2
142 8
143 55
144 3
145 28
146 63
147 57
148 72
149 73
150 63
151 1
152 74
153 75
154 35
155 9
156 51
157 54
158 69
159 33
160 15
161 27
162 58
163 49
164 53
165 60
166 71
167 2
168 69
169 76
170 46
171 77
172 29
173 35
174 60
175 55
176 27
177 40
178 78
179 40
180 79
181 68
182 26
183 76
184 78
185 47
186 35
187 33
188 23
189 80
190 81
191 47
192 16
193 56
194 26
195 17
196 70
197 48
198 53
199 27
200 38
201 51
202 45
203 43
204 39
205 8
206 63
207 43
208 58
209 11
210 36
211 41
212 24
213 57
214 44
215 45
216 63
217 36
218 81
219 18
220 73
221 81
222 67
223 82
224 45
225 9
226 83
227 20
228 53
229 84
230 52
231 23
232 41
233 68
234 21
235 50
236 25
237 85
238 67
239 65
240 27
241 79
242 1
243 86
244 81
245 87
246 68
247 46
248 55
249 55
250 2
251 88
252 50
253 47
254 62
255 4
256 31
257 89
258 1
259 90
260 76
261 33
262 78
263 3
264 91
265 33
266 12
267 47
268 31
269 9
270 59
271 8
272 8
273 47
274 23
275 68
276 39
277 40
278 20
279 35
280 37
281 77
282 17
283 27
284 56
285 82
286 30
287 39
288 48
289 11
290 16
291 92
292 3
293 31
294 4
295 9
296 26
297 50
298 49
299 6
300 50
301 34
302 57
303 83
304 4
305 27
306 77
307 71
308 37
309 83
310 49
311 5
312 34
313 72
314 84
315 30
316 82
317 9
318 51
319 79
320 62
321 61
322 26
323 65
324 46
325 64
326 90
327 35
328 37
329 65
330 32
331 33
332 34
333 42
334 23
335 87
336 30
337 23
338 23
339 87
340 35
341 57
342 35
343 30
344 33
345 16
346 50
347 19
348 13
349 1
350 85
351 8
352 65
353 93
354 62
355 26
356 66
357 75
358 55
359 36
360 3
361 58
362 35
363 94
364 40
365 51
366 91
367 95
368 93
369 36
370 23
371 66
372 2
373 58
374 56
375 27
376 52
377 61
378 47
379 28
380 18
381 33
382 39
383 62
384 88
385 46
386 27
387 79
388 14
389 21
390 24
391 84
392 72
393 30
394 44
395 32
396 72
397 68
398 29
399 29
400 22
401 30
402 74
403 13
404 41
405 30
406 45
407 76
408 49
409 63
410 16
411 94
412 32
413 8
414 45
415 35
416 58
417 82
418 39
419 57
420 69
421 21
422 75
423 70
424 52
425 84
426 60
427 2
428 77
429 74
430 35
431 47
432 31
433 58
434 33
435 71
436 28
437 72
438 29
439 10
440 89
441 92
442 10
443 96
444 11
445 59
446 24
447 40
448 20
449 37
450 46
451 0
452 49
453 92
454 28
455 40
456 37
457 66
458 63
459 58
460 0
461 79
462 94
463 20
464 58
465 32
466 88
467 70
468 0
469 71
470 21
471 7
472 59
473 21
474 65
475 21
476 19
477 3
478 11
479 79
480 27
481 97
482 69
483 12
484 54
485 57
486 91
487 50
488 97
489 80
490 20
491 36
492 62
493 68
494 22
495 68
496 21
497 5
498 39
499 37
500 58
501 36
502 70
503 12
504 69
505 59
506 42
507 5
508 53
509 34
510 56
511 50
512 53
513 52
514 80
515 56
516 35
517 13
518 0
519 86
520 82
521 85
522 15
523 65
524 78
525 23
526 22
527 59
528 17
529 82
530 22
531 49
532 4
533 11
534 69
535 16
536 61
537 0
538 53
539 88
540 32
541 54
542 62
543 55
544 51
545 87
546 66
547 73
548 25
549 57
550 58
551 28
552 37
553 39
554 89
555 25
556 2
557 33
558 37
559 50
560 23
561 43
562 14
563 57
564 93
565 88
566 71
567 65
568 14
569 45
570 52
571 84
572 68
573 5
574 88
575 75
576 78
577 56
578 82
579 36
580 66
581 41
582 13
583 13
584 46
585 38
586 44
587 64
588 92
589 50
590 17
591 47
592 48
593 54
594 84
595 28
596 34
597 67
598 74
599 62
600 46
601 34
602 68
603 22
604 57
605 4
606 58
607 52
608 18
609 13
610 4
611 69
612 34
613 53
614 22
615 22
616 4
617 27
618 62
619 60
620 73
621 4
622 39
623 89
624 13
625 6
626 37
627 49
628 68
629 36
630 83
631 16
632 33
633 44
634 34
635 73
636 84
637 83
638 10
639 62
640 87
641 8
642 22
643 33
644 2
645 56
646 43
647 94
648 53
649 15
650 69
651 24
652 82
653 8
654 71
655 36
656 14
657 75
658 62
659 13
660 63
661 85
662 60
663 1
664 67
665 67
666 23
667 15
668 28
669 4
670 60
671 10
672 70
673 16
674 95
675 4
676 90
677 28
678 5
679 12
680 70
681 40
682 11
683 18
684 40
685 82
686 18
687 18
688 0
689 27
690 72
691 13
692 16
693 83
694 85
695 51
696 89
697 3
698 38
699 35
700 90
701 49
702 2
703 26
704 95
705 58
706 53
707 77
708 1
709 2
710 78
711 11
712 80
713 59
714 56
715 8
716 78
717 79
718 12
719 39
720 35
721 66
722 53
723 66
724 6
725 70
726 96
727 42
728 27
729 40
730 46
731 19
732 21
733 69
734 76
735 23
736 8
737 96
738 27
739 93
740 24
741 37
742 35
743 30
744 60
745 54
746 76
747 9
748 93
749 77
750 8
751 85
752 81
753 30
754 34
755 4
756 38
757 77
758 63
759 64
760 77
761 51
762 73
763 53
764 45
765 79
766 37
767 20
768 32
769 55
770 34
771 27
772 22
773 37
774 44
775 32
776 78
777 29
778 51
779 34
780 56
781 52
782 73
783 2
784 25
785 63
786 5
787 95
788 79
789 23
790 15
791 40
792 53
793 2
794 45
795 53
796 12
797 91
798 39
799 76
800 7
801 45
802 23
803 47
804 37
805 41
806 1
807 29
808 34
809 27
810 36
811 63
812 17
813 40
814 14
815 64
816 96
817 62
818 39
819 51
820 53
821 21
822 68
823 89
824 35
825 91
826 60
827 23
828 60
829 81
830 20
831 67
832 14
833 32
834 66
835 77
836 0
837 27
838 68
839 0
840 66
841 38
842 75
843 47
844 46
845 88
846 73
847 77
848 64
849 39
850 20
851 37
852 33
853 95
854 73
855 63
856 62
857 18
858 58
859 39
860 10
861 3
862 83
863 58
864 36
865 10
866 51
867 31
868 33
869 43
870 90
871 81
872 95
873 11
874 69
875 25
876 19
877 76
878 6
879 56
880 59
881 76
882 28
883 32
884 88
885 63
886 67
887 73
888 74
889 73
890 13
891 72
892 42
893 40
894 26
895 89
896 88
897 37
898 21
899 44
900 51
901 27
902 78
903 13
904 53
905 3
906 45
907 27
908 15
909 19
910 91
911 56
912 62
913 71
914 5
915 89
916 52
917 71
918 92
919 36
920 62
921 13
922 29
923 57
924 53
925 85
926 27
927 91
928 6
929 5
930 66
931 67
932 55
933 6
934 17
935 37
936 44
937 94
938 49
939 39
940 90
941 73
942 55
943 30
944 23
945 86
946 61
947 13
948 95
949 84
950 16
951 71
952 78
953 24
954 89
955 19
956 4
957 29
958 62
959 77
960 79
961 21
962 89
963 80
964 51
965 58
966 44
967 38
968 61
969 87
970 84
971 39
972 46
973 74
974 82
975 29
976 13
977 41
978 39
979 68
980 50
981 68
982 69
983 97
984 23
985 37
986 59
987 38
988 86
989 41
990 92
991 75
992 35
993 73
994 62
995 9
996 0
997 84
998 20
999 68
1000 27
1001 3
1002 3
1003 20
1004 33
1005 23
1006 43
1007 26
1008 11
1009 4
1010 49
1011 83
1012 18
1013 33
1014 14
1015 11
1016 38
1017 73
1018 47
1019 60
1020 38
1021 58
1022 29
1023 51
1024 11
1025 28
1026 46
1027 2
1028 7
1029 45
1030 22
1031 33
1032 71
1033 35
1034 96
1035 81
1036 50
1037 82
1038 1
1039 20
1040 34
1041 35
1042 32
1043 46
1044 37
1045 73
1046 3
1047 66
1048 3
1049 10
1050 59
1051 69
1052 82
1053 22
1054 30
1055 62
1056 5
1057 63
1058 41
1059 39
1060 21
1061 3
1062 37
1063 64
1064 50
1065 45
1066 40
1067 27
1068 72
1069 13
1070 74
1071 21
1072 66
1073 1
1074 54
1075 77
1076 82
1077 92
1078 71
1079 30
1080 63
1081 90
1082 23
1083 20
1084 63
1085 81
1086 26
1087 27
1088 74
1089 32
1090 35
1091 45
1092 7
1093 77
1094 9
1095 24
1096 91
1097 59
1098 67
1099 53
1100 1
1101 8
1102 28
1103 13
1104 83
1105 22
1106 72
1107 27
1108 21
1109 45
1110 28
1111 43
1112 26
1113 72
1114 64
1115 84
1116 32
1117 29
1118 18
1119 54
1120 55
1121 69
1122 87
1123 54
1124 15
1125 48
1126 8
1127 82
1128 76
1129 42
1130 87
1131 87
1132 38
1133 10
1134 12
1135 55
1136 86
1137 8
1138 91
1139 16
1140 24
1141 23
1142 52
1143 96
1144 97
1145 45
1146 47
1147 29
1148 46
1149 8
1150 8
1151 75
1152 53
1153 52
1154 27
1155 21
1156 9
1157 94
1158 21
1159 84
1160 81
1161 70
1162 24
1163 40
1164 25
1165 71
1166 69
1167 71
1168 54
1169 73
1170 74
1171 2
1172 93
1173 47
1174 31
1175 22
1176 23
1177 59
1178 78
1179 20
1180 56
1181 24
1182 91
1183 25
1184 11
1185 13
1186 53
1187 64
1188 18
1189 14
1190 81
1191 68
1192 70
1193 1
1194 50
1195 37
1196 41
1197 45
1198 77
1199 28
1200 18
1201 73
1202 90
1203 33
1204 9
1205 14
1206 69
1207 2
1208 26
1209 84
1210 28
1211 57
1212 17
1213 13
1214 36
1215 32
1216 19
1217 34
1218 63
1219 73
1220 85
1221 12
1222 62
1223 33
1224 86
1225 44
1226 50
1227 44
1228 3
1229 29
1230 19
1231 79
1232 24
1233 85
1234 80
1235 37
1236 9
1237 53
1238 71
1239 25
1240 1
1241 20
1242 51
1243 53
1244 30
1245 57
1246 13
1247 53
1248 1
1249 53
1250 68
1251 59
1252 82
1253 78
1254 58
1255 89
1256 41
1257 0
1258 24
1259 60
1260 33
1261 41
1262 52
1263 60
1264 60
1265 71
1266 7
1267 78
1268 53
1269 83
1270 36
1271 71
1272 35
1273 75
1274 3
1275 74
1276 61
1277 23
1278 6
1279 81
1280 63
1281 59
1282 32
1283 41
1284 4
1285 61
1286 34
1287 5
1288 69
1289 28
1290 86
1291 0
1292 92
1293 2
1294 2
1295 6
1296 45
1297 30
1298 48
1299 9
1300 81
1301 52
1302 28
1303 26
1304 29
1305 11
1306 34
1307 47
1308 1
1309 44
1310 37
1311 37
1312 39
1313 62
1314 5
1315 53
1316 34
1317 25
1318 72
1319 49
1320 17
1321 22
1322 80
1323 53
1324 11
1325 5
1326 37
1327 3
1328 50
1329 60
1330 71
1331 30
1332 24
1333 68
1334 8
1335 53
1336 78
1337 57
1338 9
1339 24
1340 0
1341 90
1342 40
1343 4
1344 77
1345 47
1346 89
1347 66
1348 91
1349 42
1350 92
1351 71
1352 67
1353 5
1354 34
1355 51
1356 72
1357 85
1358 31
1359 21
1360 16
1361 93
1362 41
1363 0
1364 22
1365 35
1366 63
1367 29
1368 32
1369 47
1370 45
1371 35
1372 61
1373 81
1374 84
1375 26
1376 47
1377 81
1378 10
1379 81
1380 47
1381 97
1382 3
1383 77
1384 72
1385 2
1386 35
1387 91
1388 32
1389 81
1390 10
1391 5
1392 33
1393 66
1394 27
1395 59
1396 8
1397 36
1398 68
1399 95
1400 71
1401 56
1402 75
1403 88
1404 89
1405 11
1406 23
1407 35
1408 33
1409 0
1410 31
1411 52
1412 51
1413 48
1414 11
1415 45
1416 77
1417 62
1418 52
1419 59
1420 33
1421 27
1422 27
1423 9
1424 44
1425 20
1426 85
1427 24
1428 37
1429 77
1430 37
1431 12
1432 27
1433 28
1434 94
1435 1
1436 90
1437 2
1438 89
1439 23
1440 97
1441 56
1442 69
1443 53
1444 71
1445 3
1446 16
1447 49
1448 53
1449 47
1450 9
1451 31
1452 49
1453 32
1454 16
1455 15
1456 45
1457 51
1458 68
1459 85
1460 37
1461 69
1462 34
1463 63
1464 68
1465 47
1466 14
1467 6
1468 19
1469 90
1470 9
1471 68
1472 33
1473 5
1474 12
1475 65
1476 37
1477 51
1478 35
1479 4
1480 59
1481 59
1482 13
1483 81
1484 76
1485 3
1486 26
1487 87
1488 90
1489 90
1490 25
1491 63
1492 34
1493 31
1494 46
1495 97
1496 0
1497 28
1498 29
1499 66
1500 95
1501 78
1502 77
1503 2
1504 35
1505 3
1506 32
1507 85
1508 13
1509 8
1510 85
1511 68
1512 15
1513 93
1514 43
1515 95
1516 49
1517 53
1518 41
1519 93
1520 15
1521 52
1522 66
1523 39
1524 48
1525 44
1526 29
1527 96
1528 67
1529 7
1530 72
1531 24
1532 1
1533 5
1534 20
1535 41
1536 3
1537 92
1538 12
1539 94
1540 35
1541 91
1542 33
1543 68
1544 7
1545 44
1546 10
1547 77
1548 97
1549 78
1550 31
1551 54
1552 92
1553 63
1554 84
1555 25
1556 66
1557 97
1558 53
1559 26
1560 21
1561 44
1562 60
1563 27
1564 69
1565 36
1566 65
1567 14
1568 59
1569 4
1570 4
1571 23
1572 8
1573 73
1574 6
1575 44
1576 95
1577 16
1578 24
1579 24
1580 37
1581 74
1582 45
1583 70
1584 19
1585 91
1586 65
1587 16
1588 75
1589 48
1590 47
1591 61
1592 3
1593 19
1594 19
1595 1
1596 58
1597 27
1598 97
1599 39
1600 40
1601 96
1602 24
1603 90
1604 88
1605 40
1606 68
1607 6
1608 8
1609 26
1610 17
1611 82
1612 43
1613 81
1614 5
1615 66
1616 49
1617 58
1618 6
1619 16
1620 83
1621 72
1622 23
1623 84
1624 57
1625 92
1626 43
1627 11
1628 20
1629 86
1630 78
1631 12
1632 75
1633 43
1634 55
1635 17
1636 27
1637 77
1638 90
1639 18
1640 34
1641 86
1642 36
1643 68
1644 41
1645 25
1646 72
1647 50
1648 95
1649 13
1650 60
1651 94
1652 53
1653 70
1654 31
1655 58
1656 61
1657 13
1658 67
1659 16
1660 72
1661 70
1662 58
1663 86
1664 49
1665 40
1666 0
1667 32
1668 30
1669 5
1670 48
1671 60
1672 17
1673 49
1674 68
1675 95
1676 70
1677 49
1678 45
1679 37
1680 59
1681 93
1682 86
1683 18
1684 77
1685 25
1686 35
1687 71
1688 18
1689 69
1690 25
1691 77
1692 68
1693 59
1694 47
1695 27
1696 78
1697 65
1698 66
1699 92
1700 28
1701 14
1702 27
1703 67
1704 3
1705 79
1706 40
1707 34
1708 25
1709 13
1710 4
1711 34
1712 23
1713 18
1714 90
1715 45
1716 13
1717 52
1718 8
1719 83
1720 22
1721 35
1722 25
1723 77
1724 13
1725 40
1726 81
1727 76
1728 16
1729 16
1730 3
1731 95
1732 25
1733 32
1734 95
1735 43
1736 41
1737 1
1738 24
1739 90
1740 68
1741 79
1742 33
1743 69
1744 14
1745 94
1746 50
1747 82
1748 45
1749 14
1750 96
1751 47
1752 25
1753 37
1754 29
1755 74
1756 38
1757 90
1758 18
1759 65
1760 53
1761 33
1762 52
1763 96
1764 31
1765 24
1766 74
1767 61
1768 90
1769 75
1770 32
1771 31
1772 40
1773 79
1774 38
1775 41
1776 27
1777 30
1778 5
1779 65
1780 8
1781 96
1782 40
1783 86
1784 27
1785 54
1786 1
1787 9
1788 72
1789 60
1790 73
1791 45
1792 27
1793 2
1794 58
1795 47
1796 70
1797 5
1798 69
1799 53
1800 82
1801 42
1802 91
1803 71
1804 14
1805 90
1806 68
1807 21
1808 7
1809 21
1810 63
1811 83
1812 44
1813 12
1814 69
1815 5
1816 8
1817 91
1818 67
1819 34
1820 50
1821 82
1822 16
1823 2
1824 72
1825 26
1826 39
1827 63
1828 12
1829 60
1830 46
1831 16
1832 41
1833 61
1834 94
1835 56
1836 71
1837 68
1838 21
1839 49
1840 45
1841 45
1842 71
1843 72
1844 43
1845 49
1846 22
1847 18
1848 42
1849 25
1850 5
1851 5
1852 95
1853 8
1854 81
1855 21
1856 61
1857 5
1858 37
1859 14
1860 56
1861 2
1862 50
1863 22
1864 76
1865 47
1866 26
1867 59
1868 68
1869 51
1870 52
1871 13
1872 65
1873 71
1874 95
1875 78
1876 35
1877 68
1878 73
1879 14
1880 10
1881 25
1882 1
1883 23
1884 68
1885 46
1886 67
1887 77
1888 12
1889 10
1890 61
1891 3
1892 53
1893 40
1894 61
1895 78
1896 43
1897 62
1898 58
1899 22
1900 55
1901 26
1902 37
1903 82
1904 13
1905 70
1906 93
1907 55
1908 57
1909 82
1910 22
1911 71
1912 26
1913 12
1914 12
1915 15
1916 22
1917 80
1918 71
1919 40
1920 11
1921 77
1922 75
1923 7
1924 53
1925 79
1926 13
1927 21
1928 70
1929 14
1930 43
1931 67
1932 27
1933 41
1934 24
1935 78
1936 12
1937 45
1938 65
1939 88
1940 66
1941 35
1942 23
1943 73
1944 12
1945 22
1946 75
1947 50
1948 27
1949 89
1950 79
1951 13
1952 41
1953 77
1954 74
1955 97
1956 90
1957 71
1958 59
1959 31
1960 71
1961 19
1962 32
1963 34
1964 72
1965 77
1966 53
1967 75
1968 22
1969 3
1970 30
1971 5
1972 57
1973 70
1974 32
1975 32
1976 86
1977 54
1978 52
1979 35
1980 6
1981 18
1982 5
1983 24
1984 19
1985 28
1986 79
1987 32
1988 30
1989 60
1990 36
1991 57
1992 26
1993 70
1994 63
1995 65
1996 23
1997 89
1998 75
1999 60
2000 5
2001 82
2002 46
2003 76
2004 41
2005 69
2006 24
2007 58
2008 11
2009 62
2010 63
2011 3
2012 76
2013 30
2014 8
2015 43
2016 24
2017 7
2018 43
2019 69
2020 83
2021 17
2022 46
2023 91
2024 68
2025 13
2026 82
2027 56
2028 18
2029 12
2030 63
2031 81
2032 63
2033 61
2034 53
2035 56
2036 76
2037 16
2038 72
2039 0
2040 86
2041 55
2042 41
2043 50
2044 59
2045 22
2046 65
2047 43
2048 40
2049 70
2050 35
2051 43
2052 75
2053 27
2054 91
2055 21
2056 81
2057 12
2058 56
2059 14
2060 21
2061 64
2062 36
2063 96
2064 93
2065 27
2066 12
2067 90
2068 92
2069 55
2070 34
2071 8
2072 82
2073 81
2074 77
2075 5
2076 83
2077 20
2078 25
2079 34
2080 8
2081 11
2082 51
2083 96
2084 18
2085 65
2086 52
2087 85
2088 57
2089 47
2090 43
2091 35
2092 7
2093 72
2094 11
2095 25
2096 82
2097 32
2098 1
2099 27
2100 93
2101 9
2102 95
2103 58
2104 4
2105 69
2106 66
2107 97
2108 53
2109 42
2110 77
2111 72
2112 53
2113 29
2114 94
2115 96
2116 47
2117 29
2118 12
2119 37
2120 40
2121 68
2122 10
2123 49
2124 5
2125 41
2126 81
2127 0
2128 2
2129 62
2130 71
2131 51
2132 52
2133 32
2134 15
2135 44
2136 12
2137 12
2138 13
2139 12
2140 3
2141 54
2142 77
2143 13
2144 13
2145 67
2146 62
2147 48
2148 21
2149 21
2150 30
2151 17
2152 81
2153 67
2154 26
2155 1
2156 6
2157 13
2158 38
2159 9
2160 0
2161 75
2162 56
2163 81
2164 12
2165 21
2166 28
2167 90
2168 86
2169 3
2170 32
2171 82
2172 65
2173 12
2174 81
2175 7
2176 1
2177 18
2178 78
2179 17
2180 34
2181 28
2182 30
2183 59
2184 66
2185 5
2186 5
2187 89
2188 5
2189 9
2190 85
2191 41
2192 19
2193 26
2194 16
2195 35
2196 20
2197 11
2198 76
2199 83
2200 39
2201 22
2202 71
2203 71
2204 11
2205 89
2206 76
2207 89
2208 66
2209 73
2210 79
2211 35
2212 72
2213 58
2214 51
2215 61
2216 54
2217 67
2218 12
2219 39
2220 83
2221 12
2222 34
2223 87
2224 62
2225 75
2226 5
2227 1
2228 87
2229 55
2230 9
2231 65
2232 33
2233 63
2234 62
2235 45
2236 3
2237 5
2238 80
2239 76
2240 53
2241 5
2242 62
2243 73
2244 11
2245 34
2246 25
2247 46
2248 20
2249 85
2250 51
2251 34
2252 95
2253 48
2254 9
2255 44
2256 44
2257 15
2258 55
2259 59
2260 34
2261 30
2262 9
2263 87
2264 46
2265 1
2266 23
2267 16
2268 17
2269 7
2270 94
2271 62
2272 35
2273 61
2274 88
2275 71
2276 16
2277 52
2278 41
2279 35
2280 53
2281 44
2282 69
2283 10
2284 2
2285 34
2286 48
2287 62
2288 57
2289 40
2290 75
2291 41
2292 38
2293 83
2294 81
2295 7
2296 5
2297 67
2298 4
2299 42
2300 45
2301 4
2302 44
2303 37
2304 33
2305 22
2306 33
2307 30
2308 3
2309 12
2310 19
2311 94
2312 45
2313 44
2314 69
2315 44
2316 13
2317 91
2318 31
2319 11
2320 23
2321 42
2322 12
2323 94
2324 30
2325 70
2326 32
2327 11
2328 27
2329 39
2330 20
2331 81
2332 69
2333 58
2334 36
2335 47
2336 40
2337 66
2338 22
2339 95
2340 88
2341 30
2342 5
2343 81
2344 10
2345 63
2346 63
2347 18
2348 78
2349 92
2350 50
2351 73
2352 27
2353 2
2354 50
2355 25
2356 68
2357 72
2358 82
2359 81
2360 24
2361 32
2362 40
2363 73
2364 67
2365 49
2366 25
2367 49
2368 53
2369 20
2370 75
2371 21
2372 69
2373 39
2374 52
2375 83
2376 62
2377 87
2378 60
2379 3
2380 6
2381 67
2382 91
2383 77
2384 90
2385 69
2386 75
2387 55
2388 90
2389 90
2390 28
2391 56
2392 89
2393 53
2394 13
2395 25
2396 16
2397 30
2398 46
2399 61
2400 36
2401 61
2402 17
2403 74
2404 11
2405 81
2406 21
2407 88
2408 47
2409 3
2410 21
2411 47
2412 18
2413 24
2414 94
2415 68
2416 49
2417 27
2418 21
2419 52
2420 55
2421 63
2422 79
2423 68
2424 3
2425 34
2426 42
2427 85
2428 66
2429 87
2430 22
2431 33
2432 47
2433 95
2434 44
2435 21
2436 21
2437 41
2438 70
2439 27
2440 62
2441 9
2442 17
2443 43
2444 43
2445 23
2446 94
2447 4
2448 53
2449 46
2450 70
2451 54
2452 72
2453 12
2454 92
2455 63
2456 94
2457 36
2458 27
2459 96
2460 87
2461 62
2462 35
2463 71
2464 3
2465 10
2466 43
2467 35
2468 57
2469 45
2470 13
2471 51
2472 60
2473 55
2474 37
2475 8
2476 79
2477 82
2478 33
2479 57
2480 50
2481 71
2482 91
2483 92
2484 21
2485 37
2486 76
2487 40
2488 36
2489 55
2490 26
2491 8
2492 41
2493 93
2494 80
2495 95
2496 60
2497 47
2498 10
2499 1
2500 76
2501 62
2502 12
2503 58
2504 23
2505 37
2506 33
2507 53
2508 26
2509 89
2510 27
2511 0
2512 93
2513 21
2514 27
2515 34
2516 57
2517 13
2518 38
2519 24
2520 55
2521 91
2522 10
2523 89
2524 31
2525 28
2526 62
2527 17
2528 82
2529 45
2530 21
2531 4
2532 40
2533 34
2534 73
2535 75
2536 20
2537 20
2538 40
2539 82
2540 68
2541 20
2542 95
2543 16
2544 76
2545 47
2546 81
2547 57
2548 52
2549 49
2550 84
2551 44
2552 16
2553 29
2554 82
2555 25
2556 0
2557 10
2558 45
2559 91
2560 41
2561 0
2562 32
2563 53
2564 18
2565 11
2566 40
2567 17
2568 33
2569 43
2570 43
2571 28
2572 75
2573 15
2574 81
2575 33
2576 76
2577 18
2578 27
2579 16
2580 86
2581 18
2582 96
2583 55
2584 14
2585 41
2586 3
2587 79
2588 30
2589 45
2590 63
2591 71
2592 71
2593 18
2594 24
2595 95
2596 48
2597 43
2598 68
2599 71
2600 66
2601 94
2602 72
2603 59
2604 97
2605 94
2606 33
2607 33
2608 71
2609 63
2610 81
2611 86
2612 12
2613 34
2614 8
2615 15
2616 79
2617 95
2618 49
2619 66
2620 37
2621 12
2622 33
2623 85
2624 81
2625 32
2626 54
2627 77
2628 75
2629 86
2630 61
2631 54
2632 23
2633 41
2634 28
2635 47
2636 45
2637 18
2638 33
2639 66
2640 21
2641 62
2642 59
2643 50
2644 89
2645 23
2646 10
2647 47
2648 41
2649 78
2650 13
2651 46
2652 73
2653 46
2654 30
2655 59
2656 40
2657 1
2658 61
2659 83
2660 45
2661 49
2662 25
2663 34
2664 56
2665 14
2666 53
2667 35
2668 3
2669 73
2670 12
2671 87
2672 16
2673 12
2674 88
2675 29
2676 68
2677 97
2678 76
2679 65
2680 18
2681 68
2682 6
2683 7
2684 8
2685 27
2686 57
2687 22
2688 80
2689 32
2690 33
2691 47
2692 75
2693 34
2694 97
2695 67
2696 47
2697 75
2698 92
2699 30
2700 81
2701 5
2702 52
2703 60
2704 26
2705 59
2706 73
2707 13
2708 80
2709 4
2710 83
2711 88
2712 49
2713 78
2714 13
2715 40
2716 23
2717 49
2718 44
2719 88
2720 91
2721 43
2722 69
2723 65
2724 63
2725 20
2726 34
2727 41
2728 62
2729 68
2730 54
2731 32
2732 15
2733 63
2734 91
2735 70
2736 33
2737 72
2738 40
2739 20
2740 96
2741 97
2742 64
2743 33
2744 25
2745 39
2746 80
2747 12
2748 33
2749 6
2750 86
2751 73
2752 55
2753 87
2754 1
2755 69
2756 77
2757 46
2758 59
2759 56
2760 26
2761 17
2762 87
2763 71
2764 13
2765 18
2766 43
2767 69
2768 76
2769 55
2770 83
2771 27
2772 3
2773 78
2774 53
2775 41
2776 61
2777 6
2778 55
2779 34
2780 11
2781 0
2782 50
2783 2
2784 14
2785 71
2786 37
2787 77
2788 33
2789 87
2790 35
2791 36
2792 83
2793 54
2794 89
2795 35
2796 62
2797 65
2798 31
2799 51
2800 29
2801 72
2802 38
2803 95
2804 31
2805 67
2806 92
2807 56
2808 51
2809 81
2810 14
2811 69
2812 33
2813 27
2814 34
2815 64
2816 27
2817 29
2818 38
2819 50
2820 13
2821 68
2822 26
2823 29
2824 95
2825 57
2826 49
2827 96
2828 69
2829 54
2830 81
2831 12
2832 42
2833 13
2834 71
2835 64
2836 63
2837 74
2838 92
2839 2
2840 85
2841 21
2842 9
2843 85
2844 16
2845 91
2846 86
2847 23
2848 5
2849 33
2850 67
2851 77
2852 71
2853 81
2854 71
2855 82
2856 6
2857 42
2858 26
2859 87
2860 77
2861 62
2862 26
2863 37
2864 94
2865 58
2866 12
2867 15
2868 85
2869 23
2870 7
2871 76
2872 21
2873 12
2874 77
2875 11
2876 3
2877 6
2878 40
2879 75
2880 73
2881 54
2882 47
2883 45
2884 21
2885 85
2886 14
2887 0
2888 58
2889 77
2890 97
2891 21
2892 88
2893 26
2894 21
2895 21
2896 54
2897 64
2898 46
2899 27
2900 68
2901 12
2902 15
2903 70
2904 40
2905 49
2906 72
2907 6
2908 4
2909 43
2910 55
2911 40
2912 74
2913 69
2914 89
2915 82
2916 41
2917 97
2918 21
2919 94
2920 5
2921 12
2922 74
2923 0
2924 60
2925 41
2926 69
2927 64
2928 33
2929 55
2930 71
2931 20
2932 38
2933 35
2934 8
2935 75
2936 16
2937 78
2938 17
2939 78
2940 62
2941 84
2942 62
2943 84
2944 93
2945 28
2946 74
2947 33
2948 24
2949 95
2950 59
2951 49
2952 40
2953 72
2954 76
2955 82
2956 23
2957 41
2958 84
2959 3
2960 34
2961 96
2962 6
2963 41
2964 12
2965 54
2966 30
2967 74
2968 4
2969 41
2970 73
2971 46
2972 62
2973 15
2974 37
2975 18
2976 30
2977 96
2978 58
2979 35
2980 58
2981 35
2982 40
2983 44
2984 83
2985 37
2986 75
2987 3
2988 39
2989 21
2990 64
2991 44
2992 85
2993 29
2994 31
2995 35
2996 6
2997 29
2998 12
2999 3
3000 58
3001 32
3002 40
3003 11
3004 84
3005 64
3006 75
3007 96
3008 71
3009 31
3010 36
3011 58
3012 71
3013 23
3014 5
3015 34
3016 14
3017 81
3018 88
3019 88
3020 12
3021 55
3022 50
3023 82
3024 75
3025 67
3026 40
3027 33
3028 53
3029 75
3030 26
3031 63
3032 88
3033 81
3034 62
3035 73
3036 49
3037 59
3038 22
3039 72
3040 13
3041 40
3042 54
3043 10
3044 93
3045 75
3046 53
3047 73
3048 86
3049 13
3050 52
3051 57
3052 53
3053 25
3054 46
3055 13
3056 24
3057 43
3058 84
3059 87
3060 60
3061 27
3062 25
3063 31
3064 19
3065 94
3066 42
3067 81
3068 95
3069 88
3070 82
3071 48
3072 39
3073 41
3074 69
3075 44
3076 34
3077 46
3078 37
3079 79
3080 27
3081 72
3082 26
3083 0
3084 78
3085 8
3086 57
3087 16
3088 30
3089 12
3090 49
3091 42
3092 10
3093 47
3094 61
3095 21
3096 29
3097 5
3098 29
3099 8
3100 12
3101 46
3102 53
3103 77
3104 8
3105 30
3106 30
3107 40
3108 93
3109 42
3110 33
3111 47
3112 40
3113 29
3114 7
3115 5
3116 21
3117 23
3118 52
3119 68
3120 71
3121 85
3122 89
3123 43
3124 71
3125 16
3126 53
3127 54
3128 72
3129 27
3130 32
3131 3
3132 20
3133 87
3134 55
3135 60
3136 81
3137 27
3138 51
3139 32
3140 35
3141 33
3142 50
3143 13
3144 27
3145 58
3146 95
3147 68
3148 24
3149 44
3150 50
3151 26
3152 33
3153 5
3154 27
3155 26
3156 37
3157 41
3158 15
3159 12
3160 9
3161 39
3162 13
3163 85
3164 58
3165 70
3166 97
3167 67
3168 72
3169 6
3170 64
3171 4
3172 25
3173 34
3174 65
3175 6
3176 30
3177 50
3178 15
3179 43
3180 21
3181 12
3182 94
3183 37
3184 77
3185 9
3186 89
3187 16
3188 30
3189 22
3190 56
3191 75
3192 32
3193 11
3194 26
3195 9
3196 96
3197 43
3198 68
3199 36
3200 10
3201 53
3202 77
3203 37
3204 3
3205 22
3206 37
3207 9
3208 90
3209 45
3210 90
3211 77
3212 0
3213 31
3214 54
3215 14
3216 91
3217 21
3218 36
3219 53
3220 32
3221 12
3222 39
3223 17
3224 7
3225 11
3226 44
3227 79
3228 70
3229 35
3230 37
3231 57
3232 50
3233 6
3234 54
3235 74
3236 97
3237 5
3238 89
3239 50
3240 11
3241 92
3242 5
3243 77
3244 68
3245 59
3246 91
3247 18
3248 13
3249 19
3250 69
3251 54
3252 9
3253 10
3254 44
3255 83
3256 49
3257 45
3258 6
3259 89
3260 51
3261 40
3262 32
3263 53
3264 32
3265 14
3266 65
3267 85
3268 34
3269 33
3270 75
3271 50
3272 58
3273 1
3274 32
3275 25
3276 63
3277 55
3278 49
3279 67
3280 83
3281 88
3282 40
3283 80
3284 81
3285 23
3286 3
3287 95
3288 11
3289 5
3290 44
3291 43
3292 9
3293 75
3294 67
3295 91
3296 32
3297 89
3298 6
3299 85
3300 76
3301 88
3302 31
3303 82
3304 8
3305 58
3306 53
3307 77
3308 15
3309 35
3310 95
3311 46
3312 17
3313 7
3314 68
3315 6
3316 61
3317 3
3318 84
3319 32
3320 70
3321 42
3322 92
3323 23
3324 97
3325 56
3326 6
3327 30
3328 57
3329 89
3330 27
3331 31
3332 68
3333 19
3334 53
3335 92
3336 97
3337 63
3338 42
3339 65
3340 21
3341 66
3342 85
3343 14
3344 55
3345 21
3346 40
3347 29
3348 55
3349 56
3350 47
3351 56
3352 25
3353 63
3354 50
3355 49
3356 84
3357 97
3358 61
3359 57
3360 70
3361 20
3362 7
3363 4
3364 93
3365 33
3366 41
3367 84
3368 97
3369 96
3370 32
3371 64
3372 27
3373 38
3374 47
3375 95
3376 33
3377 63
3378 35
3379 56
3380 19
3381 13
3382 28
3383 61
3384 77
3385 31
3386 53
3387 40
3388 12
3389 97
3390 41
3391 42
3392 19
3393 3
3394 85
3395 40
3396 33
3397 70
3398 42
3399 71
3400 35
3401 91
3402 73
3403 54
3404 17
3405 59
3406 40
3407 62
3408 36
3409 90
3410 9
3411 29
3412 19
3413 90
3414 5
3415 27
3416 89
3417 30
3418 37
3419 17
3420 95
3421 41
3422 44
3423 21
3424 29
3425 58
3426 81
3427 44
3428 82
3429 11
3430 57
3431 60
3432 17
3433 25
3434 22
3435 86
3436 36
3437 35
3438 4
3439 22
3440 36
3441 67
3442 82
3443 50
3444 50
3445 96
3446 39
3447 85
3448 84
3449 69
3450 34
3451 17
3452 4
3453 82
3454 91
3455 9
3456 70
3457 89
3458 19
3459 18
3460 50
3461 7
3462 63
3463 81
3464 89
3465 57
3466 63
3467 65
3468 96
3469 22
3470 49
3471 44
3472 39
3473 66
3474 27
3475 40
3476 9
3477 94
3478 36
3479 6
3480 24
3481 92
3482 47
3483 74
3484 15
3485 53
3486 51
3487 96
3488 71
3489 50
3490 22
3491 5
3492 45
3493 55
3494 16
3495 50
3496 20
3497 35
3498 69
3499 89
3500 71
3501 82
3502 38
3503 33
3504 17
3505 27
3506 21
3507 42
3508 6
3509 34
3510 12
3511 58
3512 70
3513 97
3514 18
3515 62
3516 93
3517 19
3518 45
3519 26
3520 44
3521 11
3522 29
3523 80
3524 14
3525 30
3526 97
3527 66
3528 60
3529 69
3530 41
3531 63
3532 12
3533 72
3534 96
3535 38
3536 51
3537 35
3538 91
3539 13
3540 57
3541 16
3542 16
3543 59
3544 25
3545 22
3546 61
3547 55
3548 31
3549 58
3550 32
3551 50
3552 26
3553 29
3554 17
3555 2
3556 59
3557 56
3558 78
3559 4
3560 54
3561 16
3562 23
3563 97
3564 45
3565 77
3566 59
3567 47
3568 59
3569 41
3570 5
3571 72
3572 48
3573 60
3574 67
3575 76
3576 12
3577 66
3578 72
3579 46
3580 61
3581 5
3582 93
3583 48
3584 53
3585 49
3586 90
3587 28
3588 50
3589 12
3590 19
3591 12
3592 89
3593 56
3594 47
3595 52
3596 92
3597 72
3598 45
3599 87
3600 65
3601 11
3602 67
3603 70
3604 40
3605 92
3606 52
3607 18
3608 85
3609 55
3610 44
3611 55
3612 23
3613 84
3614 27
3615 37
3616 12
3617 78
3618 23
3619 25
3620 82
3621 6
3622 77
3623 88
3624 28
3625 51
3626 74
3627 17
3628 55
3629 71
3630 25
3631 49
3632 49
3633 82
3634 97
3635 4
3636 17
3637 24
3638 22
3639 14
3640 2
3641 50
3642 40
3643 86
3644 58
3645 50
3646 45
3647 5
3648 67
3649 34
3650 58
3651 28
3652 23
3653 28
3654 25
3655 58
3656 58
3657 60
3658 13
3659 60
3660 77
3661 33
3662 1
3663 13
3664 76
3665 0
3666 76
3667 12
3668 65
3669 43
3670 58
3671 65
3672 58
3673 49
3674 91
3675 29
3676 87
3677 95
3678 83
3679 42
3680 21
3681 96
3682 30
3683 66
3684 51
3685 6
3686 63
3687 14
3688 76
3689 81
3690 25
3691 3
3692 15
3693 72
3694 12
3695 77
3696 79
3697 2
3698 67
3699 49
3700 88
3701 40
3702 41
3703 17
3704 27
3705 46
3706 27
3707 41
3708 27
3709 41
3710 56
3711 25
3712 33
3713 47
3714 62
3715 34
3716 91
3717 9
3718 43
3719 96
3720 55
3721 20
3722 0
3723 12
3724 89
3725 4
3726 55
3727 68
3728 54
3729 91
3730 46
3731 35
3732 14
3733 51
3734 95
3735 63
3736 73
3737 53
3738 68
3739 21
3740 73
3741 34
3742 22
3743 6
3744 52
3745 27
3746 31
3747 31
3748 88
3749 45
3750 35
3751 77
3752 63
3753 97
3754 30
3755 63
3756 72
3757 80
3758 78
3759 73
3760 20
3761 84
3762 58
3763 14
3764 39
3765 71
3766 76
3767 3
3768 71
3769 11
3770 27
3771 85
3772 5
3773 84
3774 78
3775 9
3776 58
3777 88
3778 16
3779 37
3780 27
3781 37
3782 40
3783 87
3784 13
3785 86
3786 55
3787 30
3788 42
3789 40
3790 66
3791 44
3792 80
3793 73
3794 57
3795 44
3796 7
3797 72
3798 13
3799 83
3800 2
3801 11
3802 79
3803 69
3804 27
3805 13
3806 66
3807 16
3808 78
3809 47
3810 60
3811 60
3812 47
3813 45
3814 33
3815 8
3816 63
3817 13
3818 73
3819 49
3820 61
3821 4
3822 43
3823 78
3824 6
3825 46
3826 81
3827 44
3828 58
3829 28
3830 12
3831 30
3832 10
3833 13
3834 69
3835 46
3836 36
3837 16
3838 68
3839 1
3840 88
3841 19
3842 52
3843 96
3844 41
3845 72
3846 65
3847 13
3848 78
3849 51
3850 33
3851 0
3852 34
3853 70
3854 51
3855 13
3856 52
3857 5
3858 21
3859 82
3860 18
3861 27
3862 87
3863 69
3864 76
3865 49
3866 76
3867 93
3868 85
3869 90
3870 38
3871 77
3872 97
3873 3
3874 16
3875 34
3876 32
3877 13
3878 63
3879 88
3880 32
3881 12
3882 42
3883 62
3884 11
3885 81
3886 32
3887 59
3888 36
3889 43
3890 70
3891 2
3892 5
3893 82
3894 32
3895 30
3896 35
3897 8
3898 63
3899 8
3900 5
3901 8
3902 63
3903 12
3904 77
3905 85
3906 6
3907 58
3908 44
3909 33
3910 49
3911 28
3912 12
3913 59
3914 16
3915 63
3916 33
3917 66
3918 81
3919 40
3920 17
3921 57
3922 27
3923 49
3924 34
3925 57
3926 48
3927 12
3928 36
3929 33
3930 94
3931 27
3932 50
3933 20
3934 18
3935 55
3936 35
3937 52
3938 53
3939 5
3940 95
3941 26
3942 94
3943 62
3944 44
3945 62
3946 71
3947 9
3948 46
3949 81
3950 6
3951 21
3952 50
3953 30
3954 55
3955 59
3956 76
3957 13
3958 39
3959 92
3960 16
3961 27
3962 43
3963 47
3964 14
3965 50
3966 31
3967 67
3968 0
3969 64
3970 51
3971 0
3972 33
3973 80
3974 29
3975 84
3976 53
3977 44
3978 19
3979 0
3980 47
3981 59
3982 4
3983 50
3984 9
3985 22
3986 47
3987 26
3988 97
3989 19
3990 53
3991 13
3992 63
3993 4
3994 91
3995 82
3996 3
3997 21
3998 0
3999 49
4000 70
4001 18
4002 76
4003 79
4004 58
4005 28
4006 72
4007 24
4008 8
4009 53
4010 32
4011 26
4012 63
4013 33
4014 5
4015 75
4016 82
4017 75
4018 26
4019 36
4020 91
4021 56
4022 31
4023 41
4024 30
4025 45
4026 87
4027 23
4028 94
4029 3
4030 52
4031 20
4032 10
4033 61
4034 16
4035 12
4036 54
4037 77
4038 36
4039 88
4040 29
4041 51
4042 29
4043 97
4044 20
4045 70
4046 16
4047 61
4048 97
4049 45
4050 44
4051 27
4052 44
4053 54
4054 63
4055 30
4056 22
4057 48
4058 61
4059 31
4060 71
4061 9
4062 37
4063 16
4064 22
4065 59
4066 70
4067 78
4068 77
4069 69
4070 90
4071 93
4072 45
4073 13
4074 29
4075 71
4076 50
4077 55
4078 27
4079 50
4080 39
4081 53
4082 22
4083 60
4084 83
4085 82
4086 8
4087 89
4088 59
4089 12
4090 55
4091 89
4092 33
4093 66
4094 62
4095 19
4096 26
4097 42
4098 5
4099 86
4100 37
4101 61
4102 53
4103 79
4104 80
4105 33
4106 36
4107 28
4108 93
4109 40
4110 7
4111 59
4112 46
4113 1
4114 55
4115 27
4116 1
4117 27
4118 56
4119 23
4120 33
4121 96
4122 1
4123 90
4124 6
4125 8
4126 49
4127 82
4128 47
4129 70
4130 97
4131 21
4132 78
4133 69
4134 18
4135 18
4136 62
4137 15
4138 19
4139 59
4140 61
4141 58
4142 53
4143 96
4144 78
4145 75
4146 29
4147 49
4148 30
4149 24
4150 31
4151 12
4152 74
4153 33
4154 40
4155 70
4156 91
4157 52
4158 89
4159 91
4160 58
4161 49
4162 23
4163 35
4164 25
4165 82
4166 58
4167 71
4168 75
4169 6
4170 8
4171 53
4172 37
4173 34
4174 11
4175 48
4176 66
4177 29
4178 11
4179 3
4180 60
4181 17
4182 94
4183 3
4184 74
4185 29
4186 19
4187 89
4188 37
4189 17
4190 21
4191 55
4192 85
4193 3
4194 63
4195 34
4196 95
4197 86
4198 65
4199 15
4200 8
4201 55
4202 40
4203 54
4204 8
4205 47
4206 45
4207 27
4208 63
4209 44
4210 27
4211 53
4212 81
4213 43
4214 22
4215 56
4216 62
4217 91
4218 89
4219 20
4220 70
4221 42
4222 64
4223 94
4224 83
4225 78
4226 44
4227 36
4228 8
4229 6
4230 19
4231 37
4232 83
4233 73
4234 67
4235 77
4236 70
4237 25
4238 79
4239 9
4240 21
4241 68
4242 12
4243 7
4244 5
4245 33
4246 79
4247 63
4248 1
4249 63
4250 91
4251 34
4252 41
4253 95
4254 40
4255 35
4256 63
4257 34
4258 2
4259 94
4260 20
4261 78
4262 0
4263 2
4264 38
4265 59
4266 60
4267 67
4268 28
4269 73
4270 31
4271 86
4272 78
4273 62
4274 44
4275 97
4276 44
4277 73
4278 55
4279 80
4280 49
4281 89
4282 46
4283 85
4284 91
4285 69
4286 47
4287 12
4288 22
4289 64
4290 90
4291 8
4292 30
4293 70
4294 5
4295 43
4296 75
4297 82
4298 49
4299 68
4300 0
4301 42
4302 35
4303 34
4304 21
4305 53
4306 80
4307 47
4308 27
4309 89
4310 2
4311 28
4312 60
4313 12
4314 19
4315 32
4316 19
4317 50
4318 32
4319 78
4320 70
4321 12
4322 68
4323 26
4324 46
4325 53
4326 18
4327 24
4328 87
4329 65
4330 53
4331 60
4332 32
4333 49
4334 3
4335 1
4336 73
4337 76
4338 53
4339 67
4340 76
4341 89
4342 96
4343 62
4344 47
4345 54
4346 60
4347 35
4348 84
4349 9
4350 9
4351 72
4352 62
4353 3
4354 56
4355 65
4356 55
4357 22
4358 56
4359 49
4360 88
4361 90
4362 69
4363 68
4364 31
4365 6
4366 3
4367 75
4368 16
4369 78
4370 3
4371 42
4372 58
4373 68
4374 65
4375 46
4376 63
4377 3
4378 36
4379 0
4380 33
4381 73
4382 47
4383 47
4384 74
4385 21
4386 30
4387 7
4388 12
4389 65
4390 90
4391 5
4392 72
4393 61
4394 29
4395 26
4396 96
4397 8
4398 78
4399 53
4400 44
4401 13
4402 56
4403 51
4404 75
4405 89
4406 15
4407 55
4408 44
4409 56
4410 6
4411 78
4412 59
4413 59
4414 53
4415 50
4416 40
4417 19
4418 17
4419 38
4420 16
4421 60
4422 31
4423 81
4424 66
4425 11
4426 57
4427 25
4428 61
4429 44
4430 43
4431 88
4432 24
4433 35
4434 86
4435 33
4436 61
4437 91
4438 50
4439 36
4440 30
4441 5
4442 39
4443 63
4444 87
4445 45
4446 25
4447 2
4448 21
4449 34
4450 33
4451 65
4452 24
4453 56
4454 73
4455 14
4456 32
4457 23
4458 2
4459 9
4460 71
4461 63
4462 74
4463 10
4464 63
4465 91
4466 96
4467 79
4468 89
4469 85
4470 57
4471 45
4472 40
4473 61
4474 13
4475 17
4476 72
4477 5
4478 28
4479 8
4480 94
4481 37
4482 77
4483 24
4484 12
4485 55
4486 42
4487 84
4488 57
4489 89
4490 37
4491 37
4492 59
4493 46
4494 87
4495 33
4496 68
4497 60
4498 35
4499 4
4500 42
4501 26
4502 55
4503 86
4504 11
4505 38
4506 52
4507 43
4508 68
4509 23
4510 33
4511 69
4512 59
4513 34
4514 94
4515 91
4516 87
4517 71
4518 51
4519 27
4520 7
4521 73
4522 50
4523 75
4524 49
4525 20
4526 56
4527 56
4528 61
4529 90
4530 66
4531 50
4532 9
4533 0
4534 71
4535 28
4536 28
4537 2
4538 60
4539 0
4540 81
4541 34
4542 79
4543 75
4544 9
4545 11
4546 83
4547 40
4548 84
4549 32
4550 4
4551 24
4552 40
4553 59
4554 30
4555 95
4556 13
4557 56
4558 53
4559 26
4560 17
4561 46
4562 26
4563 58
4564 82
4565 82
4566 16
4567 41
4568 34
4569 82
4570 65
4571 0
4572 58
4573 72
4574 55
4575 27
4576 63
4577 69
4578 13
4579 40
4580 10
4581 97
4582 6
4583 82
4584 88
4585 81
4586 47
4587 48
4588 28
4589 50
4590 45
4591 73
4592 50
4593 23
4594 32
4595 97
4596 69
4597 35
4598 49
4599 52
4600 78
4601 63
4602 37
4603 16
4604 55
4605 63
4606 51
4607 3
4608 69
4609 90
4610 41
4611 40
4612 34
4613 50
4614 62
4615 51
4616 84
4617 7
4618 33
4619 55
4620 63
4621 5
4622 26
4623 25
4624 14
4625 59
4626 1
4627 11
4628 62
4629 70
4630 2
4631 51
4632 87
4633 53
4634 53
4635 22
4636 66
4637 33
4638 40
4639 20
4640 21
4641 59
4642 22
4643 80
4644 79
4645 19
4646 82
4647 71
4648 34
4649 12
4650 76
4651 4
4652 3
4653 13
4654 4
4655 29
4656 35
4657 4
4658 57
4659 26
4660 19
4661 97
4662 69
4663 87
4664 41
4665 9
4666 36
4667 11
4668 20
4669 5
4670 68
4671 62
4672 10
4673 20
4674 94
4675 54
4676 97
4677 10
4678 25
4679 34
4680 77
4681 49
4682 55
4683 82
4684 45
4685 32
4686 60
4687 54
4688 96
4689 45
4690 41
4691 26
4692 63
4693 44
4694 77
4695 82
4696 3
4697 24
4698 3
4699 12
4700 86
4701 52
4702 26
4703 71
4704 74
4705 38
4706 88
4707 8
4708 69
4709 53
4710 17
4711 3
4712 40
4713 46
4714 81
4715 30
4716 39
4717 62
4718 93
4719 26
4720 53
4721 19
4722 24
4723 71
4724 39
4725 56
4726 59
4727 13
4728 58
4729 17
4730 93
4731 61
4732 69
4733 33
4734 4
4735 11
4736 81
4737 24
4738 58
4739 22
4740 57
4741 36
4742 24
4743 68
4744 73
4745 71
4746 68
4747 1
4748 70
4749 6
4750 36
4751 87
4752 30
4753 47
4754 32
4755 78
4756 25
4757 18
4758 37
4759 62
4760 61
4761 33
4762 31
4763 49
4764 27
4765 70
4766 75
4767 85
4768 59
4769 25
4770 85
4771 40
4772 57
4773 12
4774 18
4775 12
4776 41
4777 83
4778 48
4779 57
4780 40
4781 27
4782 28
4783 36
4784 84
4785 27
4786 94
4787 71
4788 97
4789 35
4790 16
4791 36
4792 85
4793 50
4794 97
4795 86
4796 50
4797 25
4798 12
4799 68
4800 4
4801 91
4802 67
4803 16
4804 85
4805 52
4806 53
4807 10
4808 79
4809 16
4810 6
4811 61
4812 84
4813 49
4814 74
4815 41
4816 52
4817 22
4818 71
4819 91
4820 58
4821 77
4822 65
4823 14
4824 13
4825 35
4826 39
4827 79
4828 94
4829 45
4830 66
4831 76
4832 35
4833 41
4834 42
4835 22
4836 13
4837 49
4838 46
4839 91
4840 37
4841 66
4842 46
4843 45
4844 45
4845 73
4846 18
4847 22
4848 34
4849 62
4850 9
4851 2
4852 22
4853 63
4854 95
4855 43
4856 25
4857 3
4858 4
4859 55
4860 69
4861 76
4862 60
4863 69
4864 41
4865 25
4866 50
4867 39
4868 59
4869 80
4870 85
4871 24
4872 61
4873 43
4874 46
4875 0
4876 37
4877 0
4878 44
4879 14
4880 78
4881 50
4882 27
4883 19
4884 12
4885 10
4886 1
4887 70
4888 78
4889 87
4890 12
4891 75
4892 39
4893 27
4894 29
4895 80
4896 62
4897 81
4898 53
4899 33
4900 93
4901 45
4902 18
4903 73
4904 83
4905 37
4906 45
4907 12
4908 8
4909 66
4910 30
4911 85
4912 9
4913 69
4914 92
4915 80
4916 3
4917 42
4918 45
4919 45
4920 46
4921 49
4922 37
4923 12
4924 31
4925 25
4926 14
4927 12
4928 61
4929 11
4930 84
4931 77
4932 25
4933 15
4934 57
4935 33
4936 24
4937 23
4938 47
4939 43
4940 4
4941 20
4942 71
4943 45
4944 13
4945 43
4946 4
4947 70
4948 24
4949 32
4950 29
4951 25
4952 71
4953 19
4954 9
4955 3
4956 14
4957 35
4958 79
4959 55
4960 3
4961 49
4962 5
4963 85
4964 68
4965 32
4966 65
4967 14
4968 4
4969 66
4970 58
4971 33
4972 94
4973 55
4974 54
4975 62
4976 11
4977 73
4978 0
4979 90
4980 9
4981 5
4982 85
4983 92
4984 44
4985 11
4986 66
4987 94
4988 41
4989 65
4990 88
4991 12
4992 91
4993 32
4994 35
4995 62
4996 9
4997 68
4998 39
4999 52
5000 90
5001 96
5002 39
5003 94
5004 81
5005 86
5006 44
5007 38
5008 96
5009 55
5010 85
5011 12
5012 64
5013 28
5014 15
5015 68
5016 80
5017 31
5018 27
5019 27
5020 23
5021 72
5022 73
5023 78
5024 63
5025 49
5026 12
5027 63
5028 64
5029 87
5030 75
5031 70
5032 74
5033 53
5034 23
5035 93
5036 22
5037 0
5038 32
5039 16
5040 73
5041 20
5042 55
5043 55
5044 56
5045 0
5046 57
5047 77
5048 45
5049 37
5050 40
5051 78
5052 16
5053 57
5054 2
5055 57
5056 77
5057 83
5058 35
5059 49
5060 45
5061 14
5062 55
5063 56
5064 44
5065 41
5066 82
5067 47
5068 75
5069 20
5070 37
5071 77
5072 38
5073 40
5074 81
5075 27
5076 97
5077 17
5078 70
5079 13
5080 12
5081 51
5082 36
5083 36
5084 92
5085 76
5086 58
5087 0
5088 28
5089 77
5090 19
5091 50
5092 14
5093 13
5094 27
5095 68
5096 76
5097 31
5098 66
5099 13
5100 91
5101 67
5102 43
5103 76
5104 45
5105 55
5106 19
5107 38
5108 28
5109 41
5110 88
5111 0
5112 30
5113 80
5114 67
5115 51
5116 4
5117 53
5118 72
5119 11
5120 89
5121 39
5122 67
5123 0
5124 41
5125 32
5126 6
5127 94
5128 5
5129 61
5130 27
5131 18
5132 36
5133 17
5134 73
5135 95
5136 55
5137 83
5138 7
5139 71
5140 81
5141 53
5142 22
5143 32
5144 97
5145 26
5146 95
5147 61
5148 88
5149 45
5150 91
5151 24
5152 23
5153 50
5154 14
5155 82
5156 16
5157 20
5158 63
5159 59
5160 70
5161 4
5162 95
5163 8
5164 86
5165 44
5166 32
5167 22
5168 26
5169 82
5170 50
5171 86
5172 26
5173 51
5174 71
5175 29
5176 37
5177 48
5178 63
5179 27
5180 34
5181 59
5182 47
5183 36
5184 26
5185 46
5186 87
5187 0
5188 61
5189 69
5190 60
5191 60
5192 44
5193 7
5194 70
5195 34
5196 25
5197 76
5198 27
5199 94
5200 21
5201 29
5202 41
5203 33
5204 94
5205 32
5206 33
5207 7
5208 58
5209 26
5210 45
5211 2
5212 11
5213 4
5214 81
5215 21
5216 59
5217 11
5218 27
5219 40
5220 33
5221 55
5222 94
5223 30
5224 27
5225 49
5226 23
5227 90
5228 35
5229 77
5230 21
5231 3
5232 18
5233 77
5234 6
5235 97
5236 5
5237 41
5238 24
5239 45
5240 11
5241 62
5242 40
5243 5
5244 93
5245 76
5246 93
5247 0
5248 6
5249 7
5250 81
5251 79
5252 40
5253 1
5254 38
5255 22
5256 94
5257 30
5258 94
5259 42
5260 86
5261 8
5262 81
5263 42
5264 25
5265 80
5266 19
5267 94
5268 85
5269 78
5270 94
5271 49
5272 54
5273 17
5274 19
5275 22
5276 12
5277 18
5278 33
5279 66
5280 45
5281 45
5282 54
5283 73
5284 8
5285 62
5286 55
5287 63
5288 93
5289 25
5290 63
5291 39
5292 57
5293 34
5294 85
5295 22
5296 58
5297 61
5298 26
5299 73
5300 5
5301 68
5302 39
5303 28
5304 66
5305 33
5306 56
5307 65
5308 30
5309 9
5310 61
5311 32
5312 31
5313 12
5314 91
5315 92
5316 25
5317 10
5318 47
5319 51
5320 52
5321 89
5322 56
5323 85
5324 22
5325 83
5326 45
5327 2
5328 83
5329 81
5330 12
5331 42
5332 40
5333 7
5334 66
5335 46
5336 27
5337 48
5338 97
5339 10
5340 82
5341 66
5342 60
5343 71
5344 73
5345 63
5346 54
5347 63
5348 37
5349 37
5350 69
5351 80
5352 0
5353 29
5354 74
5355 92
5356 95
5357 88
5358 53
5359 56
5360 89
5361 97
5362 60
5363 32
5364 45
5365 45
5366 81
5367 53
5368 11
5369 33
5370 69
5371 5
5372 94
5373 35
5374 4
5375 61
5376 38
5377 54
5378 47
5379 64
5380 53
5381 78
5382 37
5383 3
5384 21
5385 58
5386 55
5387 54
5388 24
5389 34
5390 30
5391 5
5392 53
5393 29
5394 87
5395 85
5396 12
5397 43
5398 75
5399 81
5400 62
5401 44
5402 55
5403 91
5404 41
5405 26
5406 33
5407 5
5408 23
5409 41
5410 59
5411 12
5412 91
5413 80
5414 12
5415 84
5416 17
5417 94
5418 34
5419 30
5420 63
5421 90
5422 60
5423 45
5424 20
5425 28
5426 80
5427 39
5428 29
5429 49
5430 83
5431 12
5432 31
5433 40
5434 89
5435 42
5436 29
5437 23
5438 8
5439 79
5440 70
5441 49
5442 12
5443 38
5444 28
5445 12
5446 41
5447 5
5448 53
5449 49
5450 70
5451 0
5452 23
5453 65
5454 11
5455 30
5456 53
5457 86
5458 70
5459 82
5460 82
5461 39
5462 32
5463 1
5464 63
5465 14
5466 73
5467 96
5468 67
5469 19
5470 38
5471 54
5472 12
5473 23
5474 12
5475 51
5476 97
5477 2
5478 78
5479 6
5480 84
5481 78
5482 4
5483 53
5484 8
5485 22
5486 51
5487 26
5488 10
5489 77
5490 41
5491 6
5492 33
5493 51
5494 44
5495 71
5496 74
5497 69
5498 69
5499 63
5500 68
5501 90
5502 60
5503 0
5504 75
5505 95
5506 71
5507 67
5508 69
5509 45
5510 44
5511 38
5512 17
5513 11
5514 69
5515 15
5516 42
5517 72
5518 53
5519 43
5520 85
5521 47
5522 56
5523 21
5524 43
5525 63
5526 91
5527 3
5528 27
5529 74
5530 63
5531 41
5532 2
5533 69
5534 87
5535 70
5536 21
5537 37
5538 12
5539 50
5540 38
5541 47
5542 84
5543 57
5544 32
5545 35
5546 18
5547 27
5548 81
5549 40
5550 27
5551 17
5552 87
5553 29
5554 5
5555 35
5556 11
5557 5
5558 49
5559 42
5560 1
5561 22
5562 29
5563 28
5564 12
5565 74
5566 67
5567 25
5568 71
5569 16
5570 57
5571 30
5572 14
5573 85
5574 76
5575 46
5576 89
5577 63
5578 17
5579 72
5580 24
5581 63
5582 27
5583 53
5584 35
5585 70
5586 78
5587 64
5588 65
5589 18
5590 53
5591 95
5592 89
5593 62
5594 22
5595 8
5596 83
5597 80
5598 16
5599 8
5600 38
5601 60
5602 77
5603 31
5604 62
5605 12
5606 2
5607 78
5608 7
5609 74
5610 67
5611 25
5612 96
5613 19
5614 42
5615 13
5616 42
5617 16
5618 78
5619 11
5620 76
5621 50
5622 12
5623 55
5624 37
5625 19
5626 45
5627 84
5628 27
5629 71
5630 77
5631 59
5632 76
5633 92
5634 39
5635 24
5636 49
5637 49
5638 83
5639 61
5640 16
5641 48
5642 77
5643 74
5644 12
5645 47
5646 96
5647 22
5648 71
5649 61
5650 89
5651 21
5652 71
5653 79
5654 44
5655 51
5656 27
5657 28
5658 40
5659 74
5660 57
5661 25
5662 68
5663 66
5664 23
5665 81
5666 86
5667 47
5668 87
5669 61
5670 28
5671 63
5672 31
5673 60
5674 79
5675 58
5676 12
5677 24
5678 23
5679 39
5680 25
5681 55
5682 88
5683 54
5684 62
5685 59
5686 58
5687 86
5688 27
5689 67
5690 30
5691 49
5692 85
5693 69
5694 41
5695 3
5696 72
5697 25
5698 72
5699 1
5700 30
5701 31
5702 17
5703 89
5704 53
5705 78
5706 21
5707 42
5708 33
5709 34
5710 29
5711 24
5712 26
5713 5
5714 91
5715 77
5716 36
5717 50
5718 32
5719 15
5720 53
5721 72
5722 62
5723 42
5724 59
5725 77
5726 33
5727 28
5728 54
5729 54
5730 20
5731 66
5732 38
5733 85
5734 46
5735 68
5736 24
5737 30
5738 35
5739 75
5740 12
5741 35
5742 77
5743 75
5744 87
5745 52
5746 90
5747 20
5748 70
5749 63
5750 37
5751 62
5752 40
5753 81
5754 23
5755 94
5756 69
5757 57
5758 52
5759 94
5760 35
5761 14
5762 3
5763 31
5764 32
5765 44
5766 32
5767 85
5768 67
5769 37
5770 33
5771 7
5772 16
5773 40
5774 85
5775 63
5776 3
5777 22
5778 81
5779 62
5780 95
5781 66
5782 76
5783 17
5784 46
5785 27
5786 77
5787 33
5788 86
5789 56
5790 69
5791 39
5792 49
5793 4
5794 77
5795 14
5796 24
5797 63
5798 60
5799 30
5800 18
5801 58
5802 41
5803 31
5804 26
5805 78
5806 87
5807 31
5808 13
5809 76
5810 29
5811 70
5812 16
5813 81
5814 58
5815 28
5816 53
5817 46
5818 60
5819 18
5820 68
5821 45
5822 30
5823 94
5824 96
5825 13
5826 7
5827 91
5828 60
5829 64
5830 45
5831 1
5832 57
5833 67
5834 84
5835 95
5836 81
5837 57
5838 76
5839 89
5840 50
5841 31
5842 34
5843 78
5844 63
5845 53
5846 17
5847 9
5848 17
5849 85
5850 49
5851 65
5852 33
5853 85
5854 35
5855 71
5856 82
5857 70
5858 61
5859 3
5860 71
5861 17
5862 60
5863 14
5864 71
5865 59
5866 84
5867 26
5868 62
5869 9
5870 26
5871 44
5872 29
5873 85
5874 81
5875 82
5876 85
5877 41
5878 73
5879 8
5880 13
5881 9
5882 46
5883 74
5884 43
5885 51
5886 44
5887 67
5888 30
5889 27
5890 63
5891 82
5892 11
5893 47
5894 95
5895 28
5896 4
5897 81
5898 49
5899 52
5900 17
5901 61
5902 77
5903 22
5904 30
5905 86
5906 17
5907 3
5908 86
5909 56
5910 80
5911 91
5912 5
5913 72
5914 9
5915 20
5916 77
5917 63
5918 92
5919 9
5920 26
5921 31
5922 23
5923 16
5924 56
5925 84
5926 0
5927 19
5928 11
5929 59
5930 93
5931 50
5932 12
5933 12
5934 3
5935 50
5936 24
5937 88
5938 83
5939 42
5940 67
5941 43
5942 1
5943 74
5944 53
5945 56
5946 84
5947 24
5948 71
5949 21
5950 60
5951 77
5952 34
5953 28
5954 59
5955 1
5956 12
5957 27
5958 51
5959 52
5960 58
5961 18
5962 14
5963 61
5964 47
5965 82
5966 65
5967 13
5968 85
5969 12
5970 60
5971 8
5972 32
5973 27
5974 97
5975 40
5976 38
5977 27
5978 84
5979 33
5980 92
5981 89
5982 21
5983 49
5984 38
5985 21
5986 32
5987 21
5988 26
5989 84
5990 63
5991 74
5992 28
5993 33
5994 84
5995 68
5996 5
5997 86
5998 52
5999 85
6000 4
6001 28
6002 87
6003 53
6004 3
6005 63
6006 32
6007 77
6008 45
6009 48
6010 74
6011 61
6012 74
6013 71
6014 14
6015 60
6016 94
6017 6
6018 35
6019 92
6020 21
6021 70
6022 80
6023 68
6024 53
6025 84
6026 21
6027 72
6028 28
6029 78
6030 48
6031 6
6032 63
6033 33
6034 42
6035 94
6036 12
6037 94
6038 32
6039 50
6040 37
6041 75
6042 21
6043 44
6044 53
6045 12
6046 97
6047 72
6048 74
6049 63
6050 69
6051 32
6052 69
6053 95
6054 51
6055 60
6056 53
6057 1
6058 3
6059 1
6060 30
6061 37
6062 68
6063 12
6064 58
6065 83
6066 45
6067 89
6068 66
6069 11
6070 84
6071 6
6072 63
6073 3
6074 52
6075 61
6076 34
6077 85
6078 56
6079 38
6080 61
6081 35
6082 66
6083 14
6084 9
6085 29
6086 47
6087 61
6088 63
6089 97
6090 16
6091 31
6092 13
6093 55
6094 24
6095 73
6096 53
6097 8
6098 33
6099 63
6100 70
6101 33
6102 77
6103 5
6104 21
6105 84
6106 14
6107 42
6108 11
6109 32
6110 65
6111 25
6112 77
6113 47
6114 35
6115 33
6116 4
6117 5
6118 41
6119 44
6120 49
6121 94
6122 81
6123 51
6124 87
6125 81
6126 78
6127 8
6128 40
6129 25
6130 68
6131 90
6132 53
6133 22
6134 36
6135 9
6136 47
6137 25
6138 49
6139 35
6140 95
6141 62
6142 84
6143 37
6144 30
6145 16
6146 94
6147 22
6148 32
6149 45
6150 77
6151 30
6152 34
6153 74
6154 40
6155 51
6156 87
6157 88
6158 62
6159 47
6160 69
6161 40
6162 95
6163 63
6164 24
6165 70
6166 11
6167 37
6168 44
6169 31
6170 85
6171 23
6172 75
6173 54
6174 47
6175 39
6176 25
6177 84
6178 10
6179 33
6180 19
6181 73
6182 49
6183 9
6184 30
6185 64
6186 13
6187 69
6188 77
6189 77
6190 16
6191 49
6192 56
6193 83
6194 19
6195 26
6196 16
6197 49
6198 63
6199 84
6200 12
6201 81
6202 45
6203 54
6204 40
6205 69
6206 55
6207 19
6208 58
6209 53
6210 96
6211 0
6212 79
6213 37
6214 18
6215 30
6216 92
6217 65
6218 34
6219 93
6220 8
6221 36
6222 3
6223 2
6224 27
6225 81
6226 35
6227 13
6228 33
6229 63
6230 5
6231 64
6232 40
6233 63
6234 5
6235 33
6236 29
6237 55
6238 91
6239 85
6240 4
6241 22
6242 8
6243 58
6244 84
6245 72
6246 12
6247 43
6248 13
6249 26
6250 10
6251 27
6252 50
6253 19
6254 19
6255 46
6256 62
6257 61
6258 45
6259 63
6260 52
6261 54
6262 70
6263 31
6264 79
6265 24
6266 11
6267 38
6268 16
6269 45
6270 54
6271 85
6272 90
6273 81
6274 10
6275 1
6276 44
6277 92
6278 76
6279 59
6280 72
6281 7
6282 42
6283 50
6284 38
6285 33
6286 71
6287 52
6288 41
6289 16
6290 65
6291 85
6292 37
6293 17
6294 32
6295 11
6296 62
6297 57
6298 32
6299 23
6300 94
6301 52
6302 35
6303 67
6304 42
6305 27
6306 30
6307 63
6308 68
6309 74
6310 76
6311 21
6312 22
6313 58
6314 82
6315 84
6316 63
6317 12
6318 61
6319 2
6320 15
6321 68
6322 44
6323 84
6324 28
6325 81
6326 17
6327 53
6328 81
6329 29
6330 23
6331 69
6332 81
6333 54
6334 2
6335 21
6336 66
6337 18
6338 71
6339 50
6340 74
6341 74
6342 40
6343 55
6344 19
6345 82
6346 26
6347 73
6348 3
6349 1
6350 4
6351 19
6352 50
6353 43
6354 80
6355 66
6356 13
6357 46
6358 59
6359 54
6360 74
6361 15
6362 82
6363 56
6364 13
6365 1
6366 62
6367 53
6368 40
6369 28
6370 45
6371 90
6372 89
6373 81
6374 1
6375 89
6376 95
6377 54
6378 23
6379 1
6380 23
6381 12
6382 45
6383 1
6384 43
6385 8
6386 30
6387 11
6388 82
6389 65
6390 31
6391 29
6392 77
6393 14
6394 84
6395 42
6396 22
6397 29
6398 66
6399 35
6400 49
6401 91
6402 37
6403 88
6404 84
6405 95
6406 16
6407 84
6408 33
6409 78
6410 67
6411 36
6412 89
6413 84
6414 40
6415 40
6416 26
6417 68
6418 7
6419 55
6420 27
6421 40
6422 69
6423 0
6424 68
6425 54
6426 72
6427 63
6428 12
6429 25
6430 59
6431 37
6432 93
6433 37
6434 17
6435 84
6436 40
6437 69
6438 12
6439 77
6440 29
6441 82
6442 25
6443 72
6444 21
6445 59
6446 48
6447 11
6448 9
6449 20
6450 74
6451 76
6452 96
6453 41
6454 38
6455 58
6456 53
6457 8
6458 45
6459 29
6460 30
6461 31
6462 88
6463 70
6464 46
6465 16
6466 50
6467 22
6468 97
6469 25
6470 15
6471 26
6472 77
6473 51
6474 82
6475 58
6476 3
6477 5
6478 86
6479 45
6480 89
6481 4
6482 40
6483 53
6484 69
6485 85
6486 43
6487 16
6488 95
6489 21
6490 87
6491 64
6492 29
6493 48
6494 30
6495 21
6496 44
6497 11
6498 34
6499 47
6500 41
6501 27
6502 59
6503 8
6504 38
6505 71
6506 55
6507 11
6508 53
6509 80
6510 66
6511 71
6512 42
6513 37
6514 36
6515 35
6516 38
6517 5
6518 95
6519 54
6520 80
6521 69
6522 81
6523 36
6524 34
6525 5
6526 97
6527 86
6528 71
6529 34
6530 3
6531 86
6532 25
6533 38
6534 58
6535 68
6536 14
6537 91
6538 23
6539 62
6540 81
6541 45
6542 55
6543 63
6544 47
6545 27
6546 90
6547 5
6548 50
6549 12
6550 60
6551 15
6552 27
6553 30
6554 69
6555 43
6556 17
6557 25
6558 33
6559 63
6560 55
6561 89
6562 80
6563 11
6564 75
6565 33
6566 5
6567 3
6568 1
6569 6
6570 12
6571 69
6572 37
6573 68
6574 62
6575 70
6576 16
6577 12
6578 47
6579 40
6580 62
6581 51
6582 62
6583 69
6584 84
6585 46
6586 15
6587 31
6588 0
6589 5
6590 14
6591 21
6592 50
6593 3
6594 30
6595 63
6596 9
6597 47
6598 52
6599 2
6600 24
6601 67
6602 25
6603 37
6604 50
6605 51
6606 11
6607 74
6608 4
6609 65
6610 4
6611 35
6612 9
6613 6
6614 88
6615 66
6616 35
6617 1
6618 67
6619 70
6620 31
6621 29
6622 58
6623 69
6624 97
6625 50
6626 92
6627 70
6628 24
6629 72
6630 53
6631 20
6632 35
6633 24
6634 23
6635 56
6636 25
6637 12
6638 14
6639 92
6640 88
6641 81
6642 9
6643 52
6644 56
6645 18
6646 23
6647 50
6648 29
6649 78
6650 49
6651 89
6652 8
6653 12
6654 90
6655 12
6656 74
6657 7
6658 41
6659 10
6660 39
6661 28
6662 77
6663 59
6664 31
6665 48
6666 8
6667 87
6668 78
6669 41
6670 32
6671 56
6672 82
6673 53
6674 17
6675 60
6676 85
6677 39
6678 49
6679 63
6680 42
6681 68
6682 31
6683 84
6684 59
6685 65
6686 25
6687 93
6688 68
6689 48
6690 34
6691 34
6692 5
6693 18
6694 79
6695 43
6696 14
6697 61
6698 42
6699 14
6700 15
6701 68
6702 38
6703 55
6704 7
6705 22
6706 25
6707 36
6708 2
6709 61
6710 44
6711 78
6712 21
6713 66
6714 97
6715 47
6716 81
6717 11
6718 27
6719 27
6720 88
6721 14
6722 44
6723 0
6724 34
6725 67
6726 46
6727 75
6728 62
6729 32
6730 34
6731 47
6732 55
6733 37
6734 6
6735 16
6736 59
6737 58
6738 22
6739 95
6740 84
6741 60
6742 44
6743 85
6744 7
6745 68
6746 13
6747 11
6748 43
6749 34
6750 52
6751 90
6752 35
6753 10
6754 49
6755 71
6756 27
6757 11
6758 21
6759 13
6760 93
6761 74
6762 27
6763 95
6764 88
6765 23
6766 78
6767 47
6768 45
6769 9
6770 48
6771 19
6772 27
6773 60
6774 94
6775 37
6776 80
6777 3
6778 4
6779 76
6780 41
6781 9
6782 30
6783 75
6784 78
6785 66
6786 59
6787 57
6788 87
6789 53
6790 67
6791 28
6792 94
6793 4
6794 59
6795 35
6796 34
6797 12
6798 11
6799 94
6800 35
6801 0
6802 45
6803 16
6804 59
6805 6
6806 89
6807 71
6808 2
6809 73
6810 32
6811 50
6812 22
6813 24
6814 76
6815 3
6816 43
6817 30
6818 91
6819 35
6820 54
6821 4
6822 35
6823 6
6824 12
6825 41
6826 39
6827 71
6828 41
6829 74
6830 97
6831 24
6832 47
6833 81
6834 44
6835 83
6836 50
6837 77
6838 25
6839 87
6840 39
6841 68
6842 16
6843 83
6844 33
6845 46
6846 67
6847 43
6848 97
6849 60
6850 72
6851 77
6852 78
6853 79
6854 3
6855 12
6856 71
6857 11
6858 61
6859 89
6860 46
6861 56
6862 59
6863 10
6864 55
6865 65
6866 89
6867 51
6868 76
6869 31
6870 71
6871 11
6872 34
6873 87
6874 33
6875 60
6876 16
6877 62
6878 43
6879 12
6880 4
6881 46
6882 70
6883 47
6884 34
6885 14
6886 2
6887 13
6888 21
6889 50
6890 64
6891 11
6892 35
6893 76
6894 53
6895 6
6896 19
6897 78
6898 62
6899 4
6900 82
6901 40
6902 76
6903 33
6904 4
6905 34
6906 49
6907 81
6908 44
6909 81
6910 63
6911 30
6912 33
6913 48
6914 12
6915 27
6916 30
6917 51
6918 21
6919 38
6920 34
6921 60
6922 35
6923 34
6924 5
6925 43
6926 21
6927 7
6928 22
6929 77
6930 75
6931 63
6932 73
6933 16
6934 68
6935 55
6936 95
6937 28
6938 51
6939 3
6940 77
6941 12
6942 0
6943 3
6944 87
6945 3
6946 68
6947 34
6948 73
6949 8
6950 30
6951 52
6952 59
6953 27
6954 46
6955 19
6956 97
6957 86
6958 57
6959 28
6960 41
6961 64
6962 30
6963 70
6964 77
6965 60
6966 89
6967 62
6968 82
6969 36
6970 27
6971 59
6972 49
6973 96
6974 89
6975 73
6976 24
6977 22
6978 34
6979 49
6980 57
6981 27
6982 43
6983 11
6984 74
6985 90
6986 10
6987 62
6988 40
6989 74
6990 71
6991 59
6992 47
6993 55
6994 21
6995 89
6996 47
6997 8
6998 39
6999 94
7000 31
7001 8
7002 29
7003 38
7004 68
7005 91
7006 15
7007 72
7008 68
7009 59
7010 1
7011 41
7012 33
7013 96
7014 38
7015 35
7016 17
7017 45
7018 13
7019 21
7020 40
7021 58
7022 61
7023 81
7024 29
7025 52
7026 55
7027 59
7028 43
7029 46
7030 38
7031 82
7032 46
7033 46
7034 35
7035 3
7036 39
7037 44
7038 37
7039 69
7040 33
7041 68
7042 86
7043 49
7044 78
7045 49
7046 95
7047 25
7048 32
7049 44
7050 78
7051 66
7052 73
7053 11
7054 78
7055 40
7056 2
7057 66
7058 64
7059 3
7060 91
7061 49
7062 16
7063 28
7064 47
7065 13
7066 46
7067 89
7068 23
7069 22
7070 92
7071 93
7072 32
7073 22
7074 61
7075 15
7076 18
7077 45
7078 12
7079 66
7080 23
7081 78
7082 52
7083 50
7084 83
7085 80
7086 84
7087 34
7088 27
7089 23
7090 50
7091 58
7092 82
7093 14
7094 62
7095 13
7096 77
7097 82
7098 28
7099 24
7100 83
7101 11
7102 37
7103 59
7104 85
7105 34
7106 52
7107 71
7108 22
7109 36
7110 46
7111 82
7112 46
7113 76
7114 74
7115 30
7116 93
7117 21
7118 27
7119 9
7120 3
7121 54
7122 84
7123 54
7124 63
7125 28
7126 73
7127 70
7128 21
7129 39
7130 69
7131 3
7132 32
7133 14
7134 97
7135 53
7136 17
7137 55
7138 94
7139 90
7140 12
7141 71
7142 54
7143 12
7144 49
7145 70
7146 44
7147 27
7148 55
7149 14
7150 58
7151 32
7152 22
7153 84
7154 2
7155 5
7156 12
7157 63
7158 94
7159 14
7160 21
7161 16
7162 56
7163 25
7164 36
7165 9
7166 95
7167 43
7168 40
7169 72
7170 61
7171 84
7172 9
7173 6
7174 49
7175 85
7176 58
7177 97
7178 13
7179 58
7180 30
7181 12
7182 33
7183 87
7184 55
7185 37
7186 90
7187 58
7188 3
7189 89
7190 47
7191 74
7192 31
7193 82
7194 34
7195 34
7196 37
7197 44
7198 20
7199 85
7200 65
7201 81
7202 9
7203 78
7204 34
7205 64
7206 21
7207 65
7208 39
7209 80
7210 56
7211 58
7212 59
7213 88
7214 85
7215 67
7216 48
7217 61
7218 70
7219 46
7220 37
7221 72
7222 34
7223 11
7224 57
7225 37
7226 9
7227 11
7228 3
7229 83
7230 28
7231 43
7232 63
7233 82
7234 33
7235 67
7236 33
7237 26
7238 40
7239 30
7240 1
7241 38
7242 50
7243 94
7244 46
7245 39
7246 33
7247 55
7248 84
7249 34
7250 59
7251 16
7252 42
7253 12
7254 41
7255 42
7256 28
7257 53
7258 87
7259 11
7260 19
7261 2
7262 41
7263 12
7264 63
7265 29
7266 67
7267 35
7268 7
7269 11
7270 32
7271 35
7272 71
7273 14
7274 32
7275 53
7276 56
7277 41
7278 96
7279 94
7280 40
7281 0
7282 1
7283 50
7284 37
7285 58
7286 53
7287 77
7288 23
7289 30
7290 21
7291 16
7292 56
7293 18
7294 0
7295 39
7296 44
7297 44
7298 45
7299 41
7300 14
7301 43
7302 5
7303 42
7304 40
7305 51
7306 54
7307 16
7308 77
7309 64
7310 80
7311 49
7312 51
7313 34
7314 36
7315 94
7316 74
7317 62
7318 49
7319 12
7320 19
7321 68
7322 8
7323 87
7324 54
7325 35
7326 36
7327 49
7328 54
7329 82
7330 9
7331 81
7332 81
7333 31
7334 43
7335 21
7336 30
7337 8
7338 13
7339 87
7340 27
7341 21
7342 2
7343 13
7344 35
7345 51
7346 85
7347 78
7348 60
7349 66
7350 47
7351 70
7352 22
7353 40
7354 41
7355 71
7356 39
7357 56
7358 63
7359 75
7360 59
7361 35
7362 22
7363 44
7364 53
7365 0
7366 28
7367 87
7368 41
7369 40
7370 1
7371 88
7372 19
7373 7
7374 3
7375 70
7376 72
7377 71
7378 77
7379 93
7380 19
7381 28
7382 21
7383 96
7384 90
7385 70
7386 32
7387 91
7388 57
7389 94
7390 21
7391 80
7392 9
7393 68
7394 56
7395 11
7396 35
7397 88
7398 9
7399 60
7400 27
7401 2
7402 11
7403 45
7404 10
7405 34
7406 17
7407 54
7408 84
7409 65
7410 62
7411 49
7412 89
7413 78
7414 34
7415 39
7416 60
7417 93
7418 70
7419 46
7420 48
7421 22
7422 44
7423 41
7424 7
7425 50
7426 66
7427 82
7428 67
7429 13
7430 58
7431 34
7432 65
7433 65
7434 75
7435 51
7436 7
7437 55
7438 28
7439 33
7440 25
7441 12
7442 76
7443 65
7444 96
7445 84
7446 2
7447 66
7448 5
7449 55
7450 59
7451 82
7452 59
7453 71
7454 40
7455 9
7456 16
7457 32
7458 69
7459 20
7460 27
7461 17
7462 63
7463 8
7464 37
7465 81
7466 70
7467 27
7468 94
7469 70
7470 44
7471 31
7472 19
7473 32
7474 46
7475 50
7476 25
7477 95
7478 54
7479 23
7480 26
7481 27
7482 12
7483 3
7484 58
7485 43
7486 50
7487 82
7488 93
7489 44
7490 14
7491 12
7492 40
7493 84
7494 94
7495 45
7496 6
7497 5
7498 3
7499 15
7500 46
7501 50
7502 60
7503 37
7504 72
7505 27
7506 46
7507 28
7508 57
7509 11
7510 0
7511 60
7512 5
7513 67
7514 51
7515 45
7516 52
7517 38
7518 1
7519 84
7520 55
7521 45
7522 68
7523 58
7524 12
7525 16
7526 40
7527 45
7528 94
7529 32
7530 74
7531 57
7532 27
7533 90
7534 53
7535 80
7536 40
7537 56
7538 97
7539 82
7540 18
7541 76
7542 53
7543 63
7544 8
7545 87
7546 22
7547 44
7548 27
7549 70
7550 28
7551 45
7552 80
7553 12
7554 46
7555 56
7556 2
7557 38
7558 53
7559 73
7560 92
7561 32
7562 43
7563 25
7564 50
7565 27
7566 37
7567 9
7568 97
7569 60
7570 60
7571 87
7572 64
7573 29
7574 10
7575 34
7576 50
7577 16
7578 69
7579 83
7580 32
7581 68
7582 34
7583 95
7584 19
7585 14
7586 91
7587 22
7588 43
7589 75
7590 94
7591 33
7592 29
7593 51
7594 25
7595 47
7596 50
7597 35
7598 92
7599 12
7600 32
7601 8
7602 91
7603 86
7604 72
7605 12
7606 20
7607 63
7608 65
7609 80
7610 66
7611 68
7612 38
7613 22
7614 3
7615 32
7616 80
7617 72
7618 61
7619 85
7620 5
7621 20
7622 81
7623 9
7624 10
7625 1
7626 12
7627 64
7628 34
7629 20
7630 65
7631 93
7632 27
7633 70
7634 33
7635 85
7636 53
7637 93
7638 32
7639 14
7640 47
7641 87
7642 5
7643 55
7644 59
7645 14
7646 5
7647 50
7648 50
7649 67
7650 50
7651 77
7652 77
7653 49
7654 71
7655 85
7656 67
7657 49
7658 81
7659 12
7660 66
7661 73
7662 68
7663 35
7664 27
7665 1
7666 10
7667 29
7668 25
7669 28
7670 3
7671 62
7672 25
7673 6
7674 0
7675 50
7676 69
7677 78
7678 81
7679 80
7680 29
7681 3
7682 65
7683 30
7684 64
7685 91
7686 73
7687 74
7688 12
7689 68
7690 4
7691 3
7692 7
7693 78
7694 86
7695 47
7696 30
7697 65
7698 88
7699 65
7700 14
7701 32
7702 46
7703 36
7704 4
7705 37
7706 34
7707 40
7708 73
7709 63
7710 91
7711 95
7712 47
7713 17
7714 3
7715 68
7716 15
7717 10
7718 24
7719 46
7720 75
7721 49
7722 51
7723 12
7724 88
7725 14
7726 24
7727 59
7728 79
7729 90
7730 25
7731 46
7732 32
7733 63
7734 69
7735 13
7736 53
7737 21
7738 63
7739 40
7740 48
7741 55
7742 74
7743 36
7744 26
7745 23
7746 86
7747 6
7748 46
7749 25
7750 13
7751 91
7752 83
7753 54
7754 2
7755 32
7756 20
7757 21
7758 70
7759 23
7760 5
7761 90
7762 67
7763 50
7764 47
7765 19
7766 1
7767 20
7768 23
7769 25
7770 65
7771 1
7772 55
7773 15
7774 79
7775 84
7776 36
7777 91
7778 37
7779 21
7780 84
7781 73
7782 93
7783 63
7784 91
7785 32
7786 12
7787 29
7788 76
7789 46
7790 55
7791 53
7792 73
7793 75
7794 61
7795 21
7796 32
7797 85
7798 42
7799 59
7800 12
7801 4
7802 40
7803 56
7804 37
7805 40
7806 75
7807 18
7808 18
7809 47
7810 24
7811 15
7812 30
7813 78
7814 13
7815 82
7816 62
7817 37
7818 40
7819 45
7820 12
7821 30
7822 2
7823 24
7824 21
7825 40
7826 78
7827 71
7828 53
7829 5
7830 40
7831 13
7832 36
7833 75
7834 63
7835 34
7836 49
7837 6
7838 69
7839 67
7840 72
7841 71
7842 67
7843 28
7844 90
7845 14
7846 59
7847 22
7848 23
7849 57
7850 97
7851 47
7852 49
7853 78
7854 40
7855 85
7856 46
7857 1
7858 52
7859 35
7860 3
7861 41
7862 5
7863 45
7864 73
7865 88
7866 50
7867 26
7868 39
7869 70
7870 71
7871 41
7872 85
7873 63
7874 67
7875 8
7876 48
7877 80
7878 75
7879 10
7880 60
7881 28
7882 34
7883 16
7884 94
7885 29
7886 37
7887 14
7888 45
7889 96
7890 77
7891 32
7892 34
7893 84
7894 16
7895 80
7896 25
7897 5
7898 18
7899 42
7900 68
7901 41
7902 79
7903 61
7904 19
7905 82
7906 68
7907 53
7908 46
7909 24
7910 15
7911 89
7912 4
7913 51
7914 49
7915 12
7916 92
7917 78
7918 27
7919 71
7920 27
7921 54
7922 9
7923 61
7924 63
7925 35
7926 34
7927 2
7928 61
7929 80
7930 88
7931 40
7932 27
7933 81
7934 77
7935 8
7936 70
7937 18
7938 13
7939 67
7940 25
7941 84
7942 58
7943 35
7944 61
7945 54
7946 69
7947 26
7948 38
7949 88
7950 27
7951 41
7952 41
7953 55
7954 4
7955 88
7956 87
7957 40
7958 53
7959 5
7960 74
7961 22
7962 60
7963 72
7964 81
7965 65
7966 66
7967 23
7968 46
7969 40
7970 27
7971 10
7972 78
7973 72
7974 69
7975 96
7976 50
7977 3
7978 57
7979 35
7980 94
7981 4
7982 77
7983 70
7984 60
7985 12
7986 71
7987 28
7988 67
7989 14
7990 73
7991 25
7992 90
7993 21
7994 26
7995 24
7996 40
7997 10
7998 81
7999 34
8000 84
8001 80
8002 84
8003 59
8004 5
8005 48
8006 39
8007 40
8008 88
8009 22
8010 29
8011 34
8012 57
8013 27
8014 19
8015 36
8016 51
8017 82
8018 70
8019 17
8020 47
8021 15
8022 71
8023 80
8024 92
8025 26
8026 14
8027 66
8028 78
8029 19
8030 16
8031 80
8032 22
8033 16
8034 21
8035 66
8036 70
8037 11
8038 89
8039 66
8040 39
8041 51
8042 26
8043 39
8044 86
8045 23
8046 80
8047 31
8048 8
8049 62
8050 42
8051 85
8052 35
8053 66
8054 81
8055 45
8056 91
8057 7
8058 87
8059 16
8060 40
8061 50
8062 77
8063 31
8064 18
8065 63
8066 1
8067 49
8068 82
8069 70
8070 47
8071 41
8072 34
8073 56
8074 23
8075 34
8076 30
8077 63
8078 25
8079 40
8080 20
8081 12
8082 51
8083 3
8084 50
8085 31
8086 23
8087 63
8088 16
8089 79
8090 60
8091 15
8092 12
8093 18
8094 59
8095 27
8096 17
8097 85
8098 7
8099 77
8100 33
8101 53
8102 53
8103 11
8104 53
8105 88
8106 60
8107 34
8108 59
8109 5
8110 75
8111 27
8112 88
8113 56
8114 71
8115 44
8116 20
8117 11
8118 89
8119 87
8120 17
8121 5
8122 94
8123 81
8124 90
8125 84
8126 46
8127 45
8128 81
8129 29
8130 14
8131 37
8132 50
8133 69
8134 45
8135 38
8136 67
8137 77
8138 22
8139 40
8140 33
8141 49
8142 75
8143 59
8144 53
8145 74
8146 20
8147 88
8148 22
8149 35
8150 12
8151 2
8152 46
8153 33
8154 70
8155 4
8156 33
8157 76
8158 82
8159 78
8160 24
8161 53
8162 28
8163 9
8164 77
8165 57
8166 84
8167 49
8168 47
8169 36
8170 41
8171 10
8172 22
8173 84
8174 18
8175 65
8176 73
8177 63
8178 88
8179 51
8180 15
8181 63
8182 33
8183 33
8184 79
8185 85
8186 90
8187 89
8188 0
8189 34
8190 27
8191 26
8192 24
8193 82
8194 72
8195 77
8196 0
8197 53
8198 34
8199 37
8200 83
8201 12
8202 34
8203 39
8204 85
8205 51
8206 79
8207 49
8208 20
8209 92
8210 95
8211 74
8212 81
8213 4
8214 95
8215 2
8216 78
8217 68
8218 56
8219 65
8220 87
8221 73
8222 8
8223 28
8224 50
8225 86
8226 57
8227 72
8228 8
8229 64
8230 95
8231 89
8232 76
8233 47
8234 5
8235 22
8236 0
8237 37
8238 53
8239 30
8240 23
8241 86
8242 52
8243 76
8244 40
8245 95
8246 75
8247 46
8248 50
8249 8
8250 13
8251 0
8252 20
8253 45
8254 11
8255 53
8256 38
8257 30
8258 67
8259 15
8260 17
8261 55
8262 51
8263 87
8264 33
8265 40
8266 50
8267 63
8268 34
8269 38
8270 42
8271 60
8272 46
8273 40
8274 5
8275 95
8276 35
8277 73
8278 72
8279 17
8280 39
8281 29
8282 64
8283 7
8284 67
8285 23
8286 90
8287 32
8288 9
8289 32
8290 2
8291 62
8292 58
8293 27
8294 3
8295 11
8296 24
8297 11
8298 49
8299 61
8300 76
8301 96
8302 75
8303 78
8304 2
8305 80
8306 85
8307 3
8308 29
8309 17
8310 73
8311 51
8312 4
8313 54
8314 81
8315 77
8316 63
8317 26
8318 50
8319 46
8320 0
8321 32
8322 84
8323 75
8324 97
8325 46
8326 40
8327 94
8328 31
8329 9
8330 60
8331 11
8332 90
8333 20
8334 34
8335 64
8336 29
8337 70
8338 13
8339 59
8340 51
8341 33
8342 23
8343 19
8344 30
8345 25
8346 33
8347 69
8348 32
8349 73
8350 51
8351 53
8352 32
8353 12
8354 61
8355 41
8356 51
8357 30
8358 92
8359 38
8360 16
8361 49
8362 23
8363 12
8364 68
8365 82
8366 26
8367 17
8368 79
8369 92
8370 49
8371 55
8372 78
8373 32
8374 52
8375 96
8376 31
8377 63
8378 44
8379 17
8380 30
8381 47
8382 68
8383 46
8384 75
8385 94
8386 14
8387 69
8388 33
8389 70
8390 97
8391 30
8392 73
8393 21
8394 90
8395 27
8396 9
8397 59
8398 38
8399 90
8400 51
8401 3
8402 23
8403 90
8404 32
8405 16
8406 65
8407 64
8408 53
8409 86
8410 12
8411 63
8412 70
8413 21
8414 28
8415 69
8416 40
8417 88
8418 73
8419 55
8420 17
8421 78
8422 1
8423 22
8424 23
8425 63
8426 61
8427 79
8428 54
8429 27
8430 15
8431 52
8432 84
8433 76
8434 89
8435 19
8436 18
8437 49
8438 65
8439 49
8440 33
8441 26
8442 11
8443 2
8444 50
8445 56
8446 79
8447 21
8448 14
8449 28
8450 53
8451 37
8452 46
8453 34
8454 61
8455 91
8456 2
8457 47
8458 13
8459 69
8460 21
8461 36
8462 49
8463 85
8464 84
8465 29
8466 27
8467 50
8468 22
8469 50
8470 40
8471 45
8472 77
8473 83
8474 4
8475 82
8476 35
8477 26
8478 32
8479 11
8480 49
8481 64
8482 13
8483 6
8484 31
8485 4
8486 81
8487 59
8488 33
8489 54
8490 12
8491 25
8492 37
8493 83
8494 51
8495 6
8496 81
8497 21
8498 10
8499 0
8500 18
8501 44
8502 11
8503 55
8504 40
8505 61
8506 46
8507 57
8508 19
8509 81
8510 72
8511 64
8512 43
8513 41
8514 55
8515 53
8516 54
8517 35
8518 69
8519 29
8520 25
8521 97
8522 67
8523 22
8524 74
8525 65
8526 45
8527 48
8528 26
8529 49
8530 16
8531 70
8532 1
8533 61
8534 66
8535 84
8536 23
8537 81
8538 82
8539 25
8540 19
8541 62
8542 27
8543 33
8544 41
8545 97
8546 1
8547 24
8548 25
8549 85
8550 29
8551 24
8552 41
8553 34
8554 35
8555 76
8556 11
8557 13
8558 77
8559 31
8560 55
8561 96
8562 89
8563 35
8564 28
8565 1
8566 11
8567 21
8568 9
8569 81
8570 42
8571 34
8572 13
8573 63
8574 18
8575 45
8576 54
8577 55
8578 86
8579 84
8580 53
8581 47
8582 77
8583 16
8584 5
8585 19
8586 70
8587 51
8588 36
8589 4
8590 57
8591 41
8592 89
8593 68
8594 29
8595 5
8596 50
8597 49
8598 63
8599 84
8600 60
8601 25
8602 8
8603 91
8604 82
8605 23
8606 34
8607 50
8608 22
8609 35
8610 71
8611 50
8612 53
8613 75
8614 38
8615 83
8616 75
8617 88
8618 26
8619 92
8620 76
8621 33
8622 0
8623 55
8624 16
8625 85
8626 25
8627 37
8628 82
8629 69
8630 65
8631 34
8632 15
8633 54
8634 25
8635 18
8636 8
8637 73
8638 34
8639 62
8640 21
8641 12
8642 41
8643 51
8644 6
8645 72
8646 25
8647 53
8648 11
8649 59
8650 12
8651 31
8652 88
8653 71
8654 38
8655 34
8656 29
8657 55
8658 5
8659 44
8660 9
8661 76
8662 26
8663 97
8664 81
8665 49
8666 59
8667 75
8668 37
8669 41
8670 65
8671 27
8672 60
8673 10
8674 55
8675 63
8676 1
8677 69
8678 17
8679 55
8680 12
8681 59
8682 93
8683 22
8684 66
8685 23
8686 76
8687 78
8688 36
8689 34
8690 95
8691 55
8692 92
8693 64
8694 33
8695 20
8696 89
8697 57
8698 85
8699 36
8700 5
8701 28
8702 40
8703 64
8704 68
8705 63
8706 69
8707 33
8708 77
8709 36
8710 27
8711 25
8712 87
8713 50
8714 46
8715 5
8716 31
8717 41
8718 6
8719 9
8720 37
8721 43
8722 39
8723 42
8724 70
8725 27
8726 47
8727 92
8728 40
8729 88
8730 74
8731 41
8732 70
8733 5
8734 49
8735 69
8736 40
8737 30
8738 61
8739 35
8740 49
8741 81
8742 73
8743 41
8744 41
8745 53
8746 7
8747 82
8748 44
8749 96
8750 65
8751 55
8752 12
8753 21
8754 73
8755 70
8756 64
8757 49
8758 47
8759 93
8760 1
8761 92
8762 36
8763 84
8764 54
8765 78
8766 61
8767 66
8768 33
8769 6
8770 15
8771 78
8772 74
8773 50
8774 70
8775 61
8776 35
8777 24
8778 55
8779 7
8780 86
8781 41
8782 41
8783 36
8784 0
8785 66
8786 53
8787 89
8788 3
8789 61
8790 70
8791 85
8792 73
8793 34
8794 60
8795 52
8796 95
8797 12
8798 96
8799 5
8800 49
8801 69
8802 88
8803 49
8804 36
8805 3
8806 60
8807 37
8808 32
8809 68
8810 88
8811 76
8812 59
8813 89
8814 74
8815 96
8816 72
8817 11
8818 45
8819 28
8820 61
8821 49
8822 41
8823 76
8824 52
8825 40
8826 47
8827 11
8828 26
8829 78
8830 3
8831 9
8832 9
8833 75
8834 6
8835 84
8836 21
8837 47
8838 33
8839 9
8840 17
8841 34
8842 55
8843 33
8844 37
8845 52
8846 16
8847 0
8848 61
8849 78
8850 0
8851 4
8852 58
8853 83
8854 50
8855 0
8856 9
8857 79
8858 45
8859 85
8860 77
8861 78
8862 85
8863 83
8864 43
8865 63
8866 27
8867 53
8868 78
8869 12
8870 37
8871 86
8872 5
8873 28
8874 40
8875 13
8876 91
8877 28
8878 67
8879 15
8880 41
8881 48
8882 73
8883 93
8884 91
8885 90
8886 3
8887 8
8888 34
8889 4
8890 45
8891 9
8892 50
8893 31
8894 13
8895 70
8896 12
8897 71
8898 58
8899 20
8900 34
8901 11
8902 47
8903 83
8904 60
8905 61
8906 81
8907 27
8908 51
8909 37
8910 40
8911 62
8912 49
8913 27
8914 41
8915 40
8916 83
8917 6
8918 73
8919 83
8920 81
8921 50
8922 89
8923 38
8924 55
8925 75
8926 81
8927 63
8928 92
8929 29
8930 49
8931 30
8932 76
8933 16
8934 25
8935 0
8936 89
8937 84
8938 25
8939 84
8940 19
8941 76
8942 31
8943 69
8944 6
8945 47
8946 83
8947 21
8948 73
8949 92
8950 55
8951 5
8952 43
8953 32
8954 7
8955 47
8956 12
8957 62
8958 5
8959 30
8960 34
8961 25
8962 38
8963 52
8964 40
8965 33
8966 28
8967 86
8968 67
8969 35
8970 84
8971 5
8972 74
8973 48
8974 9
8975 47
8976 49
8977 38
8978 37
8979 53
8980 91
8981 5
8982 67
8983 72
8984 49
8985 30
8986 17
8987 53
8988 3
8989 82
8990 43
8991 57
8992 37
8993 97
8994 29
8995 5
8996 75
8997 26
8998 56
8999 25
9000 1
9001 20
9002 20
9003 64
9004 85
9005 57
9006 40
9007 60
9008 77
9009 93
9010 21
9011 64
9012 27
9013 55
9014 76
9015 94
9016 40
9017 27
9018 34
9019 6
9020 75
9021 35
9022 73
9023 77
9024 8
9025 80
9026 44
9027 37
9028 4
9029 5
9030 21
9031 5
9032 85
9033 45
9034 67
9035 11
9036 55
9037 9
9038 3
9039 0
9040 74
9041 72
9042 19
9043 95
9044 28
9045 80
9046 67
9047 3
9048 24
9049 80
9050 47
9051 9
9052 32
9053 90
9054 58
9055 55
9056 97
9057 39
9058 33
9059 9
9060 52
9061 85
9062 14
9063 40
9064 89
9065 55
9066 69
9067 66
9068 29
9069 14
9070 52
9071 2
9072 52
9073 40
9074 68
9075 68
9076 75
9077 82
9078 63
9079 48
9080 5
9081 28
9082 62
9083 63
9084 30
9085 17
9086 27
9087 63
9088 3
9089 75
9090 45
9091 58
9092 58
9093 35
9094 51
9095 34
9096 73
9097 2
9098 33
9099 39
9100 81
9101 68
9102 47
9103 12
9104 6
9105 23
9106 9
9107 49
9108 63
9109 92
9110 61
9111 46
9112 36
9113 57
9114 35
9115 33
9116 41
9117 41
9118 75
9119 47
9120 27
9121 80
9122 86
9123 90
9124 94
9125 78
9126 12
9127 39
9128 85
9129 49
9130 61
9131 25
9132 48
9133 66
9134 21
9135 84
9136 55
9137 95
9138 21
9139 19
9140 66
9141 81
9142 81
9143 95
9144 8
9145 64
9146 23
9147 58
9148 3
9149 84
9150 10
9151 30
9152 9
9153 38
9154 69
9155 45
9156 34
9157 83
9158 15
9159 25
9160 11
9161 51
9162 67
9163 52
9164 73
9165 33
9166 75
9167 19
9168 41
9169 23
9170 80
9171 34
9172 40
9173 22
9174 12
9175 61
9176 4
9177 84
9178 8
9179 63
9180 86
9181 65
9182 23
9183 92
9184 5
9185 13
9186 81
9187 69
9188 25
9189 58
9190 25
9191 82
9192 66
9193 18
9194 6
9195 71
9196 75
9197 88
9198 27
9199 74
9200 23
9201 81
9202 44
9203 70
9204 21
9205 86
9206 90
9207 16
9208 44
9209 46
9210 76
9211 16
9212 91
9213 0
9214 35
9215 25
9216 63
9217 36
9218 76
9219 33
9220 28
9221 85
9222 58
9223 87
9224 73
9225 24
9226 0
9227 15
9228 73
9229 69
9230 52
9231 8
9232 47
9233 93
9234 50
9235 68
9236 28
9237 66
9238 86
9239 42
9240 11
9241 94
9242 28
9243 48
9244 35
9245 63
9246 25
9247 20
9248 40
9249 11
9250 39
9251 79
9252 25
9253 65
9254 23
9255 68
9256 92
9257 70
9258 37
9259 29
9260 57
9261 70
9262 3
9263 54
9264 16
9265 52
9266 31
9267 74
9268 21
9269 5
9270 21
9271 95
9272 50
9273 39
9274 41
9275 45
9276 29
9277 71
9278 49
9279 84
9280 79
9281 46
9282 1
9283 69
9284 66
9285 79
9286 41
9287 47
9288 43
9289 62
9290 24
9291 9
9292 76
9293 94
9294 11
9295 9
9296 11
9297 59
9298 29
9299 35
9300 35
9301 14
9302 18
9303 7
9304 31
9305 13
9306 50
9307 19
9308 91
9309 59
9310 71
9311 27
9312 47
9313 10
9314 71
9315 15
9316 85
9317 61
9318 82
9319 33
9320 0
9321 23
9322 47
9323 75
9324 14
9325 87
9326 39
9327 96
9328 53
9329 33
9330 75
9331 9
9332 44
9333 94
9334 6
9335 44
9336 76
9337 43
9338 2
9339 12
9340 0
9341 81
9342 66
9343 21
9344 37
9345 92
9346 32
9347 18
9348 32
9349 13
9350 27
9351 55
9352 13
9353 43
9354 18
9355 30
9356 23
9357 15
9358 26
9359 71
9360 2
9361 15
9362 87
9363 66
9364 81
9365 68
9366 7
9367 73
9368 87
9369 37
9370 44
9371 44
9372 11
9373 45
9374 50
9375 37
9376 40
9377 19
9378 50
9379 86
9380 16
9381 58
9382 58
9383 19
9384 13
9385 46
9386 8
9387 12
9388 30
9389 47
9390 50
9391 27
9392 21
9393 90
9394 41
9395 91
9396 78
9397 89
9398 24
9399 6
9400 39
9401 23
9402 12
9403 85
9404 27
9405 81
9406 55
9407 71
9408 67
9409 96
9410 71
9411 26
9412 75
9413 40
9414 4
9415 93
9416 58
9417 12
9418 42
9419 68
9420 55
9421 91
9422 33
9423 97
9424 26
9425 97
9426 53
9427 28
9428 74
9429 77
9430 5
9431 40
9432 37
9433 7
9434 91
9435 56
9436 71
9437 45
9438 52
9439 25
9440 25
9441 8
9442 55
9443 15
9444 81
9445 52
9446 73
9447 93
9448 10
9449 47
9450 22
9451 83
9452 83
9453 87
9454 51
9455 94
9456 65
9457 11
9458 76
9459 60
9460 66
9461 41
9462 4
9463 5
9464 25
9465 35
9466 14
9467 23
9468 76
9469 5
9470 76
9471 28
9472 68
9473 68
9474 12
9475 47
9476 1
9477 4
9478 53
9479 87
9480 49
9481 97
9482 43
9483 27
9484 12
9485 21
9486 72
9487 89
9488 30
9489 56
9490 69
9491 16
9492 37
9493 57
9494 45
9495 8
9496 84
9497 19
9498 0
9499 22
9500 62
9501 32
9502 53
9503 37
9504 67
9505 26
9506 41
9507 7
9508 90
9509 30
9510 63
9511 34
9512 46
9513 1
9514 55
9515 45
9516 49
9517 41
9518 5
9519 40
9520 81
9521 50
9522 50
9523 3
9524 68
9525 56
9526 67
9527 24
9528 76
9529 55
9530 12
9531 66
9532 80
9533 61
9534 51
9535 2
9536 45
9537 59
9538 8
9539 32
9540 33
9541 53
9542 29
9543 96
9544 56
9545 12
9546 34
9547 31
9548 13
9549 14
9550 46
9551 2
9552 66
9553 59
9554 51
9555 46
9556 89
9557 55
9558 9
9559 12
9560 94
9561 11
9562 20
9563 67
9564 95
9565 41
9566 12
9567 75
9568 14
9569 25
9570 44
9571 48
9572 45
9573 62
9574 75
9575 67
9576 36
9577 97
9578 88
9579 39
9580 45
9581 81
9582 89
9583 20
9584 13
9585 41
9586 51
9587 3
9588 12
9589 55
9590 20
9591 37
9592 37
9593 58
9594 39
9595 29
9596 26
9597 33
9598 71
9599 53
9600 76
9601 87
9602 35
9603 40
9604 9
9605 47
9606 87
9607 8
9608 25
9609 11
9610 97
9611 33
9612 68
9613 87
9614 88
9615 50
9616 95
9617 78
9618 53
9619 26
9620 55
9621 58
9622 72
9623 71
9624 70
9625 68
9626 70
9627 71
9628 28
9629 29
9630 70
9631 75
9632 23
9633 86
9634 61
9635 22
9636 88
9637 72
9638 9
9639 46
9640 12
9641 40
9642 37
9643 63
9644 25
9645 13
9646 95
9647 31
9648 45
9649 35
9650 52
9651 32
9652 54
9653 63
9654 44
9655 24
9656 31
9657 19
9658 94
9659 25
9660 93
9661 68
9662 35
9663 81
9664 34
9665 27
9666 56
9667 1
9668 82
9669 93
9670 4
9671 70
9672 94
9673 40
9674 21
9675 58
9676 67
9677 63
9678 92
9679 55
9680 94
9681 86
9682 18
9683 34
9684 74
9685 43
9686 68
9687 24
9688 22
9689 25
9690 89
9691 58
9692 72
9693 69
9694 50
9695 77
9696 53
9697 39
9698 21
9699 18
9700 26
9701 13
9702 71
9703 5
9704 10
9705 16
9706 97
9707 32
9708 47
9709 32
9710 71
9711 46
9712 21
9713 9
9714 48
9715 43
9716 25
9717 50
9718 51
9719 65
9720 41
9721 21
9722 29
9723 69
9724 24
9725 69
9726 63
9727 56
9728 37
9729 95
9730 77
9731 31
9732 7
9733 16
9734 37
9735 97
9736 47
9737 40
9738 22
9739 65
9740 88
9741 89
9742 23
9743 3
9744 11
9745 14
9746 8
9747 3
9748 23
9749 63
9750 2
9751 36
9752 31
9753 11
9754 35
9755 69
9756 38
9757 46
9758 1
9759 93
9760 43
9761 25
9762 24
9763 74
9764 39
9765 81
9766 21
9767 0
9768 69
9769 44
9770 22
9771 10
9772 71
9773 81
9774 46
9775 35
9776 84
9777 13
9778 94
9779 37
9780 54
9781 46
9782 11
9783 40
9784 68
9785 62
9786 32
9787 73
9788 37
9789 57
9790 13
9791 89
9792 4
9793 68
9794 45
9795 8
9796 73
9797 28
9798 71
9799 82
9800 32
9801 29
9802 89
9803 14
9804 13
9805 71
9806 43
9807 32
9808 9
9809 92
9810 41
9811 18
9812 81
9813 29
9814 50
9815 81
9816 88
9817 81
9818 22
9819 23
9820 86
9821 89
9822 35
9823 11
9824 44
9825 95
9826 12
9827 44
9828 95
9829 75
9830 47
9831 52
9832 4
9833 41
9834 12
9835 87
9836 55
9837 49
9838 16
9839 14
9840 60
9841 85
9842 8
9843 9
9844 80
9845 9
9846 41
9847 40
9848 12
9849 71
9850 88
9851 45
9852 75
9853 63
9854 62
9855 68
9856 49
9857 95
9858 12
9859 85
9860 43
9861 20
9862 28
9863 61
9864 5
9865 85
9866 30
9867 30
9868 72
9869 92
9870 88
9871 46
9872 82
9873 2
9874 40
9875 40
9876 23
9877 55
9878 88
9879 16
9880 72
9881 0
9882 60
9883 39
9884 19
9885 58
9886 72
9887 31
9888 34
9889 14
9890 10
9891 14
9892 63
9893 16
9894 22
9895 68
9896 50
9897 0
9898 65
9899 24
9900 14
9901 5
9902 68
9903 3
9904 38
9905 3
9906 46
9907 78
9908 0
9909 44
9910 46
9911 53
9912 89
9913 69
9914 86
9915 71
9916 84
9917 11
9918 78
9919 1
9920 29
9921 74
9922 71
9923 78
9924 89
9925 41
9926 16
9927 36
9928 27
9929 20
9930 5
9931 92
9932 39
9933 62
9934 42
9935 13
9936 52
9937 32
9938 5
9939 4
9940 17
9941 74
9942 69
9943 59
9944 75
9945 83
9946 3
9947 50
9948 3
9949 81
9950 31
9951 65
9952 32
9953 11
9954 85
9955 52
9956 33
9957 39
9958 78
9959 44
9960 31
9961 6
9962 11
9963 39
9964 78
9965 76
9966 27
9967 34
9968 79
9969 57
9970 76
9971 82
9972 95
9973 82
9974 34
9975 5
9976 66
9977 37
9978 31
9979 79
9980 57
9981 65
9982 67
9983 25
9984 29
9985 39
9986 62
9987 89
9988 66
9989 36
9990 54
9991 47
9992 95
9993 53
9994 74
9995 11
9996 66
9997 29
9998 27
9999 25
