1 0
15 0
18 0
652 0
1168 0
1800 0
2333 0
3111 0
3650 0
3914 0
4091 0
4346 0
4977 0
6123 1
24292 2
34113 3
34541 4
2 5
540 5
6402 5
9662 5
10000 5
16183 6
16592 5
18570 5
19483 5
26527 7
29117 5
29343 5
30753 8
32232 5
32608 5
32968 5
33460 5
3 9
110 9
678 9
935 9
946 9
1000 9
2620 9
3157 9
3259 9
3452 9
3683 9
4826 9
4835 9
12025 10
25673 11
27379 4
33094 12
4 3
1287 3
2998 3
10166 10
10737 3
14418 3
14720 3
19785 3
19807 3
20932 3
24705 3
26501 13
27111 14
28645 3
30509 3
31114 15
5 13
1763 5
7207 13
10253 13
13048 13
15097 13
17809 13
18234 10
19441 13
20200 13
26024 13
31648 13
32046 13
33134 13
33143 16
33816 13
34391 13
6 17
59 17
170 17
410 17
655 17
958 17
1737 17
2004 17
2023 17
3022 17
3382 17
5060 17
5229 17
7260 18
7325 19
15005 20
31450 12
7 3
1983 3
3649 21
13267 3
16761 3
17967 22
20091 13
22404 3
28651 3
28989 3
31528 3
32599 3
32607 3
32758 3
33229 3
34324 23
34545 3
8 24
1158 25
1850 10
3027 24
6039 26
7520 24
12107 24
19682 24
24549 24
25344 24
27237 24
28122 27
28923 24
29868 24
31146 24
34072 24
34481 24
9 28
99 28
459 28
1078 28
1105 28
1440 28
1599 28
1621 28
2166 28
2293 29
2633 28
3285 28
3823 28
4024 28
18237 3
18577 30
32240 30
10 31
1096 31
1411 31
2381 31
4793 15
8426 31
12024 32
16523 22
19716 31
21607 23
26579 31
27364 31
28150 31
30166 31
34222 31
34311 31
34366 31
11 3
1476 3
6749 3
7606 3
10118 3
10189 3
12123 33
19574 4
20915 3
21371 3
25380 3
29685 3
30839 3
33097 34
33508 3
33951 3
34223 3
12 10
6507 10
7865 10
14168 10
14266 10
19963 10
25352 10
25525 10
25584 10
26729 10
26865 10
26883 4
27276 10
30371 10
33472 35
33764 10
34249 36
13 27
5022 27
5705 22
9408 37
16246 27
19156 27
20512 27
20887 27
22322 38
23241 3
26578 27
26992 27
31259 27
31522 27
32145 27
33282 27
34248 27
14 39
90 36
1732 39
3554 39
4605 39
4974 39
7860 39
10868 39
13002 39
16138 39
16730 39
17874 39
18037 39
18079 39
18515 39
24558 22
32449 20
15941 5
17626 14
20911 12
28444 40
16 41
1816 41
2347 41
4396 5
7096 21
7794 22
12201 41
12860 27
13682 41
14756 41
15744 41
15894 41
18852 41
19393 41
20555 41
22641 41
27172 41
17 12
1089 12
5161 42
10539 12
13740 12
17287 12
19988 12
20967 12
22246 12
23336 12
24042 12
27933 21
30475 43
30517 10
31016 12
33272 12
34301 12
12071 44
13226 38
29803 5
31224 30
19 5
2134 5
2768 5
15269 5
16066 5
17100 5
24780 5
28477 3
28745 5
29335 5
29779 5
30408 5
30698 5
30948 5
33071 12
34489 5
34546 43
20 4
4467 4
5443 4
8962 5
11774 13
13311 4
16109 4
17084 4
17437 4
21172 4
21407 4
22944 12
22997 4
28903 4
30700 4
33744 4
34460 4
21 4
3414 4
7490 4
14013 4
14193 4
14424 4
17644 4
17936 33
19329 4
25187 4
26809 4
29381 16
29583 4
31025 7
32606 4
33378 4
34327 33
22 45
2642 45
8694 45
9276 45
11032 45
12082 45
17114 45
17249 45
19839 45
20168 45
20346 45
21897 45
22180 45
22203 45
25058 4
32085 32
34482 26
23 46
552 46
2268 46
3153 46
4182 46
4928 46
6325 46
6986 46
7720 46
10073 46
10641 46
11940 46
13551 46
20075 34
22697 47
25622 48
32819 22
24 16
4440 16
6663 16
7573 16
12869 16
13243 35
16778 27
20891 16
24078 16
25870 16
26308 16
26709 16
28710 16
29929 22
30151 16
30660 4
31540 16
25 5
3095 5
5607 5
12214 5
13039 49
15869 5
18124 5
22947 5
24397 13
25130 5
26148 5
26178 21
28935 5
29837 5
30226 5
31337 5
31859 5
26 50
42 50
176 50
275 50
547 50
709 50
813 50
1034 50
1588 50
1814 50
2556 50
2988 50
3047 50
4000 51
6717 4
21834 36
34124 20
27 35
2875 35
2900 35
6481 52
9470 35
11323 53
11601 54
12315 10
20169 35
20668 35
21032 35
28930 35
30410 35
30452 35
31690 35
34293 35
34501 35
28 55
6079 55
8989 55
9307 55
9845 55
10292 55
12078 15
15917 55
17144 23
17980 55
19376 55
19866 4
20157 55
21762 55
25467 16
28029 55
29607 55
29 56
3116 56
3780 56
4139 56
4518 26
7983 36
8039 56
19827 56
25876 56
26703 56
31113 56
31363 22
31368 56
31741 56
32021 13
34144 56
34322 56
30 37
2335 37
2764 37
5248 37
8091 37
14265 37
17624 37
19543 37
20626 37
21345 12
22416 37
25009 37
28757 15
30546 37
31496 37
33543 37
33972 5
31 5
2001 5
10283 31
10389 5
10833 57
11202 22
12771 5
16227 5
17218 5
24813 5
28340 5
28926 5
29160 5
31493 5
33375 5
33925 5
34376 5
32 30
502 30
8322 30
9462 30
11747 5
12005 30
14561 30
19107 30
25869 30
27619 30
30460 30
31746 12
33014 58
33941 30
33994 30
34284 30
34399 30
33 4
3891 59
5541 4
7999 4
10188 4
10599 4
10907 60
11239 4
13380 4
15244 5
17137 4
25214 4
27463 4
30071 4
30648 4
31402 4
32284 4
34 34
5200 34
10355 34
14050 4
16187 34
17261 34
17316 34
19047 34
19857 34
21793 10
23239 34
25898 34
26784 34
29454 61
32579 34
32871 34
32981 34
35 4
3159 4
4890 4
10325 4
10883 4
11664 4
13893 62
14284 4
15280 4
20458 4
30400 4
30819 12
32651 4
33558 4
34192 4
34478 4
34500 12
36 35
3634 27
4455 35
6595 7
7416 35
10501 30
11424 35
13703 35
17132 35
21242 35
22298 35
24357 35
28234 35
32090 35
32263 35
33749 35
34230 35
37 63
80 63
3892 63
6682 31
11571 63
11958 63
13807 63
16675 63
17283 63
21246 36
22241 63
25996 63
26273 63
27423 63
29352 63
30095 63
38 12
7844 12
10079 12
10159 12
17094 64
18594 12
18880 65
20514 12
21056 12
25830 12
27672 12
28092 12
29386 12
30440 66
33113 12
33194 12
33336 4
39 3
3441 3
8708 67
10395 3
11866 3
13033 3
15272 3
15448 3
18543 27
21385 5
27889 3
29660 3
31081 3
32976 3
34440 3
34542 3
40 10
1162 13
2778 10
8404 10
8701 68
13011 10
18318 10
24763 10
26198 7
28859 10
29696 10
30806 10
30984 10
32748 10
33215 10
34114 10
34321 10
41 4
9608 4
11236 4
12350 4
22808 69
24167 4
25487 4
28178 4
28295 4
28586 4
29764 4
31150 24
32535 4
32931 10
34353 4
34463 4
19168 47
24701 30
30728 4
34439 35
43 70
68 70
76 70
107 70
307 70
465 70
718 70
810 70
965 70
2295 70
3102 70
3174 70
4777 70
18603 10
18806 4
25696 31
31268 71
44 18
515 18
2014 18
5948 18
12324 34
14048 18
21783 18
23525 18
23958 1
24427 18
28305 18
30872 18
31056 18
31718 12
32293 18
33483 18
34015 18
45 4
592 13
4341 4
5212 4
7262 20
7576 4
9333 72
9894 4
10345 4
10413 4
15401 4
17414 4
30981 4
32012 4
32173 4
33313 4
46 13
6943 13
7684 13
10480 13
11358 13
15132 5
16577 13
22285 13
27294 13
27680 15
27928 13
29706 13
31840 13
33848 22
33934 13
34011 13
34331 13
47 43
2250 43
4998 43
8913 43
9425 73
10968 43
15188 43
17523 60
18004 43
20553 43
20665 43
22340 43
27209 43
30527 43
30794 38
31119 74
48 35
3968 43
6441 35
6539 35
9416 35
10317 35
12492 4
19184 35
19429 35
22860 35
28373 35
28867 7
32897 35
33019 35
34371 35
34503 35
34525 35
49 6
3730 6
9473 6
14428 6
17609 6
19850 43
21488 16
27071 6
28593 22
30888 6
31512 6
31781 6
33001 6
33506 6
33575 6
33635 6
34527 6
50 75
1218 75
2206 75
3980 75
5325 75
5440 16
5589 15
6294 75
6865 75
7674 75
9116 75
12180 75
13635 75
14224 75
16729 75
34257 5
34540 27
51 76
3932 76
5565 76
9050 76
9430 76
9961 76
11721 76
11842 76
13168 76
15204 76
16245 76
16735 37
18783 76
21012 76
31417 3
32960 4
52 30
1009 30
3671 30
9949 30
12460 30
17167 30
17410 30
17751 30
25472 30
26534 30
26824 13
28879 3
29430 77
33309 30
33388 30
34270 30
53 78
1863 78
2252 78
5237 78
8807 78
9829 78
10313 78
11280 78
15879 78
16406 78
18427 78
19230 78
19668 78
20805 78
21125 5
22938 34
27160 4
54 68
6464 68
8679 68
10038 68
11225 13
13642 20
17982 68
18312 68
27637 68
28321 68
28366 68
29074 68
29544 68
29621 68
30235 12
30870 68
32687 68
55 60
2450 60
12065 60
14217 60
16438 3
18509 60
26199 61
27685 60
30959 60
32270 60
33133 35
33394 60
33411 60
33428 60
34176 60
34275 60
34406 60
56 79
11311 79
12484 80
16047 79
20219 79
26483 79
26989 79
27801 79
29973 22
30496 79
31814 61
32047 79
32696 79
33523 79
33944 79
34246 79
34269 79
57 5
636 38
2662 5
4656 5
6523 5
8004 3
9154 5
18975 5
23009 5
28612 5
28857 5
28990 5
30181 5
30863 5
34395 5
34499 4
34544 5
58 4
606 4
4226 4
6349 12
9321 4
18959 4
21527 4
23872 12
27456 4
31089 4
31289 4
32625 4
32888 4
33704 4
33804 81
13986 20
19551 5
20286 22
30537 27
60 43
2029 43
8656 43
9469 43
14686 4
15189 22
19533 82
20166 43
22755 43
25477 43
25777 43
26316 43
27903 43
30764 43
31395 30
32304 43
32463 43
61 13
3695 13
4751 13
7910 13
8731 13
8814 13
9039 13
9209 13
9990 13
13149 13
17387 12
20059 15
28820 13
33867 4
34000 13
34184 4
62 30
1002 30
2650 30
6436 30
11109 30
18874 43
18950 83
23296 30
25349 30
29955 30
30401 30
31903 30
32658 30
33510 30
33686 4
33985 30
63 10
791 10
6151 5
6702 10
7072 10
8739 10
10141 10
12383 5
14679 84
22189 12
27915 10
31347 10
31562 10
32673 10
34241 10
34354 10
64 15
511 16
9042 15
11957 15
15777 15
17108 44
24220 15
24598 60
26038 15
26124 15
26548 85
26828 15
28007 15
29745 15
33057 15
33481 15
34226 15
65 22
12097 15
14446 29
15470 36
16291 22
16670 22
20116 10
20407 22
21175 22
22436 22
26006 22
27269 22
29648 22
30211 22
30430 22
32569 22
34400 22
66 5
4630 5
7714 86
8327 5
10044 5
10667 22
12514 5
15400 5
20881 5
21448 5
22188 5
24993 5
26839 5
26935 5
29498 5
34020 5
67 5
6386 5
7672 61
14589 4
15458 5
19462 14
21291 5
22606 5
23565 5
31435 5
31625 5
32323 5
32755 5
32842 5
33741 5
34486 34
1616 83
2981 14
26467 3
31778 7
69 10
3680 10
4981 10
10740 10
17413 10
18302 10
21994 10
23692 85
24010 10
24556 10
26045 5
26243 10
27760 10
28155 10
29616 10
33356 13
34425 10
70 32
2748 32
11632 32
21277 12
23037 32
23064 32
24958 32
26354 18
27954 32
28109 32
30595 32
31383 32
31745 32
33466 32
34128 32
34381 7
34412 32
71 73
1904 73
3418 73
3498 73
4104 34
8298 73
23916 18
24614 73
24736 73
26806 73
28047 16
29617 73
30688 73
31195 73
32864 73
33106 22
33509 73
72 7
6497 7
11115 7
17159 7
17966 7
20552 7
23851 7
26138 7
28416 22
30766 7
32992 7
33280 5
33880 7
34135 7
34150 4
34518 7
73 5
526 5
1550 5
4209 5
8110 87
8916 23
13277 5
22050 5
22532 5
23268 5
30170 5
31059 5
32249 5
34140 22
34142 5
74 88
6273 88
9537 88
9596 47
14509 10
17042 88
18231 88
19503 88
19767 88
21733 4
22931 88
22935 88
23623 88
24265 88
24660 88
27910 88
29897 15
75 43
1216 5
4916 43
5786 43
11463 15
12703 43
15979 66
18328 43
19084 43
21518 43
26048 43
27884 43
30369 43
30772 43
34456 43
34519 43
2826 37
15019 34
25226 31
27710 4
77 10
4217 10
6852 10
7301 20
9371 10
11652 10
11970 10
23405 10
24490 36
25151 35
25868 10
27480 10
29556 10
32023 10
32275 22
78 18
974 18
1529 18
6997 18
13052 18
13959 18
15090 18
22591 89
24733 15
25127 18
27941 44
28104 18
28913 18
31974 18
34163 18
34531 23
79 90
436 90
2647 90
15324 90
16407 10
17268 22
17600 90
18209 90
20873 90
21492 90
21498 90
23233 90
23868 90
23989 90
26886 90
28040 90
1170 63
5221 82
10357 89
11996 63
15906 63
16593 63
18233 63
18997 4
22468 63
29070 63
31291 22
81 11
102 11
7404 11
14518 11
20607 11
20838 11
23805 11
25060 11
25880 11
26149 11
27492 30
28928 4
30325 11
31309 11
31662 22
32822 11
33457 11
82 87
6649 15
11472 87
14550 5
15009 12
20753 87
21118 87
24228 87
28229 87
28458 87
29627 87
30044 87
32164 87
33266 87
33823 87
33861 87
33919 87
83 6
8455 6
8538 6
8561 6
11357 6
12617 6
13696 16
16805 6
18501 6
24978 6
25186 6
26737 6
33712 7
33930 6
34181 6
84 4
944 4
2559 4
5850 43
6579 13
7691 4
10525 4
11144 4
16728 13
17194 4
19206 91
23723 4
31311 4
31904 4
33385 4
33418 4
85 59
1989 59
13633 13
15622 59
16569 59
21713 59
26043 59
27337 59
28091 59
30274 59
31060 10
31090 59
31121 59
32432 35
33055 59
33458 74
86 61
2608 61
2855 27
5199 61
12680 43
16827 61
17188 61
17383 61
17869 61
22403 61
26807 61
28299 61
28897 61
32043 12
32756 61
33269 22
33771 61
87 10
3729 10
10165 10
12408 10
12933 92
18141 10
24046 10
24279 10
25410 10
27396 10
27487 10
29797 35
31002 10
33440 10
33638 10
34410 34
88 51
1257 34
2692 51
7841 51
8568 12
8983 51
9369 34
11057 18
14759 51
15091 51
15785 51
20401 51
21496 51
21665 51
21954 51
22021 51
22970 51
89 93
4504 94
7878 93
9142 93
10435 93
10792 93
10843 93
16566 93
19478 10
26281 93
26599 93
29193 93
31423 93
31563 93
32709 26
34006 93
34299 93
4183 36
4191 36
4390 36
14059 36
15227 36
19378 36
20901 36
23356 36
24820 36
26320 36
29493 36
30058 36
30690 4
31727 35
34415 36
91 3
17577 15
18545 3
23956 27
27906 3
30037 3
30882 27
31156 3
31270 3
32530 3
33662 3
33893 3
92 85
1179 85
4585 85
6415 5
7315 85
9156 85
10801 85
14111 12
16216 85
27236 85
28835 85
32789 85
32894 85
33083 35
33203 85
33611 85
93 22
2327 22
7023 13
10304 22
11483 22
19600 22
19914 22
26669 22
26973 22
27326 21
27497 22
27891 22
30746 22
31172 22
31585 22
32101 33
34281 56
94 1
3594 1
8367 4
13631 1
17273 4
19179 32
24468 1
32712 1
32935 1
32998 1
33103 1
33501 1
33653 1
34052 1
34077 1
95 13
285 13
2590 54
3845 13
8369 13
9913 95
12606 14
13910 13
16129 13
18443 13
20574 13
20630 13
31474 13
31726 13
32380 13
34096 36
96 47
1819 47
3076 47
12660 47
13484 47
14485 47
17189 13
24769 47
25498 47
27416 47
27538 47
30567 47
32045 22
32198 22
33607 47
34337 47
97 34
584 4
4674 8
12595 34
13686 34
18260 34
19747 34
20993 30
28508 34
30229 34
32063 34
32485 34
32887 34
33122 34
33367 34
33379 34
98 43
3077 22
3266 43
5965 27
7246 43
12134 43
12674 43
13598 43
15743 43
19138 43
19905 43
24948 30
32114 43
32305 43
33044 43
12434 12
13232 15
30534 13
34430 10
100 13
3701 13
11042 13
13344 13
18835 13
19774 13
22325 13
26491 12
27516 13
29201 13
30461 96
30999 13
32537 35
33078 13
33939 13
34063 13
34276 13
101 18
1091 18
10536 18
11992 18
13922 18
15447 27
21319 18
27044 18
27224 18
30291 18
30441 18
30581 18
32109 97
32345 18
33059 12
33353 18
33623 18
2110 11
4018 11
4494 86
4625 11
14581 11
18904 15
21463 11
25258 27
29945 11
32486 11
32624 11
33092 11
103 79
3113 79
8259 79
8360 79
11892 79
20054 79
20763 4
21797 79
23935 13
25319 18
27541 79
31628 79
33822 79
34483 13
104 98
2098 98
10411 10
13407 98
14198 98
14654 98
17532 98
18953 98
21782 36
22453 98
23249 98
25604 36
26933 98
27866 98
31104 98
31456 98
31763 98
105 13
1456 5
1567 13
4662 13
10541 13
11367 13
13737 31
13866 13
15462 13
16014 4
21761 13
23778 13
26776 13
28041 13
29411 13
32211 13
34339 13
106 31
143 31
463 31
1779 12
10600 31
10791 31
12630 31
16242 31
17030 31
19686 31
20681 27
20726 31
30777 31
31328 31
31460 4
34405 31
8068 15
13075 99
21239 27
31980 36
108 5
3211 5
4486 5
9676 5
10222 4
10280 5
14120 24
15337 5
16757 34
20580 5
24750 5
26108 5
29998 5
30258 5
31736 5
34030 5
34444 5
109 31
3642 31
11494 47
11849 31
13068 31
13307 31
13898 31
14287 62
15117 13
15509 31
21434 31
21970 31
22513 31
23756 31
31199 31
34215 31
6430 35
20187 26
22360 34
31606 8
111 10
538 10
3025 10
3415 10
4915 38
17636 10
18392 10
22593 10
24498 10
25290 10
31003 5
31779 10
32171 10
33303 10
33515 22
33896 10
34290 10
112 21
651 21
2473 21
7850 21
8639 21
8891 21
9088 21
13713 10
16767 100
18813 21
22448 21
23069 4
25845 98
28562 21
31680 21
33852 21
33942 21
113 20
7567 84
9736 20
17175 47
18525 20
18927 20
19525 20
21103 20
21879 20
22248 20
23051 20
26234 20
29760 20
31236 20
32498 20
34244 10
34256 20
114 16
1069 16
2949 16
9807 16
17285 16
18985 16
20834 16
21943 16
24252 101
25275 21
27406 16
27785 16
29277 16
30303 16
30943 16
31301 5
34374 16
115 12
1855 4
1993 3
2057 12
18213 102
18259 12
22378 12
24417 12
26097 12
27479 65
27584 12
30933 12
31879 12
32120 12
33649 12
34455 12
34532 12
116 4
4295 91
8250 4
13621 30
14771 4
16787 4
19876 4
20722 13
21534 4
23482 4
24190 4
27304 4
30558 4
32731 4
32825 4
34524 12
117 4
1572 4
5504 31
7259 4
7282 4
17322 4
17821 4
20832 4
22522 4
24455 12
25922 4
26488 64
29346 4
31173 3
31897 4
32182 4
34468 4
118 10
514 10
969 6
4314 10
4738 10
5343 10
10299 10
11044 10
16799 36
26014 10
28787 10
30599 10
33344 10
33579 13
33652 10
33833 10
119 12
7582 12
15550 12
21540 22
21657 12
22517 12
26787 12
29280 12
30283 12
30626 31
32592 20
32773 12
32914 12
34319 12
34459 12
34516 12
34538 12
120 23
3739 4
3878 23
5160 23
5749 23
7117 23
14537 4
14769 23
18652 23
19282 23
19801 23
25749 23
29676 22
30159 23
33287 23
34437 23
121 36
3355 30
7774 36
8839 36
13139 5
16618 36
17698 36
17867 103
18782 36
28241 36
29144 36
30856 36
33802 36
34208 36
34227 36
34421 36
122 30
3232 16
7129 30
10195 30
12448 13
17310 30
18426 30
19444 30
22805 30
23575 30
24620 30
24692 20
32476 30
33560 30
34328 30
123 12
862 12
4645 12
7817 12
12646 12
13865 12
22672 66
27529 34
29650 104
31587 12
31854 12
33340 12
33656 12
34122 12
34522 12
124 15
1646 15
6329 15
14387 18
18167 15
21767 15
23219 15
24321 15
26705 81
27643 15
29119 15
29191 15
29539 15
30563 15
33846 15
34505 15
34534 18
125 20
11407 20
14222 20
15006 20
18749 20
18993 20
21854 20
24491 20
25934 20
26047 20
29482 35
29591 20
29739 23
29887 20
32896 20
33513 22
34329 8
126 47
3371 47
3519 47
8218 93
11884 47
19460 47
20159 47
21270 4
24715 47
25417 47
25738 47
30822 4
32929 47
33866 47
127 90
532 90
637 4
4114 90
12808 90
14391 90
16912 90
31914 20
32172 4
128 3
8487 4
8788 3
11282 3
12942 3
14646 92
15029 40
16027 3
16716 3
18943 10
20826 3
20941 3
25202 3
27400 3
33746 3
34389 3
129 22
2551 97
3557 22
5591 31
10128 22
12401 22
14666 22
15857 22
18265 30
22635 22
23610 22
27024 22
30260 22
31549 22
33292 22
33537 5
130 12
3136 10
5679 12
8000 12
11426 15
14355 12
17996 12
22733 34
23795 12
25691 12
26853 86
28391 12
29551 12
29668 12
32937 12
33190 12
34032 12
131 104
6462 104
10306 4
10661 104
11351 104
14209 104
18884 104
21013 104
21268 104
21915 104
23074 83
24545 5
25797 104
28010 104
29695 104
30630 104
132 35
252 35
4466 35
13443 35
17640 3
20990 20
21525 13
25836 35
27820 35
29243 12
30013 35
30510 35
33525 35
34076 35
133 31
2548 31
3352 31
12280 31
18847 31
21140 31
21260 31
21757 10
22599 7
26185 31
26535 31
28915 31
29469 31
29822 31
31724 31
32749 11
134 35
407 77
444 35
6622 35
15608 35
22128 35
24437 35
24968 35
25002 35
25570 35
25840 33
29036 4
32236 35
32517 35
135 43
11692 43
12995 43
15594 43
15862 26
18374 43
24092 43
25715 43
29011 43
30453 43
30850 43
32123 43
32212 43
32746 12
33397 13
34067 43
136 34
3300 34
3799 34
8957 34
10463 34
10514 35
14010 34
21153 22
22592 34
26560 34
27542 34
28473 34
30641 10
31919 34
32630 21
34182 34
34348 34
137 32
5867 32
10085 32
10535 32
10679 32
22349 12
22914 32
25238 32
26644 32
27916 32
29380 32
29965 32
32533 32
32846 32
33076 30
33255 32
138 34
1830 34
8805 34
10628 34
13998 34
16087 36
21925 34
23636 34
23897 34
25910 18
26413 34
28186 34
33372 34
34073 34
34422 34
34528 12
139 4
1412 4
8300 4
9320 4
13085 22
14425 4
15866 22
16173 15
17222 4
17400 4
23619 4
24425 26
24860 4
25796 4
27013 4
29123 4
29948 4
140 13
11851 13
12665 13
12907 79
15364 13
17309 13
21845 13
24314 36
24963 13
27137 13
28770 13
30536 13
31420 5
31507 13
32413 13
34434 13
34529 13
141 34
1102 34
1405 34
1525 34
1786 34
7680 34
8552 4
12937 34
19471 34
23821 34
24481 34
24802 34
25736 6
33288 34
33622 34
142 21
6785 21
7622 21
12288 21
22273 21
23467 21
27701 23
28639 23
31117 21
31234 21
31547 21
31930 21
32244 21
32454 21
33456 21
33725 21
679 13
917 30
1366 31
3916 31
15776 31
16563 31
17978 31
21722 31
28292 10
29448 31
30570 31
31426 31
32241 31
33562 14
33812 31
144 30
147 30
2612 30
7067 10
7173 30
7793 30
10869 30
11964 12
18190 30
19325 27
19886 30
20008 30
31748 31
33720 30
33782 30
34178 30
145 13
3926 13
3940 5
5032 13
10793 13
13158 13
14018 105
19824 13
20185 13
23238 13
26221 13
26446 13
28790 43
30715 13
32071 13
34323 13
34394 13
146 12
359 22
738 12
10815 12
13540 12
16253 12
17842 32
19902 12
21070 12
21895 12
22390 12
23165 12
24404 12
25550 12
31211 12
32577 3
1029 30
2878 30
4383 106
5685 30
6515 30
8630 30
9220 30
11114 30
14466 107
17098 30
20292 30
25502 30
31868 37
148 2
3167 2
4954 2
5843 4
11434 20
11550 2
11846 2
13693 2
19951 2
23762 2
26717 5
26919 2
31106 2
31298 2
32573 2
33757 2
34497 2
149 21
7064 21
7154 21
9129 21
11016 21
12036 21
12447 13
15587 21
16043 21
16048 24
18868 21
25814 21
27924 21
31647 14
33491 21
150 3
3501 3
7504 3
22247 3
22851 3
27185 36
27373 3
27388 15
28585 3
28598 3
28674 3
30653 3
32273 14
33708 108
34471 3
151 30
4960 30
11028 30
12356 47
14308 5
14896 30
15311 30
15786 30
19897 30
27039 22
27193 30
30450 30
31412 30
32209 30
33498 30
152 14
1928 13
8728 14
8958 14
10149 13
13702 14
20845 14
23185 14
29136 30
32111 14
32613 14
32938 14
33619 10
33900 14
34448 14
34536 14
153 3
9046 3
9443 3
12302 3
13357 12
13384 3
15843 3
19887 3
22439 3
24261 3
31379 3
31822 3
31901 13
32399 3
34152 3
34174 23
154 34
8697 4
12044 34
15063 60
18351 34
19474 34
20299 34
21295 34
26389 34
28842 34
31187 34
32560 21
32901 34
155 108
5195 109
12707 108
15621 108
23073 22
28629 13
29128 108
29496 108
31895 108
32912 108
33788 108
33908 108
34004 12
34092 108
34347 108
34364 108
34396 108
156 10
9978 10
12788 10
12833 10
16143 15
18721 10
19491 10
26027 10
26030 10
26646 10
26680 10
28476 10
29608 37
29762 10
30102 5
33170 22
157 13
404 13
4161 13
7931 13
12426 13
14795 110
15306 30
18724 13
20080 13
20137 13
22820 13
23333 24
25520 13
30955 13
31890 13
31978 27
158 25
796 25
893 25
1434 25
1759 25
1893 25
2047 25
2145 25
2288 25
2554 25
3755 25
4266 25
5247 25
5779 14
6513 111
8220 112
159 3
2316 3
8433 3
11817 10
11939 3
14098 16
23410 3
25404 3
27085 3
27120 3
27133 3
28093 12
28312 3
30514 26
31667 3
160 5
7745 5
9728 5
10362 5
15898 5
16090 5
16648 5
21670 5
21795 5
25539 113
25547 5
26746 5
27060 5
31207 5
31386 5
32165 13
161 114
3287 114
4056 114
10261 114
11053 114
13528 114
14091 114
14524 114
16128 44
16182 14
18458 114
20557 114
22988 114
25742 114
29525 20
29533 114
29652 114
162 115
215 115
343 115
480 115
937 115
1215 115
1553 115
2467 115
2558 115
3435 115
3444 115
3657 115
5099 115
21375 116
24351 34
31033 23
34326 33
163 30
189 30
6439 30
6814 30
8025 30
13953 22
19227 30
19467 30
19643 30
21760 30
25036 12
26439 68
27512 30
28976 30
30711 30
31905 4
32042 30
164 31
1438 15
5750 31
11458 31
11709 31
17658 31
17876 31
19695 31
22869 31
24438 4
26583 31
28284 31
31229 31
33869 31
34465 22
165 4
948 4
5901 69
9922 4
16874 4
20183 10
20854 4
22160 4
22265 4
26493 5
30068 5
30382 4
30751 4
34476 4
166 20
1962 20
6907 20
10886 20
13566 20
16211 20
17781 20
18022 4
18063 12
18286 20
20786 13
20998 20
24399 20
27196 20
29555 5
33038 20
33305 20
167 3
4460 22
10486 3
12261 3
17112 3
24350 3
25282 3
26317 3
29883 3
32242 83
32282 3
33553 3
168 31
3185 31
5659 31
6283 5
8772 31
11445 31
12615 31
17166 16
18815 82
19263 31
24091 31
30616 31
34058 31
34413 31
34526 31
169 22
7278 22
8939 22
16051 22
17427 22
20966 22
22058 22
22784 22
26570 22
27979 22
33234 32
33658 117
34023 22
34098 22
34138 22
34514 22
1196 5
25064 27
30656 35
30917 35
171 118
2468 118
6753 118
8831 118
9231 118
11723 118
12814 118
13624 118
14988 118
15056 118
15307 118
16709 118
18879 15
21286 118
27727 32
172 30
6408 30
8061 30
8219 30
8439 30
10574 5
15688 30
21132 30
23107 30
25970 30
26037 8
29017 10
29925 30
30295 30
31971 30
173 29
4541 29
5090 29
5223 29
8644 29
14022 29
17225 29
24056 29
26844 29
30031 29
30643 29
31672 29
32044 29
32520 16
33239 36
33436 13
33830 29
174 35
4528 35
5640 35
11188 22
13892 35
18381 20
18532 35
21649 35
23063 35
24797 35
28506 35
30029 35
32841 13
33073 35
33077 35
175 35
297 35
508 35
2501 35
2644 15
9497 35
12475 35
16573 35
18789 109
19742 67
26084 35
26189 35
28002 35
31253 16
33236 35
29300 22
33860 4
34464 10
34513 5
177 2
278 2
2266 2
6847 15
7402 2
8383 2
10979 2
15767 2
16299 22
25363 2
25891 2
29734 4
30674 2
30823 2
31620 2
178 4
4552 4
10100 4
10297 34
17462 4
18518 43
27534 4
29718 4
30088 4
32565 4
32725 20
33475 4
33490 4
33739 4
34485 13
179 5
6412 5
6933 5
10922 5
14247 5
20102 5
21452 5
22876 5
23438 22
24139 12
24555 5
27159 5
31803 20
33153 35
34169 5
180 18
1838 18
7476 18
15634 18
19038 18
22052 22
22096 18
25143 18
29658 7
31713 18
32369 18
32879 18
33396 12
34419 18
181 34
1549 34
2050 34
13041 34
17364 34
19315 34
25173 26
26966 34
30001 34
31657 34
31751 34
33251 34
33295 34
33325 34
33689 87
34090 30
182 11
4619 11
5564 11
15196 11
15315 11
24343 11
25834 5
28543 11
30428 47
30980 11
32095 11
33581 92
183 105
3068 105
4663 105
12419 105
13921 105
17714 22
17800 105
19408 105
23567 105
25197 105
26294 22
26334 105
27098 105
27356 105
28755 119
30257 105
32201 105
184 34
8461 120
12880 34
13432 74
18408 34
22170 34
22498 121
24832 34
27440 34
28327 34
28733 34
28749 34
30144 26
30561 34
33195 34
33429 34
185 3
612 3
1528 3
1673 92
4507 3
14783 3
23949 3
25671 3
28848 13
29476 3
31027 3
33671 12
34228 3
186 10
3018 31
6083 122
11765 109
14600 10
18725 10
20081 10
23079 10
24794 10
29027 10
30132 10
33617 10
33665 10
33745 10
33790 10
34358 10
187 14
3045 16
18875 14
22165 14
23311 14
26799 14
27226 14
28197 14
31459 14
31639 14
31916 14
33187 14
33642 14
188 34
735 34
7000 34
8506 34
9086 47
12463 12
12835 34
14277 34
19842 34
19888 34
21373 34
21671 34
25639 34
33232 13
1856 30
5467 30
10347 30
13659 30
18433 30
19320 98
25631 4
27609 30
28078 30
28134 30
28298 30
31185 30
31303 30
34449 34
190 123
198 123
262 123
284 123
385 123
450 123
534 123
1625 123
2747 123
3714 123
4105 123
4323 123
4715 123
8355 30
22994 81
31885 124
191 35
1145 4
2979 35
8358 35
9818 13
10615 35
11600 18
17053 35
17925 35
18376 35
21316 34
25305 35
29876 35
30318 35
31048 35
32457 35
34012 35
192 4
647 4
2052 4
3346 4
5711 4
5721 4
7344 4
8775 22
9686 4
21908 4
24633 4
24930 83
26993 125
28975 4
31424 4
32884 5
33546 4
193 5
4101 5
9790 5
11020 5
18117 5
27253 22
28858 5
30654 22
30830 5
32628 5
32774 5
32941 5
33264 5
33907 5
34380 5
34393 23
194 5
2802 5
7884 80
12210 126
13800 5
15508 5
18444 27
21150 5
23406 5
27200 5
30308 5
31439 5
195 127
537 127
603 127
1774 127
3209 127
5352 127
7377 127
9695 127
11206 127
12590 127
12850 127
17634 127
18006 127
19728 31
23838 128
34535 33
196 13
1139 22
1338 34
2018 13
8276 13
12247 13
12744 13
19923 91
29688 13
29889 13
30089 13
30160 13
33441 13
33737 13
197 13
2761 13
7607 7
10240 13
13285 13
13532 13
15582 13
16632 5
16682 13
22707 13
29292 13
33838 13
34472 22
5811 36
22885 30
34074 60
199 5
3700 34
5780 5
6712 5
6797 10
7882 5
11523 5
14078 5
20051 5
20202 10
20860 5
22807 72
24067 5
32053 5
32795 5
33670 5
200 121
5189 121
7102 121
8898 34
11244 121
12183 121
14187 121
16551 33
20301 121
22259 121
23361 128
24874 121
25367 121
25551 121
25564 92
31133 121
32031 121
201 4
1583 34
2781 4
4048 4
15230 4
20404 4
21490 5
27028 61
28051 4
29758 13
31797 4
32006 4
32297 4
32889 4
33533 4
34253 4
202 4
379 4
2106 4
4373 8
4542 4
6333 4
15996 4
17632 4
24654 7
24960 4
28069 4
29203 4
30002 22
31568 4
32703 4
203 16
782 16
1282 16
4781 16
5329 16
6139 16
15168 30
21073 5
23867 16
25120 16
25820 16
27856 35
30972 92
33427 16
34203 16
34219 16
34487 16
204 5
1787 5
4371 5
5996 5
6512 5
18113 97
19402 5
20105 5
20652 5
20825 5
25379 23
27411 35
32426 31
34179 5
34404 5
205 16
4946 16
13672 16
14652 12
15918 43
20560 16
21647 16
22260 16
23217 16
23302 16
24456 16
31124 16
31437 3
32859 16
34506 16
206 25
633 25
1059 25
1980 25
2247 25
2351 25
3647 25
5805 25
9304 25
9760 25
10192 83
12030 25
17049 25
20648 13
29071 10
207 20
5794 20
5913 20
11411 20
12481 20
13154 20
15344 20
18661 20
19813 20
23156 20
23424 20
25878 5
27815 34
29278 20
32312 20
32372 37
34454 20
208 14
17130 14
17465 27
17578 30
19392 60
20021 14
22455 14
22623 14
24267 14
29107 14
31282 14
34137 14
34488 14
209 7
440 34
667 7
2194 7
2240 13
3086 7
13456 7
19170 7
20518 7
20892 7
22126 7
30861 7
34166 7
34288 13
210 12
2111 12
11177 12
19694 12
20971 22
26134 12
27861 12
30143 12
30152 12
30606 12
32660 12
34335 12
34401 12
34402 92
34477 12
211 22
3325 22
6438 22
6849 22
10684 22
15059 33
17592 22
18903 5
21001 22
22112 22
22114 22
24766 22
28401 22
29999 22
31882 22
32905 105
212 26
2883 22
2892 26
3946 26
5868 23
6910 26
13083 26
14629 26
16456 26
16861 26
17998 26
21445 26
22098 26
27443 92
32788 26
34014 26
34517 26
213 129
3458 129
5560 129
7912 129
10026 129
12636 129
13623 129
13730 129
14195 129
14644 129
14808 129
16825 129
18931 129
21506 129
21792 3
34296 47
214 43
2187 43
2960 43
9308 43
11147 43
17597 43
18731 4
22456 38
23397 43
26778 43
28128 43
28868 43
28958 22
32541 43
34533 43
2190 12
15945 10
20098 21
28348 29
216 27
710 27
5452 27
9429 27
10295 27
11607 18
12684 27
14898 27
18205 20
22515 27
25532 27
25565 27
29612 5
30146 27
34049 27
34229 27
217 23
5852 23
12724 23
13482 23
21859 23
26325 23
28112 23
32138 92
32554 23
33545 23
33808 4
33870 23
34149 23
34502 23
218 31
8338 31
9201 31
10023 31
11129 22
11443 31
13109 31
14311 31
14348 31
18567 130
22770 30
26793 31
27720 31
27751 31
29712 31
33430 30
219 22
1676 22
8713 22
9803 22
10436 100
16124 22
18114 22
25023 30
25839 22
26026 22
29547 22
30627 22
30787 23
31704 35
32643 22
33586 22
33936 22
220 13
6158 13
6376 57
7821 13
9474 13
16951 13
20032 13
26794 13
28417 13
30789 4
31349 13
32940 13
33480 13
33577 13
33667 20
34051 13
34209 13
221 20
932 20
4956 20
6998 20
14931 35
17611 20
18074 20
22908 20
24255 20
24363 20
24398 16
28943 20
31464 20
32199 10
32414 21
33774 20
222 36
3531 36
6589 5
14272 37
16074 36
16186 36
26219 36
28296 36
31833 20
32086 36
32424 36
32491 36
32967 36
34130 36
34521 36
34543 36
223 13
9215 13
9485 13
13064 13
17517 13
18348 12
19362 13
19934 13
21151 13
29516 13
30042 13
30521 13
31635 13
32571 13
32587 13
224 5
13179 5
13613 5
18504 5
19200 21
19350 5
22725 5
22937 15
23804 5
30345 5
30858 3
32898 5
34356 5
225 89
1820 89
4143 89
6104 80
7513 89
11795 89
15275 89
16707 89
18887 89
19018 89
19385 89
20267 89
22825 89
31137 5
32355 16
226 22
8287 22
13429 22
15652 22
17559 108
18668 22
20589 22
21037 22
27654 22
28211 22
29702 22
32531 22
33154 22
33829 22
33891 23
227 13
7744 13
9583 13
10982 13
11026 4
13897 12
16336 13
21328 13
25332 36
27121 20
28763 13
31972 13
32183 13
33316 13
33914 13
228 12
4720 12
5888 12
8331 12
9401 12
12854 12
16371 12
18619 12
19389 12
19456 12
19956 5
22460 12
24290 37
27778 12
32481 3
32811 12
34515 22
229 20
624 4
956 20
8059 20
12450 20
14852 20
23735 20
25949 20
27851 20
28375 22
28795 22
29433 20
31226 20
32256 20
32338 20
33785 20
230 5
3200 10
16930 5
18938 34
23721 5
24395 5
25312 5
28633 5
28824 5
29094 5
32542 5
32829 5
231 18
3971 18
4573 18
7502 18
10454 18
13804 18
15531 47
19244 18
21207 18
26970 18
33432 18
33887 18
34298 4
232 16
5105 16
8195 16
8752 16
20314 16
20550 16
20660 13
22663 16
23483 16
27460 30
27634 16
28684 16
31700 16
32745 16
34036 16
34474 6
233 5
1272 3
4513 5
5256 5
17892 5
18001 5
19112 5
21254 47
23608 5
28422 5
29402 5
30281 5
33175 5
34473 5
234 4
270 20
5305 4
7626 4
8875 43
12219 4
14450 131
15103 4
17407 4
19193 4
20184 4
22469 38
23015 4
27611 4
31050 4
32060 4
235 3
5535 12
9688 3
10385 3
13074 3
13658 3
14332 3
14911 3
18800 3
23201 36
24677 3
27775 132
29558 10
32474 3
32713 3
236 4
3551 34
7579 35
9291 4
9306 4
13947 4
18902 5
20385 4
24407 4
24445 4
29127 4
32970 4
33007 4
34279 4
237 47
1222 47
8581 47
11751 47
16531 47
16637 47
17332 47
23715 4
27387 13
27564 47
28368 47
32050 102
33030 47
34260 47
34340 47
238 37
4142 37
5437 37
6241 37
14569 37
18012 37
18168 37
20499 37
26039 37
26821 12
29218 37
31255 61
34239 37
239 22
1824 3
11089 22
13100 4
15730 133
21080 22
21960 22
22309 22
24824 22
29374 22
30507 22
31818 22
32629 22
33027 22
34158 22
34289 22
240 8
3964 8
8667 8
11356 16
12862 8
14735 29
18024 8
18530 8
25115 8
28533 5
31305 5
31987 8
33723 8
33750 8
34277 8
34484 8
241 80
1359 80
2251 80
7026 80
11283 80
14092 128
14661 18
14820 74
17240 80
19120 80
20414 80
23845 80
26566 80
26949 80
29817 80
33128 83
242 22
895 22
2882 15
7776 22
8015 43
9956 22
16932 22
17371 35
18335 22
23320 22
27787 22
29708 22
31995 22
33371 22
33950 22
243 13
4818 13
7633 13
9365 13
10554 13
13988 56
15021 13
16748 13
19004 80
20311 13
22084 13
24059 13
25119 13
29315 13
31288 13
33434 13
244 22
4273 3
4576 22
4593 48
5494 22
5723 22
17312 22
17534 22
25355 22
27245 22
29206 22
30335 22
31888 22
33507 22
33863 22
34420 4
245 15
5042 22
8085 15
8187 15
8361 15
9012 15
21381 15
22275 15
30455 15
31380 15
32499 22
32682 15
32784 15
33181 15
34295 15
246 18
6831 18
8575 5
11179 18
11464 18
13406 18
16298 3
17418 18
23206 18
23414 18
26999 18
27392 18
31580 18
31773 18
247 35
1015 96
5846 35
8222 35
19768 35
20140 35
20935 35
21313 12
25088 77
28403 15
31260 58
32850 35
33064 35
248 18
2164 18
2727 18
5877 18
13764 36
17399 18
19732 4
21666 13
22915 18
25311 5
249 85
5994 85
12784 13
13286 85
14577 85
16237 85
17000 85
17443 85
22955 85
24203 131
25821 85
27796 31
29504 85
30835 85
32678 85
250 79
13292 79
14031 79
18462 21
23297 79
26207 79
26212 79
30173 59
31719 43
34313 14
251 21
12022 21
13620 21
16598 21
16876 4
19921 21
21993 21
28237 23
30032 21
30651 21
30983 21
30998 21
32817 21
2896 35
4016 13
9484 35
10876 30
20437 35
29740 36
30182 35
31403 35
32331 92
253 12
4657 12
6267 12
8789 64
13609 108
15436 12
19210 12
21362 12
22862 12
23617 12
28765 12
30059 12
32835 12
34350 22
254 10
1690 97
16615 10
17282 10
18098 4
22405 10
27132 10
27182 10
27673 10
28948 10
29337 10
29778 10
31354 36
255 84
4040 4
7240 12
8051 84
8082 84
12731 84
14019 84
15513 84
17340 84
17762 14
18962 84
22841 84
28559 10
28565 84
29455 84
31180 84
256 35
715 35
857 35
3691 60
6093 35
6282 35
7006 13
10970 35
11623 35
16098 22
23840 10
26633 35
29600 35
30761 35
34343 35
257 64
312 64
432 64
1433 64
2486 92
10651 64
13200 30
14349 64
17172 64
19086 64
20461 64
23179 64
27323 64
27692 61
29849 64
33551 64
33625 64
258 36
2731 36
3811 36
13193 36
16016 36
16384 36
21075 36
21428 34
24381 36
25386 13
27704 36
29958 36
33124 36
33726 4
34093 34
34369 36
34377 36
259 13
6260 13
7534 13
8471 13
10119 13
13080 43
17588 13
24264 13
26490 13
27648 13
30719 13
32213 13
34233 13
260 13
5101 13
9431 13
17497 13
18196 13
19440 13
21307 5
24197 13
25718 13
28376 5
28683 13
29186 13
32014 13
32077 13
33881 13
33976 15
261 31
5669 31
10955 31
13558 5
19743 12
20189 31
20225 38
21942 31
22007 31
25415 31
30747 31
30760 31
33805 31
33978 31
17686 3
28383 22
33700 27
34539 92
263 10
5326 10
8399 10
13520 22
17491 10
18586 30
23774 10
28479 10
28829 14
29571 12
30201 10
30768 10
30971 10
33946 10
264 47
10153 47
12409 47
12742 47
14389 5
18306 47
20649 47
24263 4
26686 13
27210 47
29183 47
32478 47
33707 47
33909 47
265 10
4549 10
6820 10
14448 10
15929 10
17396 10
19232 10
20946 134
22274 44
25899 10
26051 4
26057 10
29934 10
31739 10
34121 10
266 35
3678 35
7483 35
12675 35
15363 10
18076 35
24401 35
24895 35
28227 35
29269 35
29659 135
30363 35
30493 32
32557 35
33253 35
267 22
3524 12
11429 13
16283 22
19050 5
21667 22
24040 22
26765 22
28741 22
32035 22
33821 22
268 13
4321 13
4875 13
7941 13
8585 13
10484 13
14592 92
17185 13
24415 13
24761 13
25850 13
31655 13
32250 13
33589 5
33760 13
269 36
972 36
4821 30
12226 36
13283 36
18095 36
25180 36
25281 107
28748 36
29604 36
31835 36
32099 12
33263 36
33308 36
33857 8
9722 20
11698 20
14254 20
16352 92
20037 92
22768 20
26682 20
27122 20
28117 20
31494 13
32473 20
32924 20
33381 20
271 92
10348 92
11235 92
13313 92
13981 73
17618 92
22023 92
22658 92
22839 92
28264 92
29149 5
30696 92
31478 92
33888 92
34338 92
34469 92
272 18
2197 18
7319 92
9941 18
13809 18
14763 18
16141 18
19775 18
25400 18
26394 43
29920 18
31377 18
33851 18
33958 18
273 10
1874 10
7184 49
13735 10
15170 2
17475 10
18010 10
19351 10
23460 10
24382 30
24852 10
26186 10
30542 10
33963 10
34212 10
34441 10
274 13
3450 13
3754 13
9192 31
12981 13
18922 13
20402 13
21387 13
22173 13
25913 30
26691 13
28055 13
29086 13
30085 13
31665 13
32020 13
34359 27
11299 102
14028 38
24540 136
276 6
1068 30
1946 13
7667 83
8877 5
12658 6
14834 6
16459 6
17766 6
30327 6
30716 6
33207 6
33370 6
34443 6
277 23
1898 4
4726 30
7329 23
15348 23
19419 23
21010 23
25431 23
25437 23
28278 23
30379 30
32136 23
32926 4
33310 23
3875 2
8414 2
17744 2
23834 22
26747 2
27230 18
27883 2
31399 2
31707 2
32616 2
33101 61
34054 2
279 47
7915 47
7921 47
13353 47
13632 47
21217 47
22226 47
26170 47
26852 47
27139 47
31894 47
32364 47
32984 47
33784 4
280 21
4704 21
13708 12
16177 21
17090 21
22367 21
25981 3
26215 92
26502 21
31536 21
31623 21
31658 21
34064 13
34119 21
281 12
13213 12
14479 12
14743 3
20380 12
29774 12
31596 12
31947 12
32844 12
33275 12
33792 12
34009 4
34173 16
282 92
5483 92
6089 12
6183 92
9205 106
13729 92
16185 36
18849 92
22810 92
28567 92
29379 92
31618 92
34123 92
34153 92
34451 92
283 32
386 32
4687 12
6000 32
10518 20
21165 32
23782 32
27050 32
27325 32
27557 47
28411 32
28873 32
31188 32
34048 32
1274 20
10049 12
16284 137
32075 3
2864 13
3221 13
3841 13
7145 12
12003 13
20112 20
20417 13
22352 13
24709 13
25661 13
27782 13
30218 13
32545 13
286 5
2463 5
4337 4
4762 5
5170 5
18258 5
22361 5
25837 12
30250 5
30907 5
31202 5
32583 5
33399 22
34291 5
287 4
823 131
5269 4
6727 4
8209 3
8627 4
10593 4
15839 8
23416 37
24217 4
25212 4
34026 4
34306 4
34407 4
288 80
3846 80
11002 49
12997 10
17771 80
18283 80
18633 80
20983 80
25139 13
289 4
2186 4
4811 4
10244 4
10461 4
13392 4
15970 4
16858 61
17045 30
17489 4
18559 4
21261 31
27156 16
27215 4
28839 4
290 5
5875 22
6683 5
14981 5
19250 5
21227 5
21582 5
24915 5
27974 5
28086 5
28480 27
30041 86
31240 5
31595 5
34397 5
291 12
8402 12
9597 12
11231 12
16704 12
17359 12
20683 22
24317 12
25621 12
27322 12
29763 12
30921 36
31811 10
33548 12
34429 12
292 12
424 27
7813 12
9783 12
10398 12
14929 12
20322 12
23915 4
27275 12
30277 12
31294 12
33161 12
33218 12
33637 12
293 8
3942 8
6134 4
11310 8
16541 19
18596 8
24257 8
24814 8
25676 8
26533 8
27389 8
27976 8
33477 10
33583 8
33644 8
34086 8
294 138
4648 138
8929 138
11043 138
11788 91
16976 138
17485 138
18249 138
18795 138
18886 138
19105 138
20255 138
20713 138
21476 138
24044 22
28957 37
32506 6
295 36
3239 36
3354 36
8170 36
11697 36
12384 36
16752 2
17307 36
17734 36
20548 12
23839 36
31157 15
31358 36
34467 36
296 12
2586 2
2990 61
6262 12
12641 13
17969 12
18146 12
23871 12
25262 12
26131 12
29366 12
31771 12
32218 12
33892 22
34496 12
4120 35
8229 5
9862 35
14483 35
14893 35
15713 35
17825 35
25016 35
27977 35
29095 35
31944 35
32438 4
33797 7
298 20
471 20
2278 20
3042 20
4904 20
9135 20
9336 22
16765 20
22757 20
26062 20
26967 20
28434 10
30003 20
32097 4
34055 20
299 13
993 13
9777 32
9810 13
11977 13
12885 16
19147 26
26741 13
29517 13
30886 13
31933 13
33364 13
34005 13
34148 13
34190 13
300 13
2022 3
5178 26
7025 13
9217 13
10468 13
13717 13
13879 13
21458 13
22276 87
24569 13
26414 13
27154 13
29272 13
34361 33
301 4
1290 5
10341 4
12012 4
12446 4
17448 113
19292 4
23105 4
23710 4
30012 4
31102 4
31127 4
33127 4
34383 4
302 139
1213 43
2931 139
4708 139
10403 139
14257 5
15849 139
16820 139
21409 139
23300 139
24152 139
26396 139
26610 139
26912 139
27094 139
31973 5
34310 36
303 13
3245 13
6222 13
7005 13
7219 13
11819 13
14813 13
16145 13
19137 13
20218 13
23353 36
25745 13
31083 20
33412 13
33817 13
304 22
1242 140
1996 5
3579 22
5980 12
8011 22
8303 22
12857 22
13505 22
14153 91
15205 22
16559 22
20358 22
24423 22
33904 22
34424 22
34470 22
305 5
1945 35
11253 5
12066 5
12086 5
14462 5
16775 5
18555 5
19368 5
20790 5
22654 5
25689 22
32764 4
33968 5
306 13
2003 15
9031 13
10067 13
15626 13
17529 13
24470 12
26067 13
26092 13
29333 13
30583 13
33452 13
12931 5
24172 5
308 12
1573 12
3130 12
4444 31
17633 7
23083 12
23134 12
24924 12
25266 131
26153 12
27349 12
31941 12
34346 12
34435 12
309 43
3439 43
4169 92
6546 43
12091 43
17363 43
19122 10
24272 43
25077 43
28608 43
32768 43
33564 30
34040 43
310 4
394 4
2853 31
12038 4
20907 4
22295 4
24504 7
25027 4
25179 4
25809 4
28754 4
32805 4
33448 4
33738 4
311 10
4240 10
4689 10
5230 10
7328 35
9764 10
14778 92
22317 10
24274 10
28057 10
28808 10
28831 10
31455 10
5893 92
13306 64
20131 64
20563 64
25969 64
29147 22
29316 64
29481 64
31865 64
32883 64
313 3
22119 3
22754 3
27835 93
27950 3
31442 62
32368 3
32959 3
33022 3
33233 3
314 10
1985 10
4132 10
7466 10
9134 10
15273 102
19864 10
21635 10
22149 27
25211 10
27544 10
33231 47
33540 10
315 12
1748 5
2144 12
3576 12
3693 12
4397 12
5461 12
11224 30
12464 12
15382 12
20096 12
21678 12
24469 8
28030 12
30023 12
30397 12
32973 12
316 92
2634 92
6186 92
11816 92
17449 92
20295 92
21224 92
28213 92
29995 92
30871 92
32482 92
33063 5
317 61
454 18
9341 61
9601 61
10276 61
13595 61
19283 35
24600 61
25175 61
25301 61
28635 30
30389 61
33920 61
34312 61
318 5
13925 5
15678 4
17732 5
19178 13
19451 61
20969 5
25321 5
26675 92
31951 5
33781 5
34167 5
34243 5
319 43
3965 43
17536 43
17608 43
22700 43
22815 43
24554 43
25548 43
25924 43
28342 92
28746 43
34120 43
34217 43
320 5
4937 5
5553 5
6018 5
6417 10
14626 5
16532 5
17885 5
23017 5
25993 5
29110 5
29368 5
31582 4
31925 4
31986 5
32344 5
33626 5
321 13
3296 13
4944 13
5102 13
8071 13
14415 4
26469 13
26766 13
26781 13
27603 13
28642 36
32857 13
322 20
4768 20
4869 20
16653 20
19648 20
22743 92
26584 20
26932 20
27466 20
27554 20
29373 20
29390 20
30993 20
34078 22
323 26
367 116
1264 5
3403 26
4531 61
4592 26
6612 26
6825 26
6826 26
8246 26
24475 26
24976 26
25196 26
32507 26
324 27
2759 27
3847 2
4162 27
6669 27
9983 27
18940 27
22510 27
23767 27
25219 27
25599 27
27666 3
29332 27
31732 131
33514 27
34045 4
34479 27
325 10
5392 10
14768 10
22911 10
25409 10
26368 3
29645 10
30889 10
31521 23
32880 31
34211 10
34386 10
34442 10
326 49
2207 49
6937 49
8354 49
9207 49
15658 49
17543 49
18129 4
20353 49
20719 49
29982 49
30238 12
30885 49
31737 49
31784 49
33728 49
327 93
8244 93
8672 93
11510 37
16003 93
22711 93
24368 26
24683 93
30932 93
33105 93
33518 93
328 20
4176 20
16585 20
18708 20
19448 20
19497 22
24954 20
26456 20
28822 20
28869 20
30418 20
32539 30
33629 32
329 4
355 4
2532 3
7986 4
12200 4
12649 4
17832 4
18174 4
20670 4
22793 4
24140 26
24595 4
30528 4
33814 4
330 65
2127 65
4361 30
5233 65
7732 65
10621 65
12557 65
16755 92
20462 65
23393 65
25135 65
25158 22
28113 65
28255 65
30109 65
31537 65
32245 65
331 4
1365 4
4392 4
5921 30
19313 4
19504 4
21623 38
25109 4
26757 4
27354 26
30689 4
31091 4
33174 4
33621 4
33837 4
34214 4
332 5
6990 5
7056 5
10158 5
14602 5
15903 5
19388 5
22998 5
23923 5
26136 8
27862 5
28421 131
28966 5
32206 27
32602 5
33331 5
34461 5
333 33
7731 33
16254 26
18600 33
18699 33
20413 33
25586 33
25657 33
28459 33
30977 33
31335 5
31552 33
33349 33
334 13
771 4
1346 13
21098 13
21215 64
27750 13
27879 13
28959 13
30896 13
32854 3
34433 13
335 36
5762 3
6637 36
13227 36
16880 36
18068 36
21669 36
22462 36
22566 5
25756 36
25856 36
27220 36
28090 20
34520 36
336 4
7244 4
13788 4
14909 4
18744 4
23169 4
24695 4
24908 4
26506 36
33400 4
33811 4
34100 4
34450 4
337 20
5660 20
8446 6
10364 20
12108 20
12648 20
14167 20
17837 20
25052 20
29075 35
31361 5
31477 20
31981 20
32704 12
32793 20
338 141
535 141
7886 141
8609 141
9250 141
12735 141
18403 4
20442 141
20751 141
21031 141
22992 141
25176 141
25512 141
27651 141
28102 141
30415 36
339 5
2096 142
6993 5
11039 5
16955 5
25025 20
26577 5
26983 5
28448 5
32039 5
33504 5
34287 5
34370 15
340 36
2693 36
12295 36
16046 36
16114 143
16597 36
23645 36
27874 36
28173 36
30603 36
32009 36
32017 36
32873 64
33359 4
33979 36
341 144
353 144
3273 144
8873 144
9216 144
9229 144
11633 144
12343 144
13008 144
14457 144
16816 144
18604 144
18842 5
19085 144
28260 136
33937 4
342 12
4737 12
11577 12
17086 12
17547 2
19066 12
28660 16
28742 12
29549 12
29602 12
29703 12
29807 35
30903 12
11040 35
19798 4
33554 27
344 14
2713 14
10075 14
15001 12
20590 14
23558 33
25264 14
28136 10
29214 14
29303 14
29624 22
29790 14
30367 14
32377 14
32637 14
345 22
1910 22
7925 24
9843 22
11768 22
19077 22
23602 22
26926 22
27655 35
27895 22
29827 22
31210 22
31489 22
31643 12
33762 22
346 12
8302 12
10235 20
10371 12
21566 12
22748 14
23023 12
24647 12
24935 12
27826 12
30713 12
32405 4
347 13
1334 134
6600 13
7839 13
7892 13
8521 13
10532 77
16469 13
17652 13
28936 30
30821 13
32431 13
33296 13
348 23
349 24
680 23
873 145
6728 23
9860 23
11334 23
15577 99
21344 23
22567 23
22812 23
27242 23
30587 23
30890 23
31619 96
681 60
4866 24
9892 24
21179 24
21425 29
21765 27
26436 24
27265 24
29246 24
32543 24
33442 24
34224 24
34360 24
350 44
5258 44
6132 44
14417 44
18580 6
19751 44
25105 44
27702 44
27907 44
28487 44
29898 49
29951 43
31875 44
32197 44
33117 44
33687 44
351 13
569 13
7181 5
11220 13
14160 13
20694 13
23555 13
27453 30
27545 13
27913 13
28357 13
32139 13
352 13
2483 13
7901 13
9264 13
10459 13
12894 13
13346 13
15003 13
20125 13
20685 13
25788 5
29904 77
30222 13
31419 26
31454 13
34507 13
1741 144
6614 30
8010 31
12039 144
14216 144
15025 144
21586 92
354 47
9495 47
12661 47
13585 47
14998 47
15889 47
18844 3
19671 47
26552 47
27062 47
29500 3
29792 52
31791 47
32070 47
33818 47
34375 4
3741 4
13617 4
15887 30
15921 8
17129 4
18521 4
18613 4
20193 4
21692 4
28146 92
28896 6
34101 4
34216 4
356 13
8078 13
9678 13
21113 93
27106 13
29986 13
30305 13
31028 13
32152 13
32961 13
33088 7
34390 13
357 27
3096 47
3360 27
4005 104
5375 20
11722 27
16979 27
19349 27
20012 27
20920 27
21934 27
24946 61
31621 27
358 20
5863 20
7587 20
13941 34
20758 20
28580 20
29829 20
31443 20
32986 20
33341 31
33511 20
3429 22
5855 22
7176 22
11995 32
12228 22
13799 22
15816 22
20847 22
21682 22
25510 20
32458 35
32515 22
33405 22
360 44
2263 20
11631 44
13120 35
13654 60
13775 44
14341 44
16937 13
17742 44
25080 44
30136 44
31238 44
33502 44
33655 44
33691 44
361 34
5726 30
8651 34
12956 34
19039 34
19141 37
20814 34
22749 34
23559 34
23578 34
25429 21
29032 23
32343 34
34285 34
362 13
1769 13
1978 13
3085 13
5505 13
11622 30
13021 13
21447 13
25729 13
25944 13
27935 12
28802 13
34490 15
363 1
3819 1
9411 7
20662 92
21157 1
24876 1
32528 1
33361 1
364 5
3999 26
5676 5
11609 5
12972 5
14979 15
17567 22
21944 5
22235 5
28220 5
28381 5
32411 5
32699 5
32728 5
33377 5
365 121
447 121
6627 121
6654 5
10290 4
11375 121
12306 146
15044 121
18632 7
21459 121
22949 121
25299 121
30175 121
31190 121
31792 121
33189 121
366 124
1109 124
5931 124
10402 4
12290 124
12560 124
18263 124
20801 29
21592 124
23902 124
27475 124
28793 124
29404 124
30459 124
31759 124
32141 30
22282 116
26671 116
28322 116
30198 116
31263 116
31538 116
31599 116
32129 116
32532 116
32632 116
32638 116
32869 4
33109 116
368 5
4300 5
6880 5
13129 4
13561 5
14904 5
15978 5
16343 5
19740 5
21551 5
24847 5
27779 5
28739 5
28987 5
29993 30
369 113
8563 22
9655 113
14194 113
15193 113
16515 113
19057 113
19862 113
21104 113
24922 113
25393 113
26049 113
26339 113
28505 113
29642 5
33144 113
33933 16
370 142
1832 142
2632 142
4590 142
5609 142
6812 142
11720 142
12901 142
13770 142
13776 142
14755 27
15854 142
16616 142
17510 142
32730 3
371 43
5571 43
7852 43
8113 99
8576 43
12332 43
16399 43
20304 34
20623 43
23019 43
28106 43
34268 23
34308 43
372 20
5942 18
8871 5
17940 20
18086 20
21620 20
23202 20
24129 20
28894 20
30061 20
30074 20
32276 20
32287 20
33556 20
33651 12
34447 92
373 96
1427 96
3151 96
11268 96
12172 96
15740 12
24147 96
24920 26
28379 96
30169 96
30613 96
33054 96
33641 96
33959 96
33981 96
374 137
3605 137
3906 23
5094 137
8780 5
10673 4
13907 137
14958 137
23620 137
28239 137
28728 137
28814 137
31343 137
31438 137
31915 137
31939 137
375 23
399 23
6098 23
10618 23
12951 23
17834 34
27302 35
27339 131
28052 23
30458 23
30773 23
32566 4
34089 23
34373 23
34537 23
376 22
1258 22
7151 22
17201 22
22985 22
23270 18
23814 22
23898 22
24539 22
24748 22
28398 22
32389 32
32812 31
377 124
2995 124
3918 124
9717 5
10302 124
11598 10
12370 124
13347 92
16902 124
23905 124
24171 124
30881 124
32037 62
378 34
4380 34
13675 34
15562 34
17028 34
18110 34
18314 16
21257 34
23284 34
24863 34
29175 34
32821 5
33874 34
7592 4
9459 5
10208 4
13128 4
16217 31
19947 4
22048 4
24411 4
26409 4
29195 4
29535 140
31501 4
33661 4
380 47
425 31
4822 47
6245 13
8613 10
16661 47
18345 47
22158 47
22418 47
23544 47
26323 47
27971 47
32555 47
381 92
1323 92
3773 92
6359 92
7762 10
16410 140
18609 92
19032 92
20664 92
25242 92
25536 92
26720 92
28499 15
30668 92
33178 92
33373 92
382 22
6199 22
8699 22
14995 10
19400 22
20232 22
22782 22
24416 22
26651 13
26676 22
29088 44
32155 22
32299 22
32863 22
32969 6
383 69
546 38
9576 69
12132 69
15674 69
15778 69
16317 69
18937 69
20315 4
20356 69
22225 69
23228 69
24603 69
26435 69
28293 69
30194 69
384 36
2507 36
4032 36
5517 43
8473 36
18876 30
18965 36
19588 36
25613 36
26789 83
30083 36
34109 36
5098 83
26539 3
34018 4
8564 32
14726 32
18243 32
20066 4
23903 32
25254 32
26355 32
29066 32
32689 32
33191 32
33211 32
33376 36
387 6
3291 6
4540 147
6841 6
17079 6
17796 6
19229 6
22105 6
25858 6
28063 6
33451 6
388 148
1199 148
2384 148
2977 148
4893 148
5411 148
5678 148
9581 148
10888 148
12666 148
12690 148
13932 148
14345 148
14500 148
22086 8
28286 5
31458 12
389 132
4409 132
5407 132
11839 24
14104 132
14151 132
17661 132
19596 132
22424 132
22788 92
22836 132
27946 132
30311 5
31780 132
31855 4
33184 132
390 35
5832 35
7190 35
8359 35
10250 35
15341 35
16311 34
16915 35
17170 47
18133 34
21284 35
23172 18
25397 35
25960 35
30223 35
30686 35
391 43
4129 43
7075 30
8384 43
8486 43
12145 43
22649 43
25263 12
26960 43
29795 43
30174 43
31239 43
392 87
3446 87
13132 87
18669 87
19052 87
20908 12
23531 87
26379 20
27865 87
32807 87
33279 87
393 23
1020 23
14910 23
15412 23
16408 23
16644 23
19806 30
22078 23
24117 23
26337 23
27081 23
28133 23
33222 47
9130 3
14714 31
16786 4
17663 4
18693 4
23247 4
23965 4
26165 4
26328 4
27031 92
27260 4
28070 4
30265 4
34255 4
395 12
14694 12
15614 12
17692 34
24740 12
25341 12
29131 12
29761 12
31346 12
31789 12
31932 12
33630 12
33828 99
396 27
580 27
13945 27
15911 27
16634 27
24294 27
27506 27
27981 121
28885 27
30669 27
31111 33
31508 15
33248 16
33557 27
34194 27
397 4
4993 4
8055 4
9019 13
9661 4
11476 4
23611 4
26398 4
29145 149
29376 4
29523 4
31499 12
33048 4
33777 4
34177 4
398 12
1223 12
2771 12
3734 12
6687 12
8407 12
15576 12
16749 12
17041 12
19577 12
19613 12
29457 4
31578 12
32322 12
1902 5
7333 15
13906 23
14334 23
21341 23
22067 14
26453 23
28732 23
28840 23
31296 23
33171 23
33492 23
400 150
1661 150
9058 150
11208 150
13388 150
13950 150
15304 5
15421 150
16095 150
17314 150
17424 43
17623 150
19670 150
20709 150
22875 150
23020 150
401 4
2652 4
16934 4
18432 4
22708 143
23621 4
25660 12
25862 4
26667 12
32329 4
32527 4
33015 4
33602 4
33663 4
33674 6
33701 4
402 12
6395 12
7429 12
9839 12
10561 12
12026 12
20484 12
22108 35
23421 12
24064 13
32269 12
33796 12
403 4
4861 4
8058 4
12333 4
13076 117
15923 4
19257 3
19675 38
19856 4
21691 4
23493 38
23953 4
32708 4
4347 13
5647 13
9359 13
12283 13
14913 20
19816 13
20327 13
22163 117
24833 13
31251 34
31838 13
33301 13
34195 13
405 92
516 92
784 92
2318 92
10506 151
13111 92
20019 92
22101 92
24225 92
25089 128
30315 92
33395 92
406 35
2703 35
9720 35
10369 35
13485 35
13870 35
15880 35
23159 22
28344 35
29562 31
32318 35
32593 35
7130 37
13522 92
14314 77
16797 77
19279 77
21967 77
25177 77
25714 77
27088 77
29257 77
30043 77
31608 77
32647 77
32991 77
408 5
2794 7
7199 30
11108 5
11689 47
11779 5
17548 5
22652 5
28307 5
30544 5
31250 5
409 92
3655 92
4783 92
15073 21
18863 107
20547 92
23908 92
25555 92
27009 92
27342 92
29182 92
29692 92
30578 92
33569 92
12657 22
16101 5
24588 27
411 117
2538 117
3326 117
6322 117
7616 117
8586 117
10029 117
15464 71
16666 36
18646 117
18701 117
22732 117
23442 117
26095 20
27178 117
30609 117
412 12
5405 12
8489 12
13037 16
13386 92
14184 12
18865 10
20883 12
25216 12
26971 12
28464 12
30874 12
31920 12
32362 12
413 105
2244 3
5231 105
8816 105
12251 105
14435 105
15375 105
16725 24
17445 105
22925 31
23199 105
29923 105
32067 105
414 93
8395 36
11075 35
12169 93
14818 93
16652 93
19242 93
20900 93
22442 93
24952 93
26291 93
27700 93
30619 93
415 10
2776 10
4901 10
7440 24
13692 10
15071 10
16565 10
18482 10
21468 10
21517 10
26277 10
28152 12
30416 10
33148 16
34445 10
416 38
2955 38
2966 38
4406 38
11229 38
13516 38
25047 5
25537 38
26363 4
26956 38
27003 38
27757 38
29521 23
30625 38
32611 38
417 36
6694 36
16591 36
18191 36
18751 36
23221 36
23819 36
25008 36
25923 36
27909 36
31135 12
32994 36
33274 36
34147 36
418 27
2245 27
4722 27
7508 27
16952 132
17973 2
20329 27
21898 27
25833 27
26837 27
28025 27
33010 27
34512 27
419 37
3662 37
4227 37
10418 37
11659 37
16747 37
20979 37
21570 37
22691 34
24643 37
27372 38
32089 21
33855 37
34509 4
420 5
2290 5
2560 5
16333 5
16665 5
16962 5
19049 5
20944 22
27502 5
27989 5
28556 31
29081 5
29338 5
30540 4
32792 5
421 8
1063 8
2319 8
4306 8
7397 8
12449 8
18900 8
22499 13
26991 8
29008 12
31769 8
31802 47
32335 37
33091 8
33488 8
34385 8
422 30
1422 30
1920 30
2387 30
2832 30
17541 30
17957 30
18794 30
18861 3
22877 30
27715 13
31598 7
32581 30
34414 30
34453 30
423 13
7757 13
11233 13
12505 13
14395 81
17468 13
19689 13
22324 13
23322 13
27763 13
28981 13
34333 22
4836 27
5947 27
6864 27
12153 27
20084 12
21807 27
26901 27
27661 27
33168 27
34151 10
34165 27
7518 31
8030 31
9823 13
10404 5
10846 31
16125 31
16917 31
18992 31
20139 31
21441 31
24503 134
26739 31
31080 31
31283 31
33037 31
426 47
757 30
8541 47
9809 47
12739 47
17171 47
17493 47
22950 47
23298 47
27371 47
29609 113
30975 47
32382 47
33112 12
34336 47
427 92
3652 92
8567 4
12538 92
14253 92
20149 92
27486 92
27809 92
28125 92
29732 92
31433 15
32876 10
33572 92
33983 92
428 3
3815 3
4398 3
11672 3
13198 3
16596 33
17594 43
21382 3
23264 3
25701 3
27570 3
32636 3
429 4
7290 4
7470 29
13971 4
15625 30
18378 22
23193 4
26763 4
27295 4
27639 4
28663 4
29687 4
29720 43
32752 4
34071 4
430 94
3833 94
8622 94
9813 94
10607 94
16318 94
17416 94
20343 94
21376 94
22611 94
23523 94
23711 94
23730 94
31487 6
32568 35
431 34
11619 34
12799 21
13889 34
19053 34
19599 34
21658 34
23896 34
24076 88
24570 5
27141 34
31529 34
31699 34
32760 34
33795 34
7109 18
8767 64
12198 64
14385 64
18064 87
26087 64
30444 64
32169 64
33449 64
433 110
563 12
724 110
2637 110
3424 110
6202 110
9092 110
15714 110
18629 110
23517 110
24402 110
25794 32
26383 110
26586 110
27987 110
28566 110
33692 16
434 15
4515 15
5755 3
8306 15
8756 15
11389 15
19297 22
22724 15
22905 21
27162 15
28246 15
29810 15
30417 15
31722 15
33298 15
435 5
2357 5
7193 5
7636 5
8054 30
9420 5
13401 30
14519 5
14707 5
20829 5
23777 14
27483 35
30309 5
30670 5
555 90
10788 90
15814 90
26880 152
28157 22
33002 27
437 30
7756 30
18177 30
18617 30
20420 30
23128 12
23515 47
29501 30
30741 30
32194 22
32400 30
438 20
859 20
1937 20
6516 20
7600 20
12027 4
12883 20
13704 13
13872 20
17010 20
23599 20
26854 20
27535 7
27828 20
28089 20
31327 20
439 6
7007 5
17234 6
18373 6
21233 6
25710 6
28796 6
31039 6
33188 6
33520 6
34462 22
2229 34
5668 34
6491 34
14815 81
18272 34
19703 5
21473 34
26479 34
28144 34
32428 34
33250 34
34250 34
34398 34
441 31
2019 4
6061 31
6299 31
8040 31
15088 31
15803 31
22772 12
25206 31
29085 31
30623 31
32828 21
33221 31
33841 43
442 31
6277 31
7561 38
16161 31
16404 5
21642 31
24238 14
24356 31
27377 12
28576 31
31519 31
32395 31
33125 31
34431 31
443 4
4973 4
7170 10
11665 4
11919 4
13888 4
19005 5
27505 4
28169 4
28856 4
29477 4
29714 4
30297 4
31553 30
2631 35
7574 35
11287 35
19512 10
21984 35
22006 35
23940 35
28334 35
30337 35
32950 35
33984 35
445 13
2457 13
2605 13
7620 13
10549 13
12182 13
12187 31
15962 13
22598 13
24725 13
29026 13
30469 13
33352 13
446 15
7485 15
8761 15
14996 5
15066 15
16171 15
17196 15
21687 15
22064 15
22735 15
27847 15
29005 15
31139 18
33547 15
34143 15
2811 121
8944 121
13852 10
16045 3
17168 121
29400 121
31651 121
32469 31
33716 121
448 43
6593 61
7436 43
11907 43
14877 43
16400 43
18471 43
19799 43
20349 16
27064 43
31269 43
34315 30
34316 43
449 5
5879 5
6754 5
6951 5
8215 4
14258 43
15391 43
20238 5
28837 5
28929 5
31730 5
32235 5
34059 5
7849 35
29594 4
30560 36
33431 13
451 54
3306 54
4206 54
11078 54
12841 54
17374 54
19101 54
19672 54
26228 54
27873 6
29129 15
29130 54
30205 54
31010 54
32247 54
33172 54
452 45
4845 13
5402 5
12338 45
13661 45
453 16
4010 23
9847 16
15334 16
16394 16
19946 16
25962 35
26862 12
27246 16
32618 16
33889 20
34107 16
3169 18
5813 18
17193 34
17402 18
18327 18
19099 18
23275 2
23826 18
26758 18
27972 18
28573 18
29391 18
29748 18
32775 18
455 37
988 61
4782 37
14100 37
17211 10
18143 37
19111 37
22972 10
25070 37
25912 37
29200 37
29322 37
30204 37
32690 37
456 31
640 4
3513 10
5508 31
13325 31
16195 10
20026 31
21910 31
22286 31
24194 31
30254 31
32078 31
32694 31
33389 31
33450 31
457 43
8003 43
10048 43
14188 43
14540 43
17830 43
18221 43
21724 35
22144 43
26127 43
28659 36
29812 34
458 3
758 3
1634 3
4402 3
7004 3
7432 10
12367 3
19446 3
23634 3
24049 3
31258 128
31908 3
33290 3
684 10
24224 92
33183 18
34498 5
460 23
3016 23
3295 22
10655 23
16439 21
17368 23
17783 23
19477 128
20622 23
27345 22
31191 23
31264 23
32799 23
33566 23
33956 23
461 13
3315 13
7835 20
10511 13
14870 13
20269 13
20708 13
21653 13
21702 13
24989 13
28555 13
28607 13
29716 13
30618 35
31355 12
462 22
3913 22
6787 22
13761 27
16354 22
17152 22
17213 35
21839 22
22093 22
24822 22
26140 22
28050 22
32621 61
33228 22
33772 22
34218 22
34530 22
10115 31
10505 31
12300 13
14041 31
14223 47
14458 31
17184 31
18088 31
24247 4
27952 37
33780 31
464 43
3722 36
3885 92
5071 43
7055 43
20099 43
22548 43
24623 43
29157 43
30320 43
30495 43
30914 43
34238 43
1907 13
10110 13
23434 33
26645 12
466 92
2254 92
4631 72
8882 92
8910 92
11573 13
13063 92
19311 92
26403 92
27568 92
27600 92
27711 92
31404 92
33573 92
467 31
6106 31
11934 31
12215 10
17121 31
18837 31
22199 31
23769 31
24308 20
24519 31
25195 23
26443 31
28054 31
28761 31
468 22
908 22
2216 22
2395 22
5451 22
8069 22
11951 18
13793 22
14144 22
26202 22
28405 13
28596 13
31278 22
31463 22
33052 74
33770 22
469 22
7829 22
11022 22
13150 22
16335 22
18785 35
20248 22
20973 22
21633 22
21707 22
32567 22
33478 96
34188 22
34297 22
470 27
1981 27
2156 27
7187 27
10466 27
11818 27
12517 27
12558 27
13455 34
14978 27
27707 27
29266 4
29588 27
30501 27
33089 4
34145 27
3665 20
5055 20
13673 22
16843 20
17708 20
18556 20
20992 12
21699 22
26356 20
29780 47
33192 20
472 4
5157 4
10082 30
13142 4
18039 4
19153 4
21427 4
23763 4
24435 4
27239 4
32523 4
34061 83
473 37
509 37
5834 37
7874 37
11651 37
12393 37
18407 37
26080 37
26139 15
26418 33
27842 37
474 4
3308 4
5617 4
14610 5
14670 4
16023 4
18112 4
18649 56
19148 4
19882 92
21698 4
27940 4
475 13
1636 13
7033 13
9711 13
9880 13
11546 12
18772 13
20067 13
25475 13
28830 13
33845 13
34062 14
476 4
5907 4
8629 4
8853 4
20711 4
21442 4
21710 98
22954 4
27191 4
27533 22
30263 4
31844 4
32488 4
33806 4
34510 38
477 36
10660 36
14252 36
15557 36
15623 36
25827 20
29103 131
31013 36
31068 36
32836 36
478 108
1040 108
8115 108
17412 108
18195 108
18727 91
18971 108
19873 30
20647 108
29137 87
32038 108
32605 108
479 43
2053 4
2085 4
11004 43
13688 43
16860 43
24747 43
29228 43
29956 43
32738 43
33684 43
33779 43
5005 34
6598 98
18089 18
23653 12
481 47
1416 47
3751 5
7122 47
12480 47
12673 35
14853 47
17749 47
21144 47
23484 47
30677 47
31813 47
32180 47
32447 47
33289 30
482 26
4111 26
4907 26
6092 152
8328 26
13913 26
15804 26
16273 22
19295 26
20308 26
21131 49
29162 26
29704 26
30439 26
33786 26
34141 26
34508 26
483 139
1008 34
6750 139
9037 34
9146 139
10817 139
12628 139
15405 139
17149 139
21374 4
484 4
7192 52
7950 4
9637 4
9792 4
19847 4
27285 4
29347 15
30961 4
31929 4
32899 4
32948 4
33735 4
485 3
2587 4
4076 3
6538 3
13399 3
25124 3
30693 3
31663 30
32383 3
33160 3
33438 32
34458 3
486 34
3181 34
5113 64
9644 4
13962 34
15294 34
16199 34
16445 34
20052 34
21863 34
26543 30
28349 34
31473 34
32347 34
32536 34
34387 34
487 92
3319 92
5116 92
10308 92
20188 92
22350 92
22906 99
25456 92
26292 92
26504 92
29318 13
32732 92
32949 92
33763 92
33902 47
488 20
4255 20
11602 20
13373 20
15665 20
15755 20
22205 13
22545 20
32947 20
33643 20
33752 27
489 10
2287 10
5192 10
8751 16
11181 10
16327 10
17627 10
19427 135
19841 10
22292 16
23276 10
27431 10
490 22
903 22
4681 22
7229 22
10179 22
16865 22
22190 22
26788 22
27522 22
27577 36
28752 22
31465 43
32794 22
33062 22
34164 35
491 5
1500 5
8744 5
10906 5
24721 23
25460 5
32999 5
33493 5
33683 5
34118 5
34409 5
492 31
5646 31
6638 31
8162 31
10358 31
14597 10
14794 31
15858 14
16176 31
19730 31
22626 31
30622 31
34034 31
493 20
11430 5
13029 20
17202 13
21171 20
28794 20
30565 20
30853 20
494 153
559 153
4899 153
6530 153
7869 153
8495 153
8848 153
11654 153
14863 153
16029 29
16837 153
17405 153
21174 153
21240 153
24585 34
28898 16
495 22
2079 22
7859 10
9183 22
18437 22
26419 22
27462 22
27481 47
28870 22
29907 26
32126 22
33407 22
33424 22
33758 22
34523 22
496 3
2130 23
4080 51
4827 3
6244 3
9446 3
21619 3
22637 16
26244 3
30292 3
30708 3
30726 3
30979 3
31340 3
32691 3
497 35
2964 35
4570 35
10559 35
12155 35
14505 34
16136 4
20231 35
28352 43
29639 35
32051 35
498 36
1504 36
9955 36
11158 36
21744 36
23162 5
24227 12
28135 36
31165 36
499 92
799 5
12048 92
13876 92
13958 92
16203 92
20919 92
24550 92
25519 13
25561 92
29542 61
29593 92
31912 92
32737 92
500 12
2777 12
8951 12
12637 12
13207 12
23640 12
23792 12
24206 12
25955 12
28248 12
31870 23
31911 92
32906 12
34262 12
501 92
836 92
4029 92
7942 3
12840 92
13749 92
20810 34
22080 92
26068 61
28148 92
32333 92
32702 92
33521 92
33732 92
1335 102
4710 30
13256 30
18439 30
19182 26
20716 20
22331 30
23966 5
29001 30
33333 30
503 112
1885 112
8522 112
14496 36
15414 112
18901 12
19750 112
22230 112
25181 112
25733 112
26406 112
29122 112
30028 112
30775 112
31886 112
32104 23
32750 112
504 113
3646 36
3923 113
3951 113
5766 113
6572 113
7195 113
8876 113
12531 113
15832 113
22129 113
26460 113
27607 22
29875 113
32595 113
505 4
557 22
1485 4
2880 4
9838 4
18773 4
22861 4
25378 13
26430 4
28018 4
28204 4
28799 83
506 20
4568 20
6774 20
13973 20
15901 20
16509 18
17655 20
18948 20
20341 12
22520 20
27126 20
28513 20
30248 10
31829 20
33973 20
507 24
3599 24
5287 24
5423 43
6296 22
11798 61
12702 24
24751 24
28218 24
33486 24
34069 12
6312 35
10953 35
11274 35
12456 43
17487 13
21630 35
23704 35
29442 35
32741 3
33843 35
34053 35
2218 37
10530 37
12768 37
15404 37
16909 37
17575 37
18583 36
24515 37
25152 37
31158 92
33631 7
510 12
930 61
1447 12
6191 12
7729 12
12549 12
18058 4
18641 12
22137 12
23521 12
28979 12
30185 12
32934 12
33365 12
733 16
15403 16
16149 16
16824 16
17163 16
17787 16
20749 16
26279 16
27061 16
27709 16
27929 10
30434 16
33593 16
34247 16
512 5
4367 5
5414 5
5698 5
9121 108
10281 24
10400 38
11276 5
12229 5
22814 5
24679 5
25406 5
26628 5
29489 5
30782 5
513 92
997 92
3082 92
7648 92
8791 10
10488 13
10617 92
14715 92
17505 92
17713 92
21923 4
22471 92
24757 92
25066 4
29575 92
33463 92
1762 10
10138 110
19397 10
20144 43
21935 10
24612 10
27140 10
28207 10
28538 12
30957 10
32553 10
2895 38
6506 18
9679 101
14082 18
17551 18
20297 18
21004 18
24789 12
26200 18
28973 18
29465 18
1966 92
2277 73
6198 92
8009 92
15566 92
17739 92
23698 92
27053 92
31432 92
32352 92
517 29
2640 29
15649 29
15771 29
16628 29
19918 22
20351 29
28059 29
30763 29
31370 6
31656 29
32962 29
34282 29
34355 29
34475 29
518 74
842 74
8167 74
14970 74
18626 74
19280 74
21901 74
24850 74
25902 36
27900 20
30196 74
31441 74
31954 74
33355 74
519 30
7834 30
8047 30
9126 30
9996 30
13934 13
16686 36
17793 30
18986 30
26378 30
28017 30
28384 77
29252 30
32054 30
34225 30
520 13
6796 67
8401 13
13912 13
17720 13
20424 13
20568 13
24755 13
27413 13
28016 13
28123 12
28956 13
31321 13
521 22
1947 154
6762 23
8197 22
12271 22
19080 31
21856 22
23400 22
27962 22
29470 22
29647 22
31714 22
33307 22
34065 22
522 23
2363 23
4382 23
8542 23
8852 23
9896 23
10688 6
12685 23
16538 23
19604 33
23078 13
26463 23
30816 23
31394 23
33929 128
523 12
4546 13
5501 12
16118 12
19899 12
21869 4
24609 12
27391 12
28815 12
30523 12
32330 12
524 13
1700 13
4624 13
5068 13
9628 92
10903 37
11858 13
29707 13
30005 20
31993 13
32286 12
33421 13
34220 13
525 15
5453 15
5956 15
6714 15
10096 15
13604 15
20702 37
20917 15
24531 96
27986 15
28955 15
33682 15
33695 15
4870 30
6836 5
14275 2
19412 3
22726 5
23652 5
24688 5
30505 5
33595 5
33787 5
527 36
2087 15
3168 36
6935 36
7632 36
12262 36
15826 36
17466 6
22196 36
28442 36
31348 5
31716 36
32665 36
33775 36
528 10
848 10
6536 42
7549 10
12124 10
14003 10
14984 38
16021 10
16486 155
21907 10
25535 10
33212 10
34307 10
529 143
2481 143
5688 143
8378 143
8927 143
15981 143
16855 143
18956 143
19175 143
22311 30
22919 34
24253 143
25558 143
26133 143
530 22
2402 36
7222 22
9199 22
11938 22
13326 20
13630 22
14115 22
22577 22
23040 22
31006 4
31063 22
34357 22
34492 22
531 10
1554 5
3381 10
5510 10
13463 10
15597 12
20213 10
20235 10
25032 10
26335 12
34272 10
7383 68
8736 18
9035 90
16244 90
33210 15
533 20
1571 5
2503 20
9718 20
14293 23
16393 20
18434 20
27309 20
29853 20
30702 20
32772 20
32971 5
4290 4
21465 13
6658 141
9167 141
18364 141
18411 141
25097 13
30252 61
30316 141
536 34
2348 34
3029 34
6950 34
19870 34
21818 4
22827 34
29124 34
29462 34
33878 34
33897 34
558 127
2201 127
8035 8
8992 4
11901 127
26064 13
33348 10
4360 13
8142 13
9230 10
9380 86
13454 10
13536 4
16519 10
17776 10
18967 10
24141 10
32715 10
539 111
9293 111
10051 111
12811 111
14847 111
15823 111
16405 111
17379 111
19769 111
22291 5
22958 111
24901 111
27015 111
27500 12
7208 5
7973 5
10845 22
13337 5
16535 5
21852 5
22229 5
29468 5
30202 4
31475 5
541 16
7135 16
11745 16
13414 16
18740 16
21789 107
23293 16
25711 16
27040 16
27765 12
30799 26
32714 16
542 34
883 43
6606 34
12586 34
14301 18
16517 34
17472 34
25307 34
25679 34
29187 34
29574 34
33873 34
543 1
6480 1
6642 1
8678 1
15835 5
17092 15
17395 1
28233 1
30137 27
30239 1
544 10
15442 12
24367 10
24854 10
25776 3
27816 10
28597 22
31252 10
31332 10
32185 10
33136 10
545 74
3409 74
8801 156
9464 5
10483 74
13664 74
15399 74
16388 74
16544 74
16588 74
18636 74
25499 74
28734 20
29893 74
30323 74
31558 74
1617 38
2975 38
4370 38
11289 38
12208 38
13303 38
13668 38
15914 30
19860 38
21543 38
30312 38
32697 38
34111 38
18628 16
19154 22
29263 16
548 5
6615 5
7396 5
11679 5
14718 43
15834 5
18549 5
19113 27
21736 27
22792 5
27686 5
30949 5
32576 30
549 22
7204 22
7537 22
11013 22
17707 22
19345 22
24151 10
25683 22
26756 37
27148 22
27593 7
27998 22
31427 22
31849 43
550 35
9415 35
9706 35
11275 35
11803 35
14672 29
25496 35
33328 35
34418 23
551 8
2243 8
3459 10
8398 10
20224 8
25402 8
28046 20
29290 8
29427 8
29563 8
29757 8
30186 8
30843 8
34428 8
4012 46
10805 46
12608 46
23140 83
553 30
3394 30
7939 30
9294 30
10585 27
13176 30
13508 30
15011 30
16071 30
17231 30
18810 30
31498 30
33970 30
554 13
1310 13
12245 13
12921 13
14261 4
22333 13
23103 13
23693 13
26950 13
26975 22
28862 13
29286 13
34504 13
25182 5
556 4
5332 4
5667 4
8234 4
8949 4
9364 4
13783 4
28005 4
31976 4
34274 4
3984 22
10231 22
14239 22
18163 15
21931 22
23527 22
31612 22
32834 22
34344 22
15632 99
29924 128
30374 5
12001 153
15321 153
18996 3
24486 5
34432 30
560 43
1944 96
5302 43
12727 43
16179 43
19272 44
21433 12
22272 43
22857 7
23087 43
26636 43
27097 43
34367 43
561 5
3852 5
3886 5
5442 5
6043 5
7651 5
9506 4
10779 5
12376 5
13512 71
19913 5
27531 5
30575 5
30701 4
31376 5
32851 5
562 109
9877 109
14947 12
17397 109
18826 13
18866 109
19755 109
23256 109
23983 109
24571 109
27263 109
29219 109
29293 109
33223 31
33613 2
1396 2
12232 12
13818 12
17664 12
21078 12
22356 12
28892 12
30215 10
31295 12
33519 12
564 12
3189 12
6626 12
10806 12
13389 12
14575 12
21173 12
21836 12
21941 30
27079 12
34511 12
565 35
2478 35
8174 4
11286 108
15493 35
19735 35
20160 35
21046 35
21086 12
29118 35
30224 35
30319 35
32803 35
32951 35
34039 31
566 13
5567 5
13990 13
14779 13
15907 57
23554 13
26195 13
27219 83
31559 13
32747 13
33324 13
567 34
9232 34
9518 34
10434 87
13102 34
13521 34
14413 34
14796 13
18833 34
23906 34
26637 34
29226 34
29906 34
31843 34
31864 34
32802 37
568 32
3526 32
12599 16
13841 32
18718 32
20048 32
26738 4
26813 32
27470 32
29377 12
31398 32
32633 32
33139 32
33698 12
34379 32
1045 13
2512 13
3583 4
3921 13
16012 13
16841 13
17020 13
18582 13
24664 38
29662 13
30796 13
570 27
7535 27
9347 27
10999 4
11932 13
17361 27
17388 27
18077 27
19961 27
23446 20
29151 27
31660 27
571 38
5844 38
7031 38
7584 38
10580 38
11906 38
12717 22
15096 38
19114 38
23070 38
23491 38
23557 33
29731 38
33368 38
572 10
760 10
8733 10
12969 10
13844 4
15184 10
15692 27
15758 10
18372 10
18510 10
19611 10
27049 10
31009 15
33271 10
34021 4
573 3
1534 3
5958 61
7856 3
12014 3
13715 3
13836 3
17082 3
20331 3
23461 7
25285 3
27849 60
28062 4
31670 3
32591 3
574 34
1742 34
3506 1
5841 34
10765 34
12491 34
14464 34
19347 34
22174 30
25811 34
27280 34
29900 34
32908 34
575 27
6397 27
6945 27
7528 77
7679 12
8502 27
13163 27
17701 27
21764 27
26438 27
28591 5
30093 27
30273 31
30831 27
33618 27
33952 27
576 109
10668 109
11806 109
12567 109
12873 109
17299 5
18770 36
21470 109
577 13
1147 68
1696 13
5381 13
6922 13
7073 13
8822 10
11393 13
15977 61
18867 13
24240 13
30140 13
31183 4
32525 13
34317 13
578 4
1706 4
4526 4
4906 4
9266 4
11582 4
23329 20
26376 4
29981 4
31938 4
579 5
1916 5
3567 5
5590 26
7198 5
17843 5
18216 5
20337 5
21650 5
23844 5
24947 60
27359 5
33664 61
773 27
1028 27
1587 27
1638 27
6801 27
17778 27
19754 12
20598 30
24066 22
31545 27
31664 27
31834 27
581 5
3897 5
8901 5
18238 30
18406 12
21878 5
23167 5
24029 12
25495 5
29484 131
29644 5
29903 5
31891 5
33080 5
33986 5
582 4
7070 4
9545 4
9878 4
10954 4
15237 4
24970 4
25549 4
27425 4
29653 32
583 47
2233 47
3731 92
4775 30
6423 47
6633 47
7868 47
9650 47
11009 47
12793 47
13999 47
28167 47
30579 47
32205 47
34024 47
20582 4
20824 4
21905 4
25533 4
25927 10
28206 4
29722 4
30070 5
30841 4
30876 4
32727 4
33024 4
585 30
1113 30
1546 30
2227 30
3109 30
15352 12
15356 30
18060 30
19541 30
21057 30
21814 4
25439 30
30647 16
31018 29
586 26
4431 26
4678 26
10172 26
10764 26
11301 26
11379 26
15802 26
18014 26
22133 26
24711 26
26184 26
28038 5
32471 34
587 83
1767 83
3138 4
9073 83
9478 83
12694 13
18270 83
21989 83
23874 83
27617 22
32521 83
32925 10
33093 83
33180 83
33620 83
33799 83
34408 83
588 12
2723 12
5730 12
11616 12
15007 12
18814 12
21877 12
22032 12
23155 12
25092 12
26117 12
26551 12
26700 12
589 108
3958 108
5954 13
7482 108
8293 108
16160 108
16540 108
16744 108
18625 108
27035 13
27632 108
590 10
2549 10
3529 10
14989 10
15793 10
16436 10
17435 10
18738 10
26553 30
27299 10
33003 10
34242 34
591 20
1727 20
5350 20
17921 20
22760 157
24906 20
28716 20
29474 20
30164 20
32033 20
34392 20
1372 13
9744 13
13034 53
15367 13
15514 6
20666 13
20731 13
22461 13
27036 13
29111 13
30176 13
32032 13
593 61
2885 61
7242 61
7802 61
9356 61
14319 61
16116 61
23465 61
25448 61
28656 61
29025 61
29447 34
32966 61
33461 61
33587 61
594 143
2993 143
6756 22
7451 14
15282 143
16163 143
16425 47
20162 2
26961 143
595 5
14705 5
18479 5
20988 5
21269 5
23327 48
27819 43
30147 5
31940 30
33694 5
596 4
4514 4
13027 4
14941 4
16123 4
16433 34
18474 4
19218 34
20521 4
23929 4
25320 4
29250 4
597 47
4735 47
5084 47
6124 47
9795 47
17659 47
21134 47
23506 47
26416 47
31921 47
31977 13
32442 5
598 42
1502 42
5085 42
5144 42
5861 42
9051 42
11035 42
12868 42
14361 42
16083 42
16954 42
18695 42
20905 13
23071 4
599 47
3488 12
10966 68
12624 47
19723 47
19993 47
20613 47
20739 3
21648 47
24991 47
29233 47
33727 47
600 7
1211 7
3867 32
10494 7
12530 7
17251 4
18440 7
20024 7
21507 7
22452 4
24365 7
26537 7
27539 7
30551 7
31030 7
34172 7
601 79
3629 79
3877 15
7196 79
11223 79
13266 79
13483 79
26641 79
29852 5
602 34
5270 62
7556 10
9108 34
15976 34
17538 33
18651 34
19661 34
20736 34
20791 34
22829 117
23080 34
25853 34
28094 34
28890 34
6594 61
29077 10
604 158
9432 158
9974 158
11850 158
12428 5
13010 158
14370 158
14673 158
19406 158
25373 158
26318 158
26638 158
26856 158
28253 158
29406 22
34127 5
605 12
1560 12
5441 12
5598 12
15186 12
16420 12
18969 12
19704 12
24430 12
27296 12
27719 12
27925 12
31630 12
33108 5
1999 4
4633 4
4786 4
11146 4
12386 4
13948 47
21259 4
24596 4
26593 4
30407 4
32320 4
32958 29
33197 16
34186 4
607 5
9647 5
13982 5
14147 5
18754 5
24784 5
27426 12
27908 5
28371 5
30062 131
32823 5
33465 4
608 7
2815 43
3419 7
3824 7
5330 4
8184 7
26423 7
26564 7
27626 7
33954 7
609 47
5253 47
6367 47
8912 47
12128 47
21622 47
24681 47
25581 5
26441 5
27676 47
28407 47
30996 102
31821 47
610 13
3758 13
11783 13
18343 13
20857 13
22449 13
22824 13
24786 22
27180 13
30286 59
30699 35
31795 13
33813 13
33935 13
611 5
2854 5
3129 5
4452 12
4475 5
7197 5
10685 60
12037 5
16466 5
16846 5
25132 5
33967 21
34050 5
34384 5
5428 3
9825 3
10066 47
16112 18
16449 3
20859 3
24587 3
28429 3
30901 3
31214 3
613 4
10507 4
13391 4
13827 5
25687 4
26270 4
26352 4
28768 4
29492 3
31523 4
32516 31
32586 4
34110 4
34136 4
34159 4
614 15
1665 15
3237 15
13328 15
15111 15
22227 15
23227 15
24572 15
25866 15
28554 27
29752 15
30033 22
32562 15
34213 15
615 29
4493 29
5149 13
6038 60
10446 29
11124 29
11899 29
19370 29
30232 29
30375 29
31177 13
31723 29
33074 99
616 35
2390 35
10717 35
15359 35
16307 35
18214 35
19344 35
27764 7
29633 35
30737 35
32024 35
33854 35
617 34
5774 31
7095 34
13458 12
14241 34
17763 34
18494 34
26359 34
27630 34
32513 34
618 6
2867 26
4203 6
10884 6
16094 6
20823 6
23187 6
26237 6
26613 6
27737 6
32239 22
32308 6
34235 6
619 22
4595 22
6335 22
8703 22
9466 22
10722 22
18227 35
19415 22
19521 22
25438 5
33679 32
33731 22
34106 22
620 3
4991 3
8861 3
8895 12
11263 3
14740 3
15795 3
16803 3
22113 3
22771 3
23466 4
29657 4
621 60
2992 60
3503 64
7883 60
9182 60
10191 60
10517 60
16601 60
19939 60
21331 60
25223 60
25784 60
28026 60
28932 60
33713 60
622 20
6340 20
10054 5
13834 20
14033 5
18161 20
19549 36
22341 20
28914 20
29057 20
31721 20
32996 20
33099 20
33901 20
623 27
2149 27
3117 27
3289 27
4419 27
7381 16
13506 27
25813 27
29742 27
31387 10
32394 92
33345 27
34305 12
6072 4
8136 4
12411 4
15164 4
15885 31
18080 38
25170 4
28711 4
28965 4
29545 4
31715 4
32490 4
625 30
1825 30
1917 30
2396 30
16239 30
17048 30
20570 34
20968 30
25829 30
28588 30
29971 30
31384 30
31804 30
32770 30
626 31
3132 31
7039 31
10352 31
18505 26
18984 31
19069 31
22987 31
24953 31
27569 31
29096 5
29480 21
31956 31
33330 31
627 4
4404 4
9623 4
11976 4
14928 4
17232 4
18598 4
21439 4
23614 10
28132 18
30442 4
628 12
3007 4
8887 12
10804 12
10904 31
14061 12
14553 12
14835 12
18139 12
19606 12
26218 12
27911 12
28906 12
29636 12
33086 12
629 36
6448 22
15378 36
16887 36
17352 4
23441 36
26295 36
27788 36
29213 60
30138 36
33987 36
34157 36
630 140
5802 34
7084 140
8053 140
9675 140
10653 140
13626 92
13871 140
17585 140
17746 140
20504 140
26819 140
30304 140
31194 140
34320 30
631 12
6278 5
6711 12
7918 12
14204 12
14534 12
26447 12
27176 12
27589 12
29100 12
30378 30
33415 12
34105 12
632 92
12783 92
14278 92
15720 92
23099 12
24617 92
26486 92
27508 92
28727 92
29682 4
30759 92
34345 92
1431 25
9658 25
12056 25
25061 108
32214 6
634 10
898 10
6255 92
8592 10
9986 10
15371 3
21718 10
23034 10
25153 10
25588 10
30877 10
31510 10
31705 10
33393 10
635 10
8758 16
11917 10
18029 10
23596 10
29204 37
31163 43
31237 10
31731 10
33645 10
33696 10
1731 38
2432 38
3071 38
7074 38
11083 30
13497 38
15217 38
18665 3
20002 38
24221 38
29796 38
31668 38
32717 38
33992 38
7563 4
9677 4
17516 14
21512 4
21730 4
24972 61
26878 4
27331 4
33158 4
33471 36
34056 4
638 27
4069 27
5294 27
19457 27
20523 27
29289 27
32328 27
32550 36
32739 36
33915 27
639 32
1250 32
2916 32
9499 32
10842 32
11082 22
15441 32
16525 32
17545 8
18003 32
30791 32
31087 32
31175 32
33590 32
34436 32
2344 4
10032 4
10050 13
10874 4
11657 4
12248 4
13886 4
15281 4
16356 4
18211 13
27945 13
30356 4
33322 4
641 5
1864 5
6291 10
12764 5
13475 5
14557 5
26164 5
27333 4
27691 5
28779 5
30017 5
642 30
5604 15
8763 30
8990 30
11727 22
15231 30
16903 30
18478 30
18942 30
26980 30
27429 4
29392 30
31701 30
32052 30
32852 30
643 12
1154 12
1444 5
3223 12
6182 12
6248 12
13987 12
15865 12
16814 27
23584 12
26780 12
26972 12
29719 12
31129 20
34129 12
644 10
671 10
4137 5
7657 10
8428 10
12046 10
19381 4
19458 10
20265 29
22089 10
22094 10
22588 10
28693 10
30351 10
645 4
3269 4
5167 4
5991 13
6821 13
8281 4
10754 95
17782 4
23489 4
28471 4
32585 4
32785 4
34438 4
646 13
1262 13
2917 13
8546 13
11649 13
15697 13
20362 13
22326 32
24902 13
24961 22
27795 13
30938 13
9911 4
10990 4
15151 4
15336 6
16987 4
20211 12
22030 4
24875 4
29473 4
30126 4
648 13
2702 13
3465 13
13056 13
16490 13
16736 13
16944 13
23324 13
25665 13
28997 13
649 5
1339 5
18791 121
20291 5
22809 5
24109 5
25272 5
25674 5
30462 5
33539 5
650 4
1667 4
6713 4
6758 4
7066 4
10377 34
11566 4
16685 27
23280 4
27399 4
32319 4
7217 21
11272 21
13099 21
13582 21
15489 21
18189 21
18807 34
19338 21
29626 5
33647 21
17983 20
29777 12
653 5
8462 5
9853 5
15080 5
17068 22
17733 5
25269 5
27939 4
28419 5
29432 5
29698 5
29877 5
33166 5
34221 12
654 14
6236 14
10936 14
12488 14
13287 14
13917 12
14739 14
25824 14
26345 22
29534 14
29871 23
31696 14
32776 36
29825 22
656 107
8132 107
9844 107
10378 107
12642 107
15361 107
15948 41
19579 107
21579 22
22294 107
22537 107
23526 107
24523 107
25051 107
33969 27
657 145
7174 145
9388 145
10487 145
10751 145
14651 145
14891 145
16833 20
18519 145
19795 145
20375 145
22090 145
23127 92
26598 145
27329 145
31434 145
658 102
3030 102
4247 102
4599 102
5135 102
9672 36
11173 102
12380 102
21108 20
21346 92
25169 102
28001 12
32597 102
32933 102
32944 102
33522 102
659 35
15157 35
16001 35
28517 35
30922 12
31279 35
31418 35
31457 35
31793 12
33995 35
660 13
4178 13
14845 13
20779 13
23436 13
25503 13
25950 13
30262 13
30818 13
33329 20
661 4
17964 87
18568 4
20511 4
23549 4
25062 31
25255 4
25382 4
25546 4
27101 4
662 27
5143 27
9210 27
17790 33
20578 43
24287 27
26678 27
29265 27
30429 27
33871 27
33916 27
663 13
806 13
2688 13
8448 29
16623 4
18912 13
21256 13
26727 13
27901 73
31817 22
664 61
1038 61
1379 61
14637 114
18921 93
19268 61
24888 61
29357 61
31449 61
33693 61
665 13
7734 13
9150 13
11764 13
13728 13
14664 13
18446 26
25000 13
26301 13
26529 13
26749 13
27576 20
28743 10
33423 13
666 20
1247 20
3428 20
6795 20
13024 22
14829 15
18590 20
23650 20
23995 20
25848 20
29786 20
33610 20
6832 10
9546 7
23407 7
25015 66
25609 7
25798 30
27601 7
28367 12
29285 7
31422 7
31440 7
668 15
4297 15
14784 15
28275 15
28410 15
28805 15
30018 15
31073 31
32840 15
33031 15
33049 15
33603 15
33938 20
669 5
1836 5
2751 6
5744 5
14172 31
21276 5
27869 5
30499 12
31641 5
32268 5
34403 34
670 13
1481 13
1536 16
1901 15
3963 13
7449 13
11682 13
19422 13
21849 13
24083 35
25454 13
27484 13
33947 12
34332 13
2928 10
9636 10
9816 10
10854 10
15722 10
18042 10
21253 10
23360 13
27306 105
27644 12
31747 10
34210 10
672 45
20415 130
32963 20
673 14
4555 12
9006 14
10575 14
19240 14
21560 14
30365 14
32501 14
33366 14
34002 14
674 12
2177 12
4131 30
7748 43
8762 12
11937 12
21639 12
22410 12
22549 12
23272 12
28224 12
29168 12
29753 12
32824 12
675 12
9751 12
18944 12
19071 4
21685 12
22254 13
23917 43
25136 12
34252 12
676 23
1565 23
2649 23
8746 23
13750 23
23566 23
27693 23
29775 23
31683 20
32008 4
33825 16
33912 23
677 4
3560 4
6778 4
6891 18
10702 4
16754 4
19088 4
22343 5
24102 4
26324 4
26939 4
27130 4
28006 4
30112 4
31219 7
32544 13
9433 43
3717 36
3998 128
7770 13
17315 13
24942 13
27418 36
29582 13
31702 13
32376 13
33006 13
33565 13
5653 34
14717 23
16119 23
22620 32
23932 23
26176 23
29587 23
30897 23
31077 23
31815 105
32468 23
34382 27
7554 4
16863 13
18360 60
23496 60
24012 60
26299 60
28582 60
29970 60
31807 60
33082 60
682 18
2844 145
7093 18
11628 18
29325 18
30242 18
30584 18
32342 18
32695 4
33241 18
34037 18
683 4
2881 4
13924 4
15079 4
22004 33
23192 4
25568 4
28071 4
31022 4
31036 4
1984 10
4882 10
17298 34
18957 31
22301 10
29917 10
30244 10
31579 10
31968 10
685 22
8411 22
9635 22
16527 22
30391 22
31365 22
31958 22
32274 30
32692 22
33927 22
686 33
1771 33
3350 33
5507 10
8494 33
13975 61
15212 33
21102 33
21727 33
29262 33
31389 33
32831 33
687 34
14246 61
16289 34
19590 34
19932 34
20015 34
23153 34
24936 13
33503 34
34416 34
688 10
707 10
8020 10
11011 13
15299 10
17120 10
19715 35
21484 10
25916 133
26497 10
29726 10
33945 10
689 22
890 22
9451 22
12216 22
17003 22
21065 22
23313 22
25989 22
30334 22
30435 20
30920 22
31215 22
31629 22
690 15
6076 15
15813 4
17900 4
17920 15
18496 15
21553 15
22491 15
24457 15
27107 15
28497 15
29161 4
29932 15
32221 15
691 18
7062 18
20596 18
21218 18
23727 30
25185 18
25861 18
26373 18
26510 18
29456 18
30317 18
30419 16
31079 18
692 16
3464 16
7223 23
10019 16
10288 16
15773 16
25160 16
27754 16
31055 16
31653 16
31796 26
33835 16
693 4
2338 154
4385 4
6839 22
10837 4
12100 4
18127 4
20441 30
20657 4
20819 4
24105 4
29135 4
31735 4
694 30
7046 30
8304 30
10190 20
10490 30
24303 30
24742 30
31989 30
33559 30
34146 30
695 113
6549 113
12211 113
17177 113
18987 113
25403 113
26187 113
28203 113
30990 16
33809 113
34278 92
696 3
1098 3
7468 3
9670 3
14889 10
18637 3
23960 92
24807 22
27806 3
27944 3
33678 3
697 15
2418 15
4039 27
4130 15
7758 15
14907 15
15468 4
16368 15
22237 15
22699 15
22803 15
26938 15
27660 15
29518 15
29931 7
31302 15
698 14
3286 14
9987 14
18415 5
18671 14
20811 14
24028 14
27330 14
31007 13
31671 7
699 29
2929 12
3385 29
6550 29
13515 29
16546 29
17438 29
21519 3
24756 29
27146 29
32667 29
34102 29
34261 29
700 32
8504 32
12337 32
14233 32
15593 32
19973 32
28165 32
33414 32
33660 32
34314 32
701 4
3716 3
5039 43
9206 4
11110 4
11228 4
11787 4
15723 4
22989 4
26495 4
26761 4
28817 36
702 37
2311 36
3261 37
5213 37
5862 37
6268 37
6319 37
17339 37
19387 37
24704 77
24825 37
31324 37
32081 37
32612 37
34427 20
703 12
11792 12
17228 12
19287 12
22214 12
27964 15
29287 12
30010 12
31107 12
33495 15
704 36
5938 5
7245 15
7873 36
12672 36
12947 36
14071 92
18860 10
19909 36
29841 36
30825 36
33742 36
705 12
2522 12
5250 12
11493 12
12257 12
13160 30
16862 12
20143 12
21575 12
24886 92
30638 22
31274 12
706 10
5348 110
8451 10
10144 10
13333 10
13862 10
15087 10
20481 10
21287 12
26348 10
34180 10
6175 79
15893 10
16487 22
22402 10
22903 10
24835 10
29141 10
31851 10
34003 10
34154 10
708 20
11150 20
14899 20
19687 18
21663 20
22883 20
23486 20
23690 20
24201 4
24262 27
26046 20
27836 20
30940 20
32179 20
20815 36
25041 74
33085 13
12581 27
23375 27
29694 27
30183 27
30438 33
30474 35
30476 27
33709 27
711 97
745 4
5970 97
6314 30
12040 97
16713 97
21867 97
22020 97
24442 26
26514 97
29054 97
31646 97
32427 97
32489 97
712 35
7988 35
14021 35
14841 35
21055 35
23667 6
23687 35
24753 21
29202 35
31589 35
32604 33
34075 35
713 4
7342 4
8482 7
9958 22
13568 13
17224 4
22930 4
24910 4
28099 4
32062 4
714 22
2088 22
3028 16
4265 22
10696 47
12106 15
12758 22
13786 22
25251 22
25763 22
27524 22
28450 22
30632 22
31970 22
32626 30
9529 35
11491 35
14713 30
17905 35
20875 35
21694 35
23325 34
32735 35
716 13
983 21
1467 13
7311 13
11931 93
12146 13
12844 13
14653 13
19305 13
21494 34
25513 13
32147 13
33278 13
33496 13
34245 13
717 35
1687 35
3608 35
4013 117
8774 35
10711 31
10743 93
16294 35
19180 35
21454 35
25347 35
27014 35
31564 35
34183 10
8545 13
17027 22
30236 29
719 98
8530 36
10053 15
12266 98
14930 98
15416 98
19508 98
23289 5
28652 38
29382 98
720 24
2461 24
4388 24
4968 20
5600 12
7132 102
12397 24
20253 24
23649 24
25026 24
25333 24
26751 24
28706 24
29156 24
721 37
5918 37
6046 37
9513 37
9979 37
12468 37
13438 27
24116 37
24707 37
27256 12
29936 37
33220 37
33482 37
722 43
1808 43
8920 43
10958 43
11348 22
12348 34
14966 43
16260 43
16802 13
18459 43
28632 26
32675 43
33237 43
723 34
831 34
3243 22
15655 95
15957 34
19269 15
23283 31
23972 34
30362 34
31830 34
31883 34
33206 34
2752 110
4312 110
16275 22
24593 110
25024 34
725 47
907 31
4927 47
14073 47
15478 47
22213 47
23541 47
27975 47
29067 47
34007 47
726 36
1204 36
4644 36
6357 36
11007 36
19748 36
30682 36
727 4
11234 4
12750 4
25579 4
29711 4
30610 4
30994 4
32167 4
32972 10
34103 4
728 74
1801 74
2196 27
3883 74
7715 128
9239 74
17460 33
21162 74
27793 74
28595 74
32654 74
729 44
4634 44
8867 13
13514 44
20686 44
21972 44
22059 44
23418 44
31065 44
32415 44
32892 44
33347 27
730 7
7956 7
9786 7
13690 7
13831 7
14971 60
17591 7
18239 7
18438 13
19976 7
22479 7
25034 43
25593 7
31761 7
731 10
5714 10
8849 10
10938 10
13114 10
17944 10
19464 10
22929 86
24841 4
27221 4
28404 12
31421 10
34342 10
732 30
6788 30
10948 30
11713 30
14801 30
14950 49
16126 20
19922 35
21530 30
27222 29
29892 30
30409 30
33110 30
33447 30
1400 16
10452 16
11624 16
17244 16
18187 16
19522 16
22956 16
23976 16
27262 66
31945 10
32398 16
734 12
8143 12
9785 12
11468 12
19756 36
20129 12
29618 12
30053 12
30792 4
31491 13
34016 12
34267 12
2417 33
6113 34
7343 34
9100 34
9691 34
13527 34
14507 34
16810 34
20773 20
32588 34
736 82
3880 79
7683 82
9119 82
11136 82
12572 82
24472 149
24990 82
26132 82
27404 82
27679 82
28039 82
29033 82
31627 117
33227 82
33363 13
33922 82
737 22
779 22
4187 22
7353 22
8866 22
12131 4
12826 22
16257 22
16719 22
19569 4
21493 4
25732 22
30360 22
32952 22
1253 12
6518 12
8540 12
17590 12
18066 2
25401 24
28014 12
31571 12
739 35
7426 35
9508 6
18615 35
28637 35
740 36
12177 36
17096 18
17360 13
24101 36
27188 36
30447 36
31285 36
741 5
2046 5
7143 5
7263 5
8956 5
11511 5
12218 3
19526 5
26213 20
27699 5
28214 5
33585 5
33606 22
742 4
1542 4
5214 4
6304 4
7285 4
10862 26
20204 4
20781 4
22539 4
23425 4
27257 4
30617 4
743 128
1326 128
3365 128
6689 128
7480 128
7593 105
11068 128
17411 5
20110 22
20802 128
21500 128
21824 128
22627 128
23981 128
26332 128
33028 128
33859 12
744 22
3994 22
17173 22
17393 22
20562 27
21948 22
26600 12
26930 22
27314 22
28978 18
33155 22
34116 22
34457 22
7936 4
12789 4
14397 4
16067 4
20538 4
21868 12
22727 92
23843 4
27048 43
746 30
2579 22
10973 30
14574 30
17690 16
22559 132
23768 30
26191 30
29251 30
29815 30
30973 30
31371 30
33107 30
33990 30
34372 30
747 24
5787 24
7287 24
10373 24
16392 24
25050 24
27735 117
30280 24
30445 24
32281 24
748 40
4553 40
4718 40
5481 40
10710 40
10929 40
18009 40
19555 40
19655 34
20250 40
20776 40
22612 3
23419 40
26310 40
29114 40
29464 4
749 34
4044 5
8650 34
9633 34
14731 34
14939 34
16990 34
17081 34
24073 34
26002 58
28268 34
31554 34
750 13
6456 13
6569 13
7495 30
12625 33
15693 13
18289 13
28861 13
30538 13
32222 13
751 36
1301 36
8340 36
9615 36
20527 36
21643 36
24296 4
24894 36
25905 36
32118 61
32552 36
752 34
2324 34
2449 34
3988 34
7410 16
8760 45
11822 30
14972 34
22616 34
29766 34
34035 34
753 8
3733 6
4785 8
8855 8
15175 8
15473 8
16443 8
17919 8
25963 5
27056 8
31654 8
31764 8
31816 8
33567 8
754 134
9322 134
10983 134
12726 134
14649 134
17621 134
18941 134
21499 134
27087 26
27384 134
27953 134
29399 23
31350 134
31520 134
33281 134
33528 134
755 15
5752 15
13541 15
18020 15
25893 15
26603 15
27351 15
32890 15
33332 16
33342 12
33982 15
34198 15
34466 15
756 22
3771 22
11145 22
11265 22
14276 3
25259 22
26104 22
29037 22
29968 22
32757 22
34022 22
2292 30
6562 30
9115 30
12985 30
14955 30
17180 30
26572 4
29099 30
29592 30
30525 30
31317 35
31965 30
3850 3
6321 3
21603 3
25022 3
28393 3
28836 3
32974 4
33574 3
33666 3
759 27
1317 27
1373 27
16346 38
16397 27
20471 27
25339 15
26086 27
26620 27
28056 72
30427 27
30650 27
5074 10
7202 10
21778 83
24592 30
26617 10
28825 10
31168 10
32455 10
33392 10
33949 10
761 12
6700 12
10794 12
20501 13
21716 12
23679 12
25826 12
27566 12
29689 12
30770 12
31159 12
32640 12
762 30
1465 30
5284 30
5986 30
19855 30
20241 30
20485 30
21393 30
22576 15
24787 12
30667 30
31848 30
34286 30
763 84
11642 84
13289 84
16165 84
19121 84
28271 84
28463 84
764 151
1552 151
1620 151
1908 151
3176 151
5562 131
5634 151
8261 35
10236 7
10448 151
10731 151
11729 151
15763 79
15968 151
16248 151
17089 151
18323 151
765 7
4560 7
12575 7
13006 7
15546 5
16080 7
21511 7
22879 7
24929 7
26902 10
30902 7
31244 7
34029 7
766 79
1125 119
3720 79
4462 79
7716 20
11410 79
16321 63
24773 79
26571 79
767 36
2712 43
7271 36
14433 36
14817 33
16507 54
17057 27
22555 36
31614 36
768 27
6545 27
11119 27
11401 27
13985 27
16079 27
21251 27
22342 27
23934 27
24732 8
29788 2
33079 27
769 16
1157 30
1364 16
14517 16
15301 16
15394 92
29323 16
31770 16
32614 16
770 154
3492 154
5614 154
6524 154
6660 154
6685 154
7213 154
9381 13
9453 154
11134 154
12296 154
12311 154
15591 154
17987 154
24675 13
864 4
11060 4
13727 5
14843 4
15666 4
18369 4
20419 4
25318 4
27250 4
32159 73
32163 13
33081 4
772 16
4760 16
4892 92
7862 16
11036 16
12143 16
13148 16
19188 16
27378 16
28443 16
31315 22
3816 27
6534 27
17977 12
22690 27
24858 35
25623 27
26374 27
26800 27
29576 12
29754 27
774 13
7261 5
9685 13
10967 13
21339 13
22118 13
25627 15
27930 61
34446 13
775 5
3948 22
8555 5
9626 5
12415 30
18767 5
20771 5
22277 5
34362 43
34368 5
776 104
9144 104
11017 159
17773 104
18784 104
19319 104
22926 104
25235 104
27875 104
777 34
6256 34
8289 34
10662 34
13815 34
14463 13
14570 34
16150 34
17123 4
18723 34
29905 13
32430 34
33201 12
778 67
4082 67
5691 67
11501 67
11690 67
17156 67
19143 36
20050 67
20332 67
20472 67
20855 12
26035 67
26554 67
28680 67
29512 1
29727 67
2366 22
5904 22
6522 22
7392 20
11584 22
18616 22
24326 22
27059 22
28775 22
30572 22
33627 22
780 3
10331 3
14469 15
26652 3
26823 3
26995 3
32420 3
33023 61
34309 3
781 30
1095 30
8033 30
11490 20
13271 30
14558 30
22492 30
26580 30
26849 30
28472 30
32705 13
33119 30
33200 4
33650 30
34292 30
8103 16
11346 16
14937 82
15770 16
17355 16
18132 34
18729 13
28171 16
33374 5
33975 16
783 26
3584 26
6247 26
8668 30
10776 26
16105 26
21084 26
22543 26
22881 14
28715 26
33149 26
34171 26
1039 92
17260 92
18412 92
23016 92
23363 12
28866 15
29987 92
33176 92
34388 92
785 36
1870 36
3797 33
7778 36
10245 12
12317 36
18898 36
23004 36
24903 12
26054 36
31227 36
31560 36
33596 36
786 16
3411 16
7961 16
11467 16
22963 16
22993 16
30084 5
33302 16
787 13
4015 13
14133 13
18262 13
23957 13
24057 13
24759 13
28626 13
28738 13
29398 13
30545 13
31037 13
32187 13
788 148
4583 148
6280 13
26934 20
29630 12
789 5
987 5
2687 5
8450 4
9081 5
16953 5
23510 5
24232 5
28953 30
30754 5
34232 5
790 36
6346 61
17239 36
21471 36
24361 36
25560 36
26608 36
29683 131
31182 36
34013 36
6690 22
8205 10
9692 10
14141 10
25493 10
25651 10
27332 10
28249 31
32316 10
33831 10
33882 10
792 13
7583 13
12792 13
13427 13
13966 13
15161 13
19903 4
22244 13
27768 13
30965 13
31193 13
31734 13
793 35
1557 35
5782 13
8952 35
10984 35
11841 35
15947 35
19738 37
23109 35
30464 35
30554 35
32271 30
33067 35
794 19
2294 19
5413 19
7940 19
9683 19
9945 19
10762 19
11167 19
12526 30
12914 19
17553 19
18621 19
20493 19
23941 19
27708 22
795 20
3686 20
8874 20
14703 20
23092 3
27670 20
31733 20
33005 20
33755 20
13293 64
797 5
3247 5
3849 5
7488 5
9666 4
17768 5
19559 5
26171 5
26968 5
27179 5
33096 4
33104 5
798 22
1143 22
3013 81
5310 22
7339 22
10104 22
16099 22
17775 22
22202 22
28184 22
33894 22
2148 5
5262 5
15174 5
15339 5
22269 5
24829 5
28430 5
29828 5
31204 5
32524 18
800 3
4765 13
6959 3
7200 3
10937 3
11920 108
14936 6
16785 3
17764 3
20001 3
28363 3
30571 3
31872 3
801 35
827 35
13663 4
18513 35
22003 35
27659 105
28526 35
29884 4
802 30
16069 35
21068 83
22441 30
25728 30
27476 30
30153 30
31570 30
33858 32
803 10
7609 10
13488 10
16567 10
18451 10
25108 10
30111 99
31116 10
32146 10
33544 10
804 13
4672 13
5854 13
13653 7
20798 13
26609 13
26896 13
27150 13
29818 13
31593 13
31631 13
805 21
1026 21
10942 21
18278 21
18991 21
19063 21
19506 22
24737 21
25366 21
26444 30
27092 21
28771 21
29342 21
29348 4
7419 13
7747 13
10475 121
15892 13
16583 13
20371 13
22038 13
22530 13
23885 13
27681 13
33865 102
34265 13
807 35
1535 35
7021 35
14725 35
18763 7
21081 35
25526 35
27667 35
31902 35
31922 35
32563 22
33563 35
808 3
5386 3
10729 3
11500 3
16870 3
19691 43
22447 3
23909 3
28530 3
28874 22
30443 117
32265 3
809 36
6452 36
11712 60
12911 36
14918 36
19758 36
19896 36
21022 36
23884 36
28797 36
34234 36
1559 3
23386 12
811 36
966 36
1956 36
12167 26
13644 36
16011 36
16745 36
20526 15
20849 36
26888 36
33179 36
812 20
13579 20
13593 20
21539 20
22406 20
23177 20
23759 20
24601 4
24616 20
28641 34
7275 73
16629 10
25751 15
29811 13
814 21
4384 21
5662 21
10370 21
17284 21
19971 21
22774 21
30275 21
30851 21
815 12
2790 12
6233 12
10035 12
13858 22
17687 12
23281 12
26752 12
28919 60
30190 12
33354 12
33612 4
816 3
1471 3
2459 96
4794 3
11388 3
12747 3
14454 3
27273 3
33012 3
817 10
9575 10
10146 10
15434 10
23459 10
23850 97
25857 10
29572 33
31873 34
33578 10
818 23
4068 23
5943 23
14165 22
18675 92
20398 23
23637 23
29524 23
819 3
1249 3
15809 3
16102 3
16516 22
23232 3
28141 3
29509 3
29840 13
820 14
4165 14
10419 14
21876 14
22818 14
24965 14
31008 14
33050 14
821 12
6371 12
8738 21
13575 12
15287 12
17932 12
21034 15
23259 12
23388 12
29062 12
29858 12
30745 12
32025 12
33489 35
822 47
2689 47
4299 31
14001 47
18346 13
26872 47
30548 31
30854 47
31758 47
32913 47
33906 47
3672 4
5324 131
8659 131
10557 131
12340 131
14002 131
21903 131
21990 131
22901 131
23540 131
26175 131
27488 131
28603 131
29881 29
33923 131
824 34
4250 34
10314 34
17116 34
17350 31
18156 34
19565 34
20087 34
20229 36
22095 34
25364 13
31966 34
32839 34
825 4
1138 4
5380 4
6533 4
11106 150
13398 4
17645 4
20340 4
20777 10
29116 15
31688 4
826 22
3119 22
6355 22
6939 13
7532 22
22392 22
22759 22
25947 22
30035 22
30801 22
31638 22
2534 35
5515 35
5828 35
12006 4
19060 35
21926 35
22942 35
29643 35
828 5
4195 5
6639 4
20243 5
20352 4
27083 134
28159 5
29134 5
829 22
6207 22
11900 22
21631 22
22712 74
27932 22
28570 22
29015 34
29438 22
33319 22
34095 22
830 22
1641 22
3710 22
9041 22
13334 121
13436 22
16064 22
22359 21
23091 22
23982 22
26777 3
30353 22
33214 22
9835 10
14436 34
23431 34
24449 34
26859 34
30125 34
34480 34
832 47
3227 47
6511 47
9589 30
10516 34
17209 47
25552 47
27580 47
27955 47
33245 5
33300 47
833 151
4622 151
8881 81
16077 151
21033 38
834 2
14305 2
14405 2
25114 22
26107 27
27657 2
31831 2
32227 2
33743 2
34031 35
835 7
4932 7
13318 7
17504 7
20357 7
25932 22
28877 15
29353 7
32575 7
33730 7
4809 92
6911 92
10663 92
14386 92
19983 92
21092 30
22547 92
29557 92
30913 33
31975 92
32826 92
34341 92
837 132
5104 132
5165 132
10890 132
15384 132
18934 132
23875 5
24962 132
28723 132
838 7
916 7
4764 7
5398 7
5624 7
10887 7
13185 27
15542 7
17280 160
19608 7
30420 7
30810 7
839 22
11981 22
20138 22
21919 22
26166 22
26209 22
26258 22
27662 22
29813 22
31964 22
32417 22
840 4
2264 4
6026 4
14185 4
19274 4
27441 4
31931 4
32357 22
33993 4
841 3
12829 65
19146 3
20999 36
21693 3
27745 3
28331 44
30635 3
30820 3
32098 3
12870 37
15358 74
16914 74
28291 5
29229 74
30054 74
33299 74
843 79
8094 79
17513 79
19960 5
844 15
4641 15
12679 15
14438 15
19238 18
21830 15
22531 15
27931 4
28489 15
30381 12
32302 15
32997 15
845 161
939 161
4691 161
5048 161
6308 59
6482 161
7982 161
8024 161
8856 161
9802 161
11382 161
13157 4
13259 91
14546 161
17642 161
17685 161
846 4
3689 4
4248 4
4509 4
14175 4
15037 4
18067 4
23605 22
23676 4
25068 4
32004 4
847 4
5268 4
7120 34
9999 4
12379 162
17730 4
19972 4
23948 4
27158 4
29039 4
30372 4
13026 10
21769 12
24160 10
24280 10
26592 4
26978 10
28225 10
30207 10
849 22
14280 16
19169 22
20029 22
20513 22
23225 22
24256 22
28945 22
29983 22
32373 93
850 12
1784 12
5650 96
6472 12
14993 12
18916 12
19009 22
20583 12
23626 12
33408 12
851 22
990 22
4134 22
5367 22
13205 22
14655 4
16175 22
17342 22
22398 12
26699 22
852 35
7057 35
8028 35
9610 35
10065 35
10972 35
15764 35
18405 5
25773 35
31352 35
32119 35
853 64
7292 12
13940 64
21062 27
24855 44
27251 64
28389 64
30266 64
854 5
10853 22
14799 5
15027 5
15291 5
16900 5
17814 5
20536 117
23266 5
24779 5
28507 5
30172 5
33681 5
34139 61
34334 27
855 22
2378 22
3083 22
11123 22
13864 7
18995 22
26450 22
27966 22
28455 22
29824 22
31998 22
32083 22
32151 22
32437 22
856 16
10125 16
14354 16
15638 16
17305 16
20177 10
20468 16
27748 16
29405 16
30891 16
33794 16
1279 6
4086 35
5826 35
13983 35
15369 22
23060 35
27286 35
30956 13
858 4
9444 10
13022 4
13195 4
15062 4
16611 4
20799 4
21962 4
22728 4
23190 4
23847 14
29148 4
30781 4
31241 4
4216 20
13103 20
17667 20
17693 20
23865 20
27468 20
860 31
1300 31
1579 31
1807 5
5131 31
12395 3
14572 31
15418 31
16201 31
17677 31
19523 31
32076 31
861 37
10897 37
14641 37
18051 37
23967 37
24473 37
25081 22
26471 37
27978 37
31557 37
11242 12
14357 12
15345 12
16034 32
19583 12
19685 12
19727 62
21715 12
26779 61
863 22
3903 22
4654 22
6618 22
11801 22
18554 22
21902 36
22500 22
25574 22
29255 22
30340 22
31235 62
3147 4
3473 4
8330 86
13996 4
14382 4
16305 4
19249 4
23991 4
31866 4
865 105
1653 105
12773 105
14044 105
17535 105
22798 105
24319 105
33208 20
866 31
2997 31
6217 31
10199 31
13498 31
24018 31
30586 31
30790 31
33323 30
33961 35
34493 31
867 34
2580 34
3320 34
3480 34
8199 34
9241 43
12326 3
12501 34
23502 34
28315 30
33776 34
868 16
3874 16
8352 16
8593 16
16500 16
21771 4
25283 16
27838 2
30637 16
31530 16
33045 4
869 10
4671 10
4969 10
6225 10
11786 10
12524 6
15195 10
20606 10
26731 4
29297 10
32358 4
870 1
2205 13
6373 1
11297 4
11572 1
20690 1
22431 1
24502 1
33940 12
871 13
1017 13
7767 13
12256 13
16959 13
17743 92
19927 13
23939 13
24316 13
24464 13
26994 13
32422 13
872 36
1658 36
5342 36
6054 36
7572 36
8642 155
8691 36
11583 36
15859 36
24589 36
26284 12
27813 36
28466 36
31213 36
32559 36
1758 145
2180 21
7149 145
8147 145
10284 145
16923 145
17253 145
22570 145
33740 8
874 2
3637 2
6736 2
10636 2
11403 2
13534 20
18255 2
21230 2
23776 4
24412 2
34131 10
875 13
894 13
2365 13
3528 13
9674 13
14965 13
16040 13
29007 13
30119 13
30941 13
31583 30
32026 38
876 20
1515 33
4289 20
9541 20
14494 20
21838 20
25253 20
26369 20
28500 20
28780 20
31145 23
33419 20
33778 20
33791 20
877 10
1419 87
6062 10
10757 10
11647 10
19917 10
23286 10
26288 10
29419 10
33102 10
33561 13
878 4
4050 4
7043 4
10376 4
13588 24
17258 4
21135 22
34161 4
34201 4
879 22
13627 22
27271 22
28777 22
28827 22
29064 22
30191 22
31497 22
33932 22
34193 22
880 16
8107 16
16534 16
19745 34
23067 16
25464 36
27355 16
29590 16
30300 16
30343 16
31082 16
32939 4
33338 12
881 20
16910 20
26044 20
26245 20
26512 20
26601 20
30676 13
33383 20
34200 20
882 22
7038 22
9514 22
16733 22
16798 22
19236 22
19630 22
20896 47
26492 27
27099 34
29304 22
30411 22
31216 22
31341 35
4837 43
11155 43
11911 36
17937 43
24945 43
27696 43
27732 43
30604 43
34080 43
884 14
8971 131
14011 14
14054 14
15599 14
25508 14
32663 14
33146 14
33996 14
885 128
8032 128
8570 128
16649 128
23049 128
24086 22
24444 128
24615 128
25019 128
29326 128
32049 128
32259 128
33598 128
886 117
5038 12
5616 117
7052 13
8994 117
20656 117
22081 117
23811 117
24195 117
28891 117
30246 117
33403 117
34087 117
887 12
6265 20
15445 12
16323 12
16993 12
18394 12
22957 10
25137 10
25534 12
27949 12
31047 12
888 76
5713 12
6091 76
7413 76
14872 76
19106 47
23143 21
889 157
1152 157
1846 157
2312 157
4923 157
7444 157
7978 3
11784 157
15100 117
16375 157
16429 157
16938 157
21604 157
23032 157
24678 157
34266 35
5020 22
10721 22
13530 22
15420 99
18560 22
20167 22
21477 22
26743 22
29444 22
891 121
2175 121
4523 121
5168 121
5530 121
5770 121
8449 121
18771 26
23094 4
29369 121
29730 121
892 12
10981 22
13994 12
15298 12
28772 12
29873 12
30472 12
31959 12
33721 22
33974 12
13172 36
21426 52
33453 5
10187 13
11828 43
16190 13
18277 4
23072 13
26076 13
29173 13
16838 22
20063 22
20796 4
22175 22
25035 22
25149 22
33850 22
896 4
3826 4
12028 24
17674 4
19303 4
25343 4
25442 36
29529 4
31485 5
31492 4
33254 4
897 23
1472 157
5070 23
12964 23
17226 23
19453 23
25474 23
27075 23
28179 26
34028 23
13044 10
16859 10
23012 10
24138 10
24384 37
26538 10
30470 10
899 30
7823 30
10102 30
11243 38
12482 30
14377 30
16680 30
18431 30
22801 30
24893 31
29416 30
29744 30
34349 30
900 118
12585 118
15159 118
15240 118
901 22
1437 22
9548 22
11674 5
12515 22
14640 22
17596 22
17617 10
24094 22
26033 22
26296 22
29564 22
30249 22
33016 22
33196 22
902 82
5151 82
8282 82
23577 5
25071 82
26129 82
26174 82
27658 82
28245 4
28408 82
31857 82
33230 22
33550 82
4860 12
8397 22
9784 22
10503 22
18809 22
20430 22
24577 3
31479 22
31495 22
31516 22
33033 22
33156 22
33599 22
904 4
1136 4
1442 92
2372 4
3607 4
5015 22
13545 6
13952 4
14455 4
19094 4
19953 4
24661 4
27656 4
30422 4
30707 4
905 22
3466 35
11986 22
16659 22
21571 22
27157 22
31430 22
906 160
1618 160
1702 160
4448 160
7687 160
9393 160
13305 160
14857 43
17301 160
22290 160
25133 160
25638 160
26611 160
29397 160
29990 160
32856 22
3187 31
5130 43
11361 13
11790 31
15112 31
16731 31
23120 5
33247 31
33425 31
34010 31
1768 22
11302 22
16524 22
18802 22
24097 22
26470 30
30158 10
32162 22
32865 22
909 62
9959 62
15120 62
20924 62
21609 62
22409 62
22709 62
23014 62
24474 62
25867 62
30936 62
31937 16
910 13
11218 13
15686 13
17002 13
19092 13
23742 13
24007 13
24918 14
26053 4
28257 13
31481 13
32238 13
911 33
6761 33
11736 33
13216 10
15386 33
19825 33
22330 33
22554 33
26144 33
29805 33
31676 33
31783 33
912 31
1677 48
5983 31
12604 31
13155 12
13396 5
15610 31
19679 31
23812 31
27428 31
30451 31
32954 5
913 55
2142 55
2827 55
8180 55
8346 30
8442 55
14917 37
16084 55
27112 7
914 147
3776 147
7434 147
10586 147
10672 147
12272 147
12360 147
12909 147
13976 147
14573 147
15702 32
16656 13
17182 147
17329 147
17841 147
18091 147
27293 22
915 97
1726 97
3043 97
5466 97
8583 5
18764 97
19289 97
20199 16
33235 97
7905 7
11168 61
11277 7
17531 13
24025 7
24380 7
28498 7
28604 7
3112 30
14690 30
16631 30
21396 30
22312 30
28590 30
28653 30
31151 30
33844 30
918 30
4125 30
6215 30
7895 30
17441 30
19805 30
26474 30
28263 29
32339 34
919 4
6725 4
15709 4
17147 4
22701 4
23539 12
27517 4
27919 4
31900 4
920 34
1395 34
3796 34
13369 34
18365 34
20384 31
24652 34
26921 31
33964 34
34417 34
921 92
6623 129
14238 92
17348 16
22892 92
23352 92
27653 92
33722 8
922 27
2571 38
9477 4
12568 27
12664 27
14077 27
21349 27
22519 27
23952 27
27151 27
29387 27
923 13
3545 5
4850 13
9680 13
15711 4
16764 13
24516 13
27232 13
32920 32
924 30
1340 30
6045 30
8060 18
8914 30
9442 30
10872 30
14892 93
15499 30
24223 30
26575 18
32589 30
925 4
5527 4
5874 12
9903 20
10408 4
11534 4
14923 4
17183 4
19725 4
29248 4
32744 4
926 103
7110 103
8615 103
10091 103
10311 103
12621 26
15018 103
19666 103
19771 103
21843 103
22630 103
23170 103
24062 103
26340 103
28851 103
927 12
6505 15
9059 12
14516 130
15317 12
16075 12
18562 12
19226 12
20577 12
21322 12
22413 12
26226 22
30596 15
34207 12
928 12
3021 12
8737 12
14064 12
14999 12
16850 12
25297 12
27890 12
29284 12
30756 12
32016 12
929 4
2876 4
6468 30
9936 4
20120 4
24336 4
24676 4
24905 4
28495 4
34091 4
3234 61
4065 61
8525 61
11771 61
17566 61
17630 61
22628 61
25063 61
25209 14
29667 10
931 2
12563 2
21258 5
22172 2
24433 2
26239 2
26484 2
28767 33
32561 2
11087 13
21557 20
29715 4
31400 20
31566 20
31650 20
32127 20
33009 20
33957 20
933 37
4655 78
9827 22
11565 37
11574 37
12150 37
16026 37
19652 37
20870 37
28707 37
30532 22
934 30
2394 30
8846 30
11669 30
17702 30
18542 5
22278 30
24487 30
24727 43
26848 30
34491 30
14394 16
29450 12
29684 5
31825 12
936 36
1273 36
13795 36
17055 36
21844 96
23943 36
24055 36
24071 36
25643 36
30386 36
32761 22
34060 36
12957 58
22787 22
23798 61
938 159
4311 20
4510 159
5951 159
9731 159
10610 159
10830 159
14975 159
16152 21
19761 159
20411 159
21522 159
22880 4
23427 159
28579 159
30437 159
30958 159
5093 161
5582 161
12543 161
19035 30
21510 4
940 31
2038 31
12678 31
13224 33
17204 31
21533 31
27054 31
27394 31
29969 5
941 15
4947 15
10683 26
11293 15
11656 15
17347 15
17654 2
18273 15
22009 15
29261 15
29314 15
32921 15
942 35
3145 22
18109 35
24096 35
29674 35
32574 34
943 33
3493 33
7660 59
10356 33
11830 13
14912 33
18370 33
23180 33
23579 33
26817 33
29666 33
30585 33
31472 33
32371 33
33114 33
1284 4
7363 4
8353 4
20698 4
29238 4
29872 4
33334 4
945 8
5799 8
10238 8
17554 8
25606 8
26730 6
31280 8
31461 8
31524 8
32354 8
33516 8
33594 12
34170 8
28484 3
947 30
4067 12
4089 30
4422 30
7366 30
16025 30
18371 30
24453 3
29155 30
33827 30
4276 4
9363 4
17852 20
20258 4
22603 12
25990 4
28382 4
949 30
7707 30
9120 34
13854 30
15398 30
22391 30
26255 30
28786 87
30895 30
33084 30
34264 30
950 5
4832 5
11316 5
16550 5
22192 5
23246 5
26099 5
27776 5
28294 5
28374 5
29052 5
32801 5
33724 22
951 132
4487 132
6477 22
13377 132
15089 132
17354 132
20615 132
21006 132
24479 132
26424 132
26672 30
26835 132
27310 18
952 129
8704 129
13005 18
17691 34
18682 31
953 163
3139 163
3160 163
4291 163
5290 163
8074 18
9625 163
10998 163
11707 163
12313 163
13546 163
16224 163
16608 163
19172 163
19480 163
28841 117
954 157
4154 157
11949 157
13419 157
15127 157
20003 11
29656 43
32349 5
955 12
9490 12
16181 12
18034 92
20543 12
22396 12
24522 23
28082 12
28131 12
28447 12
29765 4
30539 12
5355 20
6782 20
8799 35
12906 5
17062 20
23260 20
24831 20
26094 5
31330 47
32623 20
33926 20
34204 20
957 47
3609 47
3790 44
7845 47
11175 47
12949 47
17484 47
18578 47
21826 56
25399 47
26400 47
32190 4
34205 15
959 5
4895 5
11785 5
15742 5
22597 5
24354 5
25799 5
960 34
6032 34
14116 34
14659 34
24268 34
25887 4
29035 34
961 32
3228 32
14551 32
20496 32
24940 32
25681 32
26775 32
27452 32
27717 13
28343 32
32910 32
32983 32
962 30
6047 30
9939 22
12863 30
17190 30
20226 108
21717 30
22586 30
24949 30
963 13
15050 13
15393 13
22659 72
25150 5
26754 12
26904 13
27705 13
31594 13
32885 13
32903 13
964 34
1239 13
1404 34
9527 34
13290 34
16033 5
16646 34
18313 34
19573 34
21176 34
22514 34
24488 34
24837 34
15214 72
23018 36
5457 36
8825 22
10650 36
17606 36
21513 36
22973 20
23476 36
27808 36
30364 36
30639 36
967 15
2289 15
2456 15
2616 15
5318 15
8633 5
10632 15
10747 15
26475 5
30904 10
968 163
1088 163
6699 10
1435 6
5612 6
9561 6
10614 6
13097 6
18716 6
20450 5
25731 6
29105 6
32360 6
970 61
5053 61
11956 61
15905 61
16208 61
18281 65
19042 61
20546 60
21206 61
22687 35
24034 61
30076 61
30099 61
32465 61
34495 61
971 34
7985 34
15845 34
19438 22
20614 34
26503 34
28834 12
31906 34
32891 34
4348 4
6352 26
19067 4
28262 36
29705 36
30026 36
32396 36
33198 36
33597 36
973 12
6024 12
7469 12
11203 12
16677 12
20625 12
26595 12
30298 12
32384 12
4335 18
12848 18
21155 12
23573 18
24462 15
29865 18
975 22
6463 22
15780 22
28166 22
28180 10
33258 3
976 20
18484 20
24198 32
26635 10
26875 20
27546 20
29960 20
30718 20
33265 20
33917 20
977 5
1025 5
5775 13
9645 5
14026 5
25234 5
25330 12
26958 3
32582 12
33470 5
33997 5
978 140
3468 140
4732 140
8620 140
9554 22
17031 13
24009 140
24982 140
26480 155
26816 140
28156 140
979 12
1466 12
5012 30
11688 12
21436 12
21900 12
22097 12
23277 38
25422 12
27682 12
30302 12
34294 12
980 82
2850 82
9984 82
10986 82
14229 82
17450 82
18350 82
20634 103
26278 82
31556 82
32220 82
981 43
1166 43
8347 43
10625 43
16679 43
17956 43
18550 43
23682 43
31805 43
34494 43
982 29
2963 29
6058 29
8312 83
10135 29
12756 29
14346 16
17549 29
18148 29
18989 29
32494 29
33754 29
4308 20
8729 12
16065 21
18681 21
19330 21
21159 5
24534 21
31541 21
32210 21
984 126
6317 126
7843 126
8341 136
9532 18
10008 126
10682 126
10844 126
11125 126
12391 126
12714 126
13657 126
14605 126
15160 126
15694 126
985 74
5979 34
8827 74
9697 74
23978 74
24861 125
25098 74
31926 12
32843 74
986 43
3931 43
5544 143
5882 43
9737 43
14758 5
15718 43
17039 6
23824 43
26391 43
32496 43
1445 5
13581 22
21875 5
24510 5
25172 5
25842 5
26573 5
27073 18
31820 5
31949 5
32503 5
10770 61
13564 61
30615 61
989 10
3053 10
7740 10
8625 10
9455 10
15529 8
18015 4
28084 10
29578 10
31590 10
34094 10
34231 10
3438 4
8845 22
10330 22
11913 22
15648 22
16103 22
26322 15
27800 22
30549 10
31877 22
33032 22
991 5
6932 5
11059 12
12824 5
14948 5
24717 5
31985 5
32487 2
33633 6
33688 5
992 5
2523 134
6295 12
9712 93
20036 5
20535 5
25757 5
29283 5
10715 13
15791 13
27694 22
28456 13
30015 13
30056 13
31407 13
32112 43
994 21
7994 21
10898 44
11415 21
11479 21
15471 21
19051 21
27899 21
29527 21
33918 21
995 10
2089 15
3600 10
14388 12
14702 10
19545 10
24856 10
25039 10
25246 10
32181 10
996 22
4846 22
14189 37
16796 22
16908 22
17755 22
21594 22
26541 22
27599 22
29452 22
30740 24
34079 22
7134 92
10052 57
16694 113
18858 92
28747 92
29646 92
31754 92
32928 92
33773 22
998 35
2084 149
3155 35
8084 35
10540 35
