0 0
1 1
2 2
3 3
4 4
5 5
6 6
7 7
8 8
9 9
10 6
11 10
12 11
13 12
14 13
15 14
16 12
17 15
18 4
19 16
20 17
21 17
22 15
23 15
24 18
25 4
26 4
27 19
28 18
29 3
30 4
31 10
32 13
33 16
34 20
35 20
36 18
37 8
38 16
39 5
40 17
41 21
42 8
43 22
44 23
45 8
46 24
47 25
48 8
49 2
50 5
51 26
52 4
53 27
54 22
55 28
56 28
57 29
58 15
59 30
60 26
61 10
62 11
63 31
64 28
65 6
66 22
67 4
68 5
69 19
70 4
71 32
72 10
73 6
74 2
75 16
76 20
77 13
78 23
79 23
80 22
81 33
82 10
83 34
84 4
85 30
86 4
87 27
88 35
89 15
90 7
91 36
92 21
93 6
94 36
95 37
96 34
97 19
98 11
99 14
100 4
101 2
102 10
103 37
104 12
105 10
106 38
107 28
108 25
109 15
110 16
111 17
112 36
113 5
114 33
115 4
116 13
117 17
118 36
119 7
120 16
121 17
122 0
123 4
124 20
125 24
126 32
127 28
128 13
129 38
130 33
131 12
132 37
133 39
134 1
135 8
136 40
137 7
138 22
139 32
140 15
141 34
142 18
143 8
144 41
145 17
146 16
147 6
148 1
149 34
150 37
151 20
152 23
153 4
154 36
155 19
156 4
157 42
158 43
159 41
160 37
161 7
162 44
163 14
164 42
165 33
166 4
167 19
168 36
169 16
170 4
171 34
172 21
173 4
174 0
175 0
176 10
177 33
178 4
179 4
180 24
181 0
182 28
183 31
184 7
185 4
186 8
187 4
188 4
189 37
190 10
191 12
192 28
193 33
194 44
195 17
196 4
197 16
198 41
199 0
200 5
201 39
202 24
203 3
204 11
205 1
206 7
207 38
208 32
209 21
210 18
211 30
212 31
213 6
214 39
215 21
216 41
217 0
218 44
219 43
220 28
221 25
222 20
223 4
224 21
225 4
226 4
227 41
228 26
229 34
230 13
231 27
232 18
233 6
234 12
235 4
236 41
237 4
238 3
239 20
240 4
241 4
242 21
243 2
244 1
245 17
246 42
247 23
248 16
249 30
250 38
251 0
252 4
253 22
254 23
255 4
256 37
257 39
258 4
259 44
260 4
261 30
262 41
263 20
264 4
265 3
266 40
267 19
268 4
269 4
270 21
271 9
272 19
273 11
274 11
275 16
276 40
277 4
278 15
279 7
280 11
281 4
282 38
283 16
284 8
285 31
286 23
287 12
288 28
289 15
290 28
291 32
292 7
293 11
294 32
295 18
296 15
297 32
298 15
299 30
300 44
301 22
302 34
303 4
304 4
305 41
306 20
307 35
308 10
309 2
310 13
311 4
312 33
313 5
314 7
315 8
316 11
317 6
318 0
319 20
320 22
321 4
322 31
323 5
324 30
325 4
326 11
327 7
328 19
329 3
330 27
331 2
332 2
333 12
334 1
335 12
336 33
337 17
338 42
339 38
340 37
341 0
342 4
343 18
344 4
345 27
346 38
347 21
348 18
349 39
350 4
351 13
352 4
353 15
354 10
355 10
356 37
357 15
358 13
359 27
360 4
361 16
362 41
363 42
364 33
365 43
366 18
367 8
368 18
369 20
370 10
371 2
372 4
373 41
374 1
375 29
376 4
377 37
378 41
379 33
380 34
381 4
382 0
383 32
384 35
385 2
386 8
387 17
388 0
389 18
390 4
391 9
392 0
393 7
394 31
395 27
396 4
397 6
398 32
399 4
400 3
401 16
402 36
403 25
404 26
405 42
406 11
407 40
408 15
409 34
410 36
411 28
412 9
413 14
414 37
415 4
416 4
417 42
418 11
419 28
420 4
421 36
422 15
423 4
424 19
425 31
426 8
427 16
428 10
429 38
430 6
431 43
432 41
433 40
434 4
435 7
436 4
437 14
438 29
439 21
440 27
441 5
442 7
443 17
444 18
445 17
446 16
447 12
448 18
449 28
450 30
451 11
452 14
453 21
454 22
455 10
456 18
457 11
458 34
459 1
460 8
461 42
462 4
463 30
464 19
465 5
466 16
467 27
468 38
469 27
470 8
471 14
472 15
473 30
474 10
475 41
476 23
477 6
478 8
479 7
480 23
481 41
482 20
483 39
484 31
485 34
486 4
487 22
488 38
489 2
490 19
491 8
492 5
493 28
494 33
495 30
496 11
497 28
498 17
499 29
500 41
501 28
502 4
503 25
504 38
505 10
506 3
507 11
508 4
509 42
510 9
511 16
512 42
513 8
514 23
515 13
516 8
517 41
518 4
519 22
520 10
521 28
522 21
523 25
524 4
525 17
526 4
527 31
528 4
529 20
530 19
531 29
532 4
533 20
534 1
535 4
536 3
537 18
538 12
539 40
540 4
541 29
542 15
543 39
544 23
545 12
546 8
547 21
548 4
549 42
550 5
551 13
552 6
553 12
554 20
555 4
556 11
557 29
558 39
559 10
560 33
561 8
562 6
563 8
564 23
565 4
566 41
567 22
568 37
569 16
570 32
571 17
572 22
573 4
574 43
575 16
576 4
577 6
578 4
579 34
580 42
581 4
582 20
583 34
584 5
585 19
586 6
587 32
588 19
589 5
590 20
591 42
592 36
593 42
594 25
595 28
596 32
597 41
598 28
599 27
600 35
601 37
602 11
603 39
604 25
605 38
606 34
607 25
608 35
609 38
610 4
611 38
612 5
613 10
614 37
615 8
616 30
617 4
618 11
619 11
620 4
621 29
622 37
623 8
624 15
625 38
626 44
627 4
628 18
629 12
630 8
631 5
632 11
633 11
634 4
635 4
636 20
637 44
638 20
639 40
640 4
641 7
642 4
643 38
644 25
645 12
646 42
647 0
648 29
649 7
650 40
651 7
652 13
653 31
654 9
655 35
656 30
657 4
658 37
659 7
660 2
661 21
662 4
663 4
664 4
665 0
666 33
667 4
668 34
669 6
670 14
671 27
672 39
673 9
674 17
675 15
676 4
677 5
678 38
679 38
680 4
681 26
682 1
683 3
684 16
685 15
686 12
687 44
688 21
689 1
690 43
691 16
692 27
693 36
694 16
695 32
696 4
697 4
698 36
699 13
700 9
701 23
702 14
703 13
704 38
705 13
706 4
707 18
708 42
709 28
710 28
711 16
712 10
713 4
714 33
715 1
716 17
717 34
718 19
719 19
720 20
721 4
722 38
723 27
724 3
725 38
726 4
727 43
728 36
729 22
730 4
731 21
732 4
733 27
734 41
735 42
736 10
737 18
738 6
739 14
740 43
741 4
742 16
743 27
744 23
745 10
746 10
747 4
748 31
749 5
750 23
751 11
752 17
753 8
754 34
755 11
756 14
757 37
758 12
759 28
760 36
761 23
762 8
763 42
764 16
765 42
766 33
767 20
768 24
769 27
770 4
771 10
772 0
773 4
774 32
775 4
776 44
777 23
778 16
779 18
780 13
781 15
782 24
783 19
784 16
785 10
786 18
787 15
788 2
789 20
790 29
791 26
792 4
793 16
794 4
795 4
796 6
797 42
798 41
799 16
800 11
801 11
802 4
803 6
804 44
805 12
806 42
807 27
808 23
809 19
810 4
811 41
812 2
813 20
814 10
815 4
816 32
817 4
818 17
819 28
820 23
821 28
822 4
823 9
824 8
825 4
826 4
827 13
828 28
829 5
830 38
831 25
832 9
833 44
834 5
835 41
836 13
837 41
838 44
839 42
840 40
841 43
842 21
843 34
844 29
845 26
846 19
847 18
848 19
849 13
850 0
851 36
852 4
853 5
854 7
855 12
856 18
857 43
858 16
859 19
860 19
861 3
862 24
863 4
864 32
865 8
866 23
867 1
868 0
869 37
870 36
871 30
872 12
873 13
874 28
875 40
876 5
877 4
878 44
879 21
880 25
881 4
882 2
883 0
884 4
885 6
886 17
887 26
888 44
889 43
890 37
891 19
892 10
893 10
894 4
895 4
896 20
897 22
898 33
899 20
900 20
901 21
902 39
903 6
904 4
905 36
906 19
907 43
908 27
909 21
910 32
911 38
912 1
913 5
914 5
915 27
916 7
917 13
918 25
919 33
920 10
921 4
922 17
923 10
924 19
925 21
926 32
927 11
928 5
929 23
930 17
931 20
932 28
933 41
934 13
935 4
936 13
937 34
938 43
939 29
940 38
941 41
942 20
943 19
944 38
945 44
946 22
947 38
948 33
949 1
950 13
951 2
952 11
953 14
954 13
955 21
956 4
957 33
958 23
959 28
960 27
961 15
962 17
963 2
964 16
965 34
966 37
967 14
968 4
969 4
970 23
971 11
972 17
973 0
974 15
975 42
976 0
977 32
978 4
979 29
980 42
981 12
982 1
983 10
984 1
985 4
986 28
987 11
988 41
989 8
990 22
991 14
992 26
993 28
994 18
995 37
996 41
997 36
998 44
999 39
1000 27
1001 36
1002 26
1003 20
1004 8
1005 0
1006 36
1007 2
1008 20
1009 6
1010 14
1011 39
1012 36
1013 40
1014 43
1015 29
1016 4
1017 0
1018 36
1019 20
1020 19
1021 42
1022 41
1023 4
1024 43
1025 23
1026 31
1027 42
1028 5
1029 15
1030 33
1031 25
1032 20
1033 20
1034 8
1035 27
1036 28
1037 16
1038 38
1039 38
1040 11
1041 23
1042 29
1043 13
1044 35
1045 4
1046 43
1047 2
1048 22
1049 8
1050 2
1051 43
1052 13
1053 3
1054 2
1055 32
1056 26
1057 17
1058 4
1059 30
1060 26
1061 4
1062 16
1063 33
1064 36
1065 19
1066 13
1067 17
1068 42
1069 30
1070 8
1071 4
1072 27
1073 4
1074 30
1075 4
1076 15
1077 4
1078 17
1079 32
1080 17
1081 15
1082 28
1083 4
1084 37
1085 4
1086 7
1087 33
1088 20
1089 42
1090 20
1091 32
1092 4
1093 4
1094 3
1095 26
1096 4
1097 44
1098 6
1099 28
1100 10
1101 13
1102 4
1103 40
1104 36
1105 2
1106 22
1107 13
1108 10
1109 34
1110 18
1111 30
1112 26
1113 4
1114 22
1115 4
1116 12
1117 12
1118 44
1119 33
1120 4
1121 31
1122 33
1123 44
1124 16
1125 15
1126 8
1127 32
1128 16
1129 4
1130 19
1131 4
1132 4
1133 34
1134 43
1135 43
1136 17
1137 24
1138 8
1139 15
1140 4
1141 4
1142 32
1143 27
1144 31
1145 44
1146 43
1147 22
1148 42
1149 43
1150 38
1151 10
1152 0
1153 4
1154 17
1155 4
1156 16
1157 26
1158 20
1159 25
1160 2
1161 44
1162 11
1163 17
1164 8
1165 10
1166 42
1167 29
1168 35
1169 18
1170 13
1171 6
1172 5
1173 4
1174 19
1175 38
1176 4
1177 4
1178 3
1179 7
1180 13
1181 4
1182 44
1183 5
1184 4
1185 22
1186 28
1187 16
1188 15
1189 39
1190 4
1191 12
1192 28
1193 10
1194 7
1195 20
1196 33
1197 5
1198 35
1199 19
1200 25
1201 11
1202 44
1203 10
1204 4
1205 40
1206 29
1207 1
1208 41
1209 23
1210 23
1211 11
1212 13
1213 7
1214 8
1215 2
1216 36
1217 21
1218 16
1219 6
1220 43
1221 16
1222 13
1223 21
1224 18
1225 7
1226 16
1227 1
1228 38
1229 3
1230 6
1231 19
1232 4
1233 43
1234 2
1235 24
1236 4
1237 9
1238 44
1239 38
1240 25
1241 1
1242 12
1243 16
1244 16
1245 32
1246 29
1247 42
1248 8
1249 33
1250 27
1251 32
1252 19
1253 23
1254 28
1255 21
1256 4
1257 33
1258 33
1259 2
1260 42
1261 4
1262 7
1263 28
1264 39
1265 13
1266 0
1267 1
1268 23
1269 1
1270 8
1271 13
1272 18
1273 12
1274 8
1275 19
1276 4
1277 27
1278 39
1279 4
1280 4
1281 26
1282 4
1283 4
1284 5
1285 43
1286 8
1287 42
1288 22
1289 5
1290 7
1291 14
1292 4
1293 17
1294 27
1295 28
1296 24
1297 21
1298 22
1299 22
1300 31
1301 22
1302 8
1303 5
1304 42
1305 2
1306 4
1307 5
1308 20
1309 5
1310 7
1311 10
1312 6
1313 13
1314 25
1315 4
1316 21
1317 30
1318 4
1319 4
1320 32
1321 44
1322 4
1323 1
1324 8
1325 22
1326 8
1327 44
1328 11
1329 10
1330 31
1331 21
1332 44
1333 15
1334 4
1335 16
1336 34
1337 2
1338 44
1339 4
1340 4
1341 44
1342 19
1343 22
1344 10
1345 7
1346 13
1347 20
1348 30
1349 22
1350 33
1351 2
1352 0
1353 17
1354 31
1355 16
1356 21
1357 20
1358 32
1359 7
1360 16
1361 10
1362 14
1363 4
1364 31
1365 4
1366 27
1367 32
1368 41
1369 7
1370 36
1371 20
1372 20
1373 4
1374 37
1375 33
1376 4
1377 5
1378 0
1379 33
1380 12
1381 13
1382 27
1383 8
1384 8
1385 17
1386 0
1387 33
1388 11
1389 12
1390 8
1391 0
1392 42
1393 23
1394 4
1395 42
1396 11
1397 38
1398 23
1399 23
1400 4
1401 3
1402 3
1403 15
1404 17
1405 26
1406 30
1407 4
1408 28
1409 27
1410 18
1411 4
1412 31
1413 14
1414 13
1415 27
1416 9
1417 11
1418 4
1419 5
1420 9
1421 22
1422 28
1423 4
1424 4
1425 28
1426 20
1427 4
1428 7
1429 4
1430 30
1431 23
1432 17
1433 12
1434 20
1435 0
1436 29
1437 21
1438 11
1439 20
1440 4
1441 23
1442 23
1443 11
1444 4
1445 5
1446 31
1447 22
1448 23
1449 42
1450 29
1451 33
1452 34
1453 29
1454 24
1455 8
1456 20
1457 14
1458 28
1459 22
1460 4
1461 4
1462 37
1463 7
1464 41
1465 21
1466 42
1467 0
1468 4
1469 21
1470 37
1471 21
1472 14
1473 7
1474 14
1475 4
1476 14
1477 12
1478 36
1479 4
1480 19
1481 7
1482 18
1483 7
1484 4
1485 39
1486 6
1487 42
1488 1
1489 16
1490 25
1491 11
1492 5
1493 28
1494 38
1495 22
1496 4
1497 4
1498 18
1499 4
1500 18
1501 22
1502 42
1503 9
1504 38
1505 26
1506 28
1507 18
1508 16
1509 16
1510 27
1511 11
1512 4
1513 17
1514 4
1515 30
1516 38
1517 20
1518 12
1519 4
1520 10
1521 10
1522 25
1523 16
1524 7
1525 29
1526 28
1527 4
1528 36
1529 43
1530 4
1531 39
1532 3
1533 15
1534 34
1535 15
1536 31
1537 17
1538 4
1539 21
1540 42
1541 6
1542 0
1543 0
1544 4
1545 21
1546 41
1547 2
1548 14
1549 16
1550 5
1551 31
1552 44
1553 33
1554 17
1555 4
1556 18
1557 12
1558 4
1559 4
1560 38
1561 17
1562 5
1563 19
1564 22
1565 38
1566 0
1567 16
1568 20
1569 42
1570 22
1571 4
1572 28
1573 4
1574 8
1575 5
1576 1
1577 28
1578 29
1579 4
1580 4
1581 18
1582 30
1583 23
1584 30
1585 1
1586 20
1587 1
1588 7
1589 4
1590 20
1591 4
1592 4
1593 31
1594 13
1595 33
1596 31
1597 44
1598 4
1599 10
1600 16
1601 13
1602 32
1603 21
1604 44
1605 15
1606 4
1607 24
1608 2
1609 32
1610 11
1611 4
1612 8
1613 29
1614 13
1615 7
1616 16
1617 0
1618 1
1619 44
1620 4
1621 16
1622 20
1623 42
1624 31
1625 30
1626 13
1627 5
1628 3
1629 2
1630 37
1631 4
1632 10
1633 28
1634 4
1635 0
1636 32
1637 30
1638 3
1639 0
1640 6
1641 28
1642 33
1643 4
1644 16
1645 8
1646 21
1647 31
1648 37
1649 12
1650 4
1651 30
1652 7
1653 14
1654 17
1655 16
1656 13
1657 1
1658 17
1659 4
1660 37
1661 38
1662 37
1663 6
1664 4
1665 4
1666 20
1667 6
1668 6
1669 43
1670 16
1671 22
1672 4
1673 7
1674 4
1675 29
1676 4
1677 32
1678 19
1679 24
1680 8
1681 42
1682 10
1683 33
1684 28
1685 31
1686 41
1687 4
1688 4
1689 4
1690 22
1691 4
1692 38
1693 10
1694 4
1695 19
1696 32
1697 41
1698 42
1699 41
1700 36
1701 10
1702 20
1703 8
1704 35
1705 33
1706 8
1707 5
1708 21
1709 40
1710 33
1711 29
1712 10
1713 9
1714 20
1715 8
1716 16
1717 0
1718 34
1719 22
1720 9
1721 29
1722 6
1723 4
1724 35
1725 8
1726 25
1727 14
1728 20
1729 43
1730 18
1731 4
1732 5
1733 19
1734 4
1735 4
1736 34
1737 9
1738 35
1739 31
1740 15
1741 6
1742 9
1743 14
1744 42
1745 4
1746 12
1747 4
1748 13
1749 19
1750 11
1751 34
1752 11
1753 4
1754 18
1755 38
1756 0
1757 32
1758 7
1759 42
1760 15
1761 28
1762 4
1763 16
1764 44
1765 29
1766 14
1767 13
1768 15
1769 42
1770 36
1771 13
1772 19
1773 30
1774 4
1775 27
1776 4
1777 18
1778 0
1779 0
1780 2
1781 2
1782 20
1783 28
1784 4
1785 21
1786 33
1787 44
1788 11
1789 22
1790 2
1791 31
1792 38
1793 4
1794 10
1795 43
1796 35
1797 8
1798 25
1799 20
1800 9
1801 33
1802 13
1803 20
1804 2
1805 41
1806 18
1807 7
1808 42
1809 19
1810 27
1811 21
1812 16
1813 36
1814 37
1815 4
1816 13
1817 19
1818 5
1819 21
1820 4
1821 25
1822 19
1823 36
1824 20
1825 30
1826 21
1827 29
1828 2
1829 21
1830 21
1831 41
1832 35
1833 34
1834 44
1835 7
1836 42
1837 25
1838 33
1839 16
1840 27
1841 12
1842 38
1843 37
1844 1
1845 21
1846 20
1847 40
1848 39
1849 3
1850 33
1851 4
1852 6
1853 4
1854 20
1855 0
1856 5
1857 13
1858 24
1859 8
1860 42
1861 3
1862 27
1863 37
1864 15
1865 36
1866 10
1867 1
1868 11
1869 11
1870 0
1871 4
1872 25
1873 14
1874 34
1875 35
1876 0
1877 42
1878 18
1879 41
1880 4
1881 12
1882 42
1883 29
1884 38
1885 28
1886 4
1887 21
1888 40
1889 4
1890 4
1891 4
1892 12
1893 4
1894 1
1895 36
1896 4
1897 37
1898 12
1899 42
1900 0
1901 16
1902 37
1903 4
1904 10
1905 16
1906 40
1907 13
1908 26
1909 21
1910 1
1911 41
1912 7
1913 18
1914 13
1915 33
1916 28
1917 11
1918 17
1919 4
1920 12
1921 31
1922 17
1923 26
1924 9
1925 7
1926 14
1927 26
1928 17
1929 40
1930 15
1931 33
1932 23
1933 1
1934 14
1935 22
1936 6
1937 4
1938 38
1939 17
1940 4
1941 5
1942 1
1943 23
1944 5
1945 0
1946 6
1947 31
1948 31
1949 4
1950 15
1951 25
1952 10
1953 20
1954 4
1955 40
1956 31
1957 4
1958 8
1959 29
1960 16
1961 44
1962 32
1963 30
1964 4
1965 16
1966 16
1967 31
1968 7
1969 28
1970 34
1971 41
1972 42
1973 22
1974 21
1975 24
1976 28
1977 20
1978 6
1979 17
1980 22
1981 3
1982 16
1983 13
1984 42
1985 7
1986 34
1987 14
1988 11
1989 32
1990 36
1991 28
1992 42
1993 14
1994 20
1995 35
1996 4
1997 22
1998 37
1999 35
2000 16
2001 1
2002 31
2003 14
2004 22
2005 41
2006 1
2007 21
2008 25
2009 4
2010 11
2011 15
2012 23
2013 9
2014 27
2015 21
2016 31
2017 35
2018 44
2019 38
2020 19
2021 8
2022 35
2023 8
2024 16
2025 13
2026 4
2027 4
2028 16
2029 10
2030 25
2031 23
2032 7
2033 43
2034 17
2035 0
2036 6
2037 4
2038 20
2039 43
2040 43
2041 43
2042 8
2043 29
2044 10
2045 23
2046 21
2047 5
2048 7
2049 21
2050 8
2051 4
2052 7
2053 31
2054 22
2055 8
2056 42
2057 39
2058 12
2059 25
2060 7
2061 5
2062 28
2063 27
2064 5
2065 4
2066 14
2067 7
2068 10
2069 29
2070 4
2071 22
2072 15
2073 12
2074 21
2075 22
2076 35
2077 7
2078 20
2079 19
2080 8
2081 4
2082 43
2083 9
2084 41
2085 31
2086 26
2087 4
2088 36
2089 10
2090 2
2091 29
2092 30
2093 19
2094 4
2095 0
2096 34
2097 11
2098 34
2099 15
2100 20
2101 37
2102 32
2103 8
2104 20
2105 5
2106 4
2107 13
2108 23
2109 15
2110 33
2111 32
2112 32
2113 29
2114 40
2115 40
2116 4
2117 43
2118 0
2119 0
2120 4
2121 15
2122 10
2123 44
2124 14
2125 10
2126 12
2127 37
2128 13
2129 17
2130 13
2131 16
2132 21
2133 8
2134 19
2135 0
2136 18
2137 21
2138 38
2139 12
2140 4
2141 6
2142 16
2143 3
2144 37
2145 43
2146 4
2147 10
2148 36
2149 4
2150 13
2151 17
2152 15
2153 27
2154 18
2155 15
2156 32
2157 4
2158 16
2159 5
2160 7
2161 38
2162 32
2163 19
2164 15
2165 28
2166 35
2167 16
2168 26
2169 6
2170 41
2171 20
2172 22
2173 42
2174 3
2175 19
2176 1
2177 15
2178 23
2179 44
2180 14
2181 20
2182 18
2183 36
2184 16
2185 8
2186 44
2187 16
2188 33
2189 5
2190 19
2191 4
2192 41
2193 13
2194 17
2195 28
2196 4
2197 26
2198 4
2199 15
2200 32
2201 28
2202 41
2203 13
2204 4
2205 4
2206 15
2207 16
2208 4
2209 4
2210 4
2211 41
2212 15
2213 4
2214 41
2215 33
2216 22
2217 44
2218 13
2219 21
2220 16
2221 32
2222 23
2223 16
2224 2
2225 16
2226 18
2227 27
2228 42
2229 27
2230 30
2231 16
2232 13
2233 30
2234 17
2235 32
2236 21
2237 8
2238 32
2239 40
2240 13
2241 19
2242 4
2243 4
2244 27
2245 21
2246 0
2247 42
2248 4
2249 29
2250 34
2251 21
2252 29
2253 22
2254 29
2255 19
2256 15
2257 4
2258 44
2259 43
2260 34
2261 36
2262 42
2263 1
2264 43
2265 44
2266 11
2267 9
2268 4
2269 14
2270 4
2271 35
2272 4
2273 31
2274 9
2275 12
2276 0
2277 4
2278 4
2279 3
2280 17
2281 36
2282 2
2283 16
2284 4
2285 30
2286 43
2287 17
2288 9
2289 9
2290 13
2291 2
2292 4
2293 3
2294 8
2295 28
2296 28
2297 12
2298 23
2299 3
2300 18
2301 28
2302 15
2303 4
2304 41
2305 20
2306 5
2307 13
2308 31
2309 25
2310 4
2311 21
2312 16
2313 4
2314 2
2315 7
2316 18
2317 32
2318 28
2319 4
2320 37
2321 10
2322 28
2323 35
2324 19
2325 1
2326 38
2327 4
2328 4
2329 18
2330 3
2331 37
2332 22
2333 30
2334 4
2335 18
2336 30
2337 21
2338 4
2339 39
2340 34
2341 30
2342 13
2343 4
2344 0
2345 1
2346 33
2347 10
2348 44
2349 26
2350 20
2351 4
2352 4
2353 27
2354 27
2355 4
2356 16
2357 36
2358 0
2359 6
2360 23
2361 4
2362 31
2363 16
2364 4
2365 23
2366 39
2367 4
2368 17
2369 10
2370 35
2371 7
2372 40
2373 29
2374 10
2375 31
2376 6
2377 36
2378 20
2379 8
2380 30
2381 33
2382 7
2383 29
2384 30
2385 7
2386 17
2387 28
2388 11
2389 32
2390 16
2391 28
2392 23
2393 7
2394 20
2395 12
2396 35
2397 4
2398 43
2399 32
2400 31
2401 25
2402 20
2403 8
2404 42
2405 35
2406 6
2407 40
2408 4
2409 16
2410 40
2411 13
2412 25
2413 4
2414 38
2415 30
2416 30
2417 28
2418 13
2419 30
2420 38
2421 8
2422 20
2423 9
2424 4
2425 10
2426 18
2427 42
2428 4
2429 22
2430 4
2431 4
2432 2
2433 38
2434 42
2435 12
2436 4
2437 41
2438 13
2439 11
2440 34
2441 8
2442 32
2443 2
2444 35
2445 12
2446 16
2447 22
2448 16
2449 21
2450 22
2451 3
2452 8
2453 4
2454 44
2455 15
2456 18
2457 23
2458 12
2459 4
2460 2
2461 41
2462 29
2463 21
2464 10
2465 6
2466 15
2467 16
2468 16
2469 4
2470 3
2471 6
2472 19
2473 16
2474 28
2475 4
2476 28
2477 22
2478 15
2479 22
2480 12
2481 5
2482 20
2483 31
2484 28
2485 25
2486 27
2487 16
2488 26
2489 31
2490 5
2491 41
2492 27
2493 41
2494 23
2495 16
2496 41
2497 19
2498 28
2499 35
2500 13
2501 35
2502 35
2503 15
2504 14
2505 10
2506 17
2507 2
2508 32
2509 19
2510 4
2511 28
2512 42
2513 12
2514 8
2515 28
2516 18
2517 4
2518 28
2519 29
2520 8
2521 4
2522 32
2523 1
2524 5
2525 39
2526 4
2527 10
2528 10
2529 4
2530 18
2531 24
2532 32
2533 37
2534 8
2535 24
2536 20
2537 4
2538 4
2539 25
2540 16
2541 18
2542 15
2543 16
2544 27
2545 5
2546 43
2547 17
2548 42
2549 32
2550 29
2551 30
2552 0
2553 11
2554 13
2555 27
2556 20
2557 25
2558 5
2559 4
2560 44
2561 7
2562 20
2563 42
2564 17
2565 4
2566 19
2567 4
2568 30
2569 4
2570 15
2571 10
2572 13
2573 2
2574 21
2575 7
2576 27
2577 1
2578 27
2579 34
2580 16
2581 42
2582 37
2583 3
2584 4
2585 23
2586 4
2587 0
2588 18
2589 38
2590 44
2591 41
2592 40
2593 9
2594 0
2595 18
2596 10
2597 6
2598 4
2599 32
2600 36
2601 16
2602 8
2603 24
2604 6
2605 16
2606 4
2607 4
2608 4
2609 28
2610 8
2611 2
2612 15
2613 41
2614 6
2615 37
2616 2
2617 17
2618 0
2619 4
2620 5
2621 18
2622 25
2623 20
2624 29
2625 16
2626 15
2627 4
2628 12
2629 1
2630 20
2631 20
2632 12
2633 8
2634 1
2635 4
2636 31
2637 16
2638 19
2639 16
2640 4
2641 17
2642 41
2643 30
2644 27
2645 21
2646 15
2647 20
2648 41
2649 2
2650 4
2651 25
2652 22
2653 11
2654 9
2655 16
2656 8
2657 4
2658 14
2659 23
2660 4
2661 19
2662 8
2663 4
2664 28
2665 31
2666 8
2667 14
2668 16
2669 41
2670 8
2671 25
2672 3
2673 7
2674 19
2675 17
2676 34
2677 8
2678 10
2679 7
2680 2
2681 43
2682 3
2683 29
2684 18
2685 20
2686 11
2687 29
2688 32
2689 16
2690 30
2691 41
2692 4
2693 38
2694 41
2695 32
2696 2
2697 6
2698 33
2699 11
2700 31
2701 8
2702 4
2703 4
2704 35
2705 14
2706 4
2707 29
2708 6
2709 0
2710 44
2711 34
2712 32
2713 2
2714 25
2715 32
2716 38
2717 4
2718 19
2719 44
2720 4
2721 2
2722 18
2723 33
2724 4
2725 12
2726 38
2727 36
2728 10
2729 27
2730 21
2731 26
2732 4
2733 6
2734 29
2735 22
2736 7
2737 13
2738 32
2739 23
2740 12
2741 12
2742 4
2743 4
2744 17
2745 3
2746 42
2747 2
2748 16
2749 18
2750 23
2751 30
2752 4
2753 18
2754 22
2755 14
2756 4
2757 9
2758 5
2759 8
2760 10
2761 10
2762 26
2763 0
2764 32
2765 4
2766 8
2767 36
2768 26
2769 15
2770 11
2771 15
2772 32
2773 4
2774 13
2775 2
2776 16
2777 7
2778 22
2779 19
2780 41
2781 17
2782 37
2783 2
2784 22
2785 16
2786 30
2787 38
2788 27
2789 4
2790 2
2791 32
2792 40
2793 23
2794 14
2795 10
2796 30
2797 1
2798 30
2799 16
2800 22
2801 30
2802 11
2803 41
2804 38
2805 1
2806 27
2807 29
2808 4
2809 4
2810 27
2811 28
2812 38
2813 18
2814 1
2815 4
2816 6
2817 28
2818 14
2819 3
2820 0
2821 3
2822 23
2823 4
2824 13
2825 4
2826 4
2827 16
2828 41
2829 13
2830 18
2831 12
2832 12
2833 4
2834 4
2835 31
2836 0
2837 11
2838 18
2839 23
2840 38
2841 16
2842 4
2843 17
2844 9
2845 4
2846 38
2847 31
2848 33
2849 4
2850 10
2851 35
2852 16
2853 21
2854 38
2855 41
2856 27
2857 9
2858 14
2859 25
2860 12
2861 4
2862 29
2863 17
2864 0
2865 15
2866 4
2867 26
2868 4
2869 9
2870 22
2871 30
2872 22
2873 13
2874 42
2875 1
2876 19
2877 18
2878 31
2879 40
2880 37
2881 23
2882 30
2883 28
2884 32
2885 4
2886 38
2887 28
2888 10
2889 10
2890 25
2891 29
2892 19
2893 8
2894 33
2895 44
2896 5
2897 4
2898 30
2899 3
2900 27
2901 9
2902 17
2903 8
2904 27
2905 10
2906 32
2907 28
2908 5
2909 13
2910 40
2911 15
2912 19
2913 15
2914 17
2915 21
2916 11
2917 41
2918 20
2919 4
2920 5
2921 4
2922 11
2923 19
2924 12
2925 4
2926 9
2927 2
2928 22
2929 42
2930 37
2931 15
2932 13
2933 30
2934 11
2935 0
2936 6
2937 33
2938 23
2939 16
2940 16
2941 4
2942 20
2943 7
2944 27
2945 12
2946 4
2947 13
2948 0
2949 7
2950 6
2951 18
2952 5
2953 4
2954 21
2955 16
2956 6
2957 3
2958 34
2959 26
2960 44
2961 8
2962 34
2963 4
2964 14
2965 31
2966 25
2967 4
2968 12
2969 30
2970 0
2971 4
2972 40
2973 13
2974 7
2975 25
2976 0
2977 5
2978 13
2979 38
2980 18
2981 17
2982 43
2983 22
2984 4
2985 23
2986 37
2987 7
2988 5
2989 18
2990 10
2991 20
2992 28
2993 4
2994 22
2995 41
2996 30
2997 28
2998 25
2999 1
3000 23
3001 1
3002 14
3003 6
3004 6
3005 9
3006 6
3007 1
3008 30
3009 12
3010 12
3011 30
3012 0
3013 4
3014 12
3015 12
3016 13
3017 1
3018 9
3019 36
3020 44
3021 22
3022 10
3023 15
3024 21
3025 1
3026 12
3027 42
3028 8
3029 42
3030 10
3031 5
3032 3
3033 20
3034 7
3035 41
3036 4
3037 44
3038 43
3039 15
3040 20
3041 0
3042 4
3043 16
3044 23
3045 33
3046 0
3047 4
3048 10
3049 30
3050 16
3051 6
3052 12
3053 0
3054 16
3055 16
3056 18
3057 6
3058 15
3059 19
3060 13
3061 1
3062 23
3063 29
3064 0
3065 22
3066 20
3067 30
3068 36
3069 27
3070 16
3071 27
3072 10
3073 38
3074 30
3075 13
3076 20
3077 44
3078 31
3079 43
3080 26
3081 30
3082 11
3083 0
3084 41
3085 21
3086 6
3087 10
3088 4
3089 17
3090 18
3091 20
3092 17
3093 0
3094 0
3095 13
3096 16
3097 20
3098 6
3099 0
3100 44
3101 1
3102 27
3103 42
3104 29
3105 8
3106 43
3107 7
3108 7
3109 40
3110 33
3111 27
3112 13
3113 7
3114 4
3115 26
3116 20
3117 4
3118 33
3119 38
3120 22
3121 24
3122 38
3123 4
3124 10
3125 32
3126 25
3127 28
3128 28
3129 7
3130 12
3131 4
3132 4
3133 18
3134 11
3135 18
3136 15
3137 32
3138 16
3139 10
3140 12
3141 44
3142 8
3143 4
3144 4
3145 28
3146 7
3147 18
3148 39
3149 4
3150 10
3151 34
3152 32
3153 28
3154 12
3155 28
3156 21
3157 44
3158 10
3159 1
3160 24
3161 30
3162 32
3163 29
3164 10
3165 4
3166 3
3167 30
3168 38
3169 0
3170 38
3171 11
3172 17
3173 23
3174 4
3175 4
3176 28
3177 21
3178 13
3179 18
3180 7
3181 10
3182 0
3183 13
3184 4
3185 28
3186 4
3187 15
3188 40
3189 0
3190 4
3191 42
3192 28
3193 42
3194 29
3195 12
3196 34
3197 41
3198 4
3199 20
3200 12
3201 23
3202 15
3203 7
3204 7
3205 7
3206 23
3207 14
3208 4
3209 5
3210 20
3211 19
3212 35
3213 19
3214 17
3215 40
3216 25
3217 23
3218 31
3219 20
3220 38
3221 8
3222 16
3223 6
3224 37
3225 38
3226 13
3227 4
3228 11
3229 4
3230 35
3231 4
3232 3
3233 44
3234 4
3235 13
3236 36
3237 28
3238 4
3239 37
3240 25
3241 32
3242 43
3243 11
3244 19
3245 42
3246 0
3247 33
3248 26
3249 32
3250 30
3251 7
3252 34
3253 2
3254 31
3255 6
3256 8
3257 8
3258 17
3259 14
3260 38
3261 4
3262 31
3263 26
3264 28
3265 31
3266 10
3267 13
3268 12
3269 11
3270 20
3271 17
3272 43
3273 41
3274 32
3275 20
3276 8
3277 4
3278 44
3279 17
3280 3
3281 30
3282 12
3283 22
3284 41
3285 0
3286 19
3287 8
3288 18
3289 2
3290 34
3291 12
3292 15
3293 39
3294 4
3295 5
3296 36
3297 5
3298 4
3299 17
3300 5
3301 43
3302 38
3303 40
3304 33
3305 12
3306 37
3307 16
3308 4
3309 23
3310 8
3311 28
3312 2
3313 28
3314 39
3315 7
3316 10
3317 38
3318 29
3319 21
3320 19
3321 22
3322 31
3323 4
3324 12
3325 4
3326 20
3327 29
3328 8
3329 35
3330 4
3331 12
3332 2
3333 23
3334 17
3335 17
3336 19
3337 32
3338 30
3339 25
3340 33
3341 5
3342 18
3343 29
3344 10
3345 30
3346 31
3347 13
3348 22
3349 4
3350 2
3351 44
3352 12
3353 3
3354 12
3355 4
3356 4
3357 41
3358 16
3359 2
3360 7
3361 8
3362 26
3363 22
3364 15
3365 20
3366 41
3367 39
3368 4
3369 19
3370 32
3371 4
3372 36
3373 13
3374 2
3375 17
3376 4
3377 28
3378 33
3379 22
3380 23
3381 40
3382 32
3383 35
3384 42
3385 20
3386 8
3387 4
3388 4
3389 0
3390 19
3391 20
3392 11
3393 21
3394 14
3395 11
3396 23
3397 36
3398 38
3399 4
3400 25
3401 4
3402 4
3403 4
3404 44
3405 4
3406 33
3407 16
3408 10
3409 41
3410 4
3411 14
3412 5
3413 4
3414 13
3415 18
3416 33
3417 32
3418 4
3419 10
3420 5
3421 9
3422 2
3423 6
3424 23
3425 30
3426 1
3427 23
3428 6
3429 4
3430 32
3431 10
3432 4
3433 20
3434 8
3435 2
3436 4
3437 13
3438 33
3439 4
3440 11
3441 9
3442 4
3443 22
3444 16
3445 42
3446 29
3447 28
3448 4
3449 13
3450 18
3451 29
3452 27
3453 9
3454 21
3455 26
3456 37
3457 37
3458 5
3459 10
3460 0
3461 41
3462 41
3463 43
3464 32
3465 42
3466 20
3467 20
3468 22
3469 8
3470 4
3471 39
3472 25
3473 31
3474 4
3475 27
3476 39
3477 4
3478 14
3479 6
3480 22
3481 35
3482 19
3483 10
3484 19
3485 42
3486 28
3487 4
3488 21
3489 12
3490 23
3491 4
3492 0
3493 27
3494 16
3495 11
3496 9
3497 2
3498 32
3499 21
3500 20
3501 10
3502 8
3503 12
3504 10
3505 7
3506 32
3507 13
3508 22
3509 14
3510 13
3511 13
3512 0
3513 0
3514 44
3515 4
3516 38
3517 2
3518 7
3519 20
3520 0
3521 4
3522 36
3523 12
3524 20
3525 20
3526 4
3527 32
3528 25
3529 42
3530 0
3531 0
3532 4
3533 4
3534 28
3535 41
3536 31
3537 38
3538 5
3539 35
3540 5
3541 0
3542 17
3543 18
3544 4
3545 25
3546 8
3547 10
3548 31
3549 12
3550 27
3551 41
3552 29
3553 11
3554 20
3555 13
3556 14
3557 0
3558 16
3559 2
3560 13
3561 23
3562 3
3563 31
3564 37
3565 4
3566 31
3567 34
3568 22
3569 11
3570 18
3571 20
3572 29
3573 12
3574 40
3575 31
3576 15
3577 10
3578 7
3579 38
3580 30
3581 44
3582 4
3583 10
3584 18
3585 18
3586 34
3587 29
3588 18
3589 4
3590 17
3591 40
3592 9
3593 10
3594 27
3595 7
3596 20
3597 7
3598 17
3599 23
3600 4
3601 27
3602 41
3603 40
3604 10
3605 28
3606 2
3607 10
3608 37
3609 21
3610 44
3611 21
3612 16
3613 17
3614 35
3615 5
3616 17
3617 4
3618 16
3619 8
3620 3
3621 33
3622 44
3623 38
3624 23
3625 43
3626 9
3627 4
3628 0
3629 20
3630 36
3631 10
3632 22
3633 13
3634 42
3635 21
3636 5
3637 30
3638 33
3639 16
3640 0
3641 4
3642 14
3643 20
3644 4
3645 17
3646 14
3647 36
3648 32
3649 16
3650 14
3651 44
3652 38
3653 13
3654 15
3655 18
3656 11
3657 18
3658 22
3659 40
3660 5
3661 4
3662 4
3663 4
3664 19
3665 9
3666 38
3667 26
3668 4
3669 37
3670 14
3671 19
3672 25
3673 28
3674 14
3675 14
3676 29
3677 29
3678 20
3679 11
3680 20
3681 13
3682 18
3683 15
3684 4
3685 28
3686 42
3687 4
3688 32
3689 6
3690 7
3691 8
3692 42
3693 19
3694 12
3695 20
3696 43
3697 41
3698 29
3699 4
3700 18
3701 4
3702 17
3703 2
3704 23
3705 36
3706 17
3707 23
3708 15
3709 23
3710 5
3711 2
3712 4
3713 0
3714 37
3715 1
3716 38
3717 21
3718 4
3719 1
3720 30
3721 19
3722 4
3723 3
3724 10
3725 10
3726 19
3727 38
3728 13
3729 4
3730 44
3731 17
3732 4
3733 1
3734 28
3735 10
3736 28
3737 35
3738 10
3739 22
3740 0
3741 28
3742 5
3743 43
3744 1
3745 37
3746 12
3747 16
3748 28
3749 42
3750 27
3751 2
3752 2
3753 38
3754 15
3755 16
3756 27
3757 6
3758 43
3759 6
3760 35
3761 35
3762 21
3763 22
3764 32
3765 23
3766 5
3767 25
3768 6
3769 3
3770 41
3771 4
3772 42
3773 22
3774 21
3775 22
3776 3
3777 27
3778 41
3779 31
3780 41
3781 4
3782 30
3783 25
3784 30
3785 4
3786 3
3787 30
3788 42
3789 14
3790 28
3791 4
3792 38
3793 25
3794 4
3795 15
3796 15
3797 17
3798 12
3799 41
3800 15
3801 0
3802 36
3803 4
3804 31
3805 11
3806 32
3807 4
3808 38
3809 10
3810 12
3811 42
3812 22
3813 21
3814 7
3815 5
3816 11
3817 4
3818 10
3819 11
3820 40
3821 9
3822 16
3823 4
3824 1
3825 42
3826 4
3827 5
3828 36
3829 26
3830 11
3831 41
3832 41
3833 6
3834 4
3835 28
3836 4
3837 38
3838 19
3839 0
3840 12
3841 16
3842 14
3843 3
3844 4
3845 28
3846 44
3847 4
3848 20
3849 7
3850 14
3851 5
3852 5
3853 4
3854 42
3855 24
3856 5
3857 32
3858 30
3859 42
3860 37
3861 15
3862 12
3863 7
3864 44
3865 1
3866 20
3867 17
3868 19
3869 4
3870 23
3871 12
3872 28
3873 4
3874 33
3875 41
3876 42
3877 36
3878 15
3879 0
3880 35
3881 41
3882 40
3883 10
3884 4
3885 4
3886 32
3887 0
3888 4
3889 5
3890 44
3891 4
3892 42
3893 15
3894 9
3895 33
3896 1
3897 1
3898 30
3899 4
3900 39
3901 44
3902 10
3903 8
3904 40
3905 9
3906 14
3907 16
3908 36
3909 44
3910 30
3911 18
3912 8
3913 28
3914 35
3915 6
3916 21
3917 2
3918 34
3919 14
3920 36
3921 44
3922 10
3923 15
3924 19
3925 4
3926 4
3927 2
3928 41
3929 31
3930 37
3931 27
3932 7
3933 41
3934 26
3935 36
3936 13
3937 22
3938 44
3939 6
3940 10
3941 17
3942 17
3943 34
3944 0
3945 11
3946 0
3947 30
3948 3
3949 13
3950 4
3951 6
3952 10
3953 30
3954 40
3955 42
3956 20
3957 36
3958 5
3959 38
3960 3
3961 34
3962 2
3963 27
3964 24
3965 26
3966 4
3967 32
3968 26
3969 2
3970 7
3971 7
3972 13
3973 5
3974 6
3975 38
3976 18
3977 33
3978 43
3979 22
3980 44
3981 41
3982 30
3983 13
3984 15
3985 4
3986 21
3987 13
3988 33
3989 11
3990 16
3991 9
3992 4
3993 18
3994 10
3995 37
3996 13
3997 5
3998 39
3999 17
4000 32
4001 42
4002 28
4003 20
4004 10
4005 16
4006 42
4007 4
4008 29
4009 37
4010 9
4011 6
4012 23
4013 35
4014 25
4015 1
4016 43
4017 28
4018 11
4019 30
4020 7
4021 16
4022 29
4023 23
4024 40
4025 12
4026 16
4027 30
4028 28
4029 10
4030 21
4031 14
4032 29
4033 2
4034 21
4035 5
4036 20
4037 0
4038 4
4039 44
4040 19
4041 32
4042 2
4043 8
4044 43
4045 39
4046 9
4047 13
4048 20
4049 38
4050 32
4051 43
4052 16
4053 37
4054 43
4055 0
4056 15
4057 6
4058 10
4059 27
4060 8
4061 16
4062 32
4063 5
4064 7
4065 31
4066 36
4067 15
4068 4
4069 40
4070 24
4071 1
4072 20
4073 15
4074 42
4075 30
4076 8
4077 22
4078 23
4079 29
4080 0
4081 0
4082 4
4083 33
4084 25
4085 2
4086 15
4087 8
4088 26
4089 13
4090 20
4091 0
4092 16
4093 17
4094 16
4095 8
4096 34
4097 22
4098 17
4099 15
4100 4
4101 44
4102 16
4103 4
4104 30
4105 4
4106 8
4107 19
4108 5
4109 27
4110 21
4111 21
4112 8
4113 7
4114 5
4115 21
4116 19
4117 4
4118 38
4119 18
4120 6
4121 16
4122 14
4123 10
4124 42
4125 4
4126 40
4127 28
4128 21
4129 4
4130 11
4131 11
4132 27
4133 38
4134 7
4135 4
4136 14
4137 4
4138 43
4139 18
4140 14
4141 16
4142 32
4143 28
4144 16
4145 30
4146 5
4147 31
4148 4
4149 4
4150 37
4151 4
4152 18
4153 13
4154 10
4155 9
4156 20
4157 17
4158 3
4159 20
4160 12
4161 13
4162 33
4163 8
4164 4
4165 10
4166 32
4167 7
4168 24
4169 7
4170 15
4171 42
4172 4
4173 39
4174 37
4175 37
4176 40
4177 4
4178 4
4179 18
4180 27
4181 27
4182 4
4183 35
4184 44
4185 10
4186 34
4187 6
4188 34
4189 0
4190 4
4191 44
4192 17
4193 17
4194 12
4195 30
4196 4
4197 19
4198 7
4199 4
4200 13
4201 43
4202 42
4203 21
4204 2
4205 41
4206 29
4207 2
4208 29
4209 43
4210 4
4211 43
4212 20
4213 26
4214 8
4215 2
4216 42
4217 4
4218 39
4219 20
4220 13
4221 0
4222 16
4223 21
4224 4
4225 7
4226 5
4227 31
4228 4
4229 43
4230 0
4231 44
4232 24
4233 0
4234 21
4235 28
4236 38
4237 27
4238 16
4239 13
4240 4
4241 38
4242 21
4243 4
4244 13
4245 22
4246 18
4247 19
4248 44
4249 28
4250 19
4251 44
4252 44
4253 33
4254 41
4255 17
4256 30
4257 39
4258 16
4259 32
4260 16
4261 4
4262 20
4263 6
4264 3
4265 27
4266 35
4267 7
4268 32
4269 23
4270 40
4271 29
4272 12
4273 8
4274 4
4275 13
4276 9
4277 6
4278 22
4279 12
4280 20
4281 16
4282 17
4283 2
4284 4
4285 15
4286 39
4287 4
4288 13
4289 27
4290 9
4291 32
4292 22
4293 29
4294 3
4295 2
4296 4
4297 37
4298 44
4299 23
4300 5
4301 16
4302 20
4303 17
4304 38
4305 7
4306 37
4307 8
4308 4
4309 28
4310 10
4311 20
4312 11
4313 4
4314 44
4315 28
4316 2
4317 1
4318 4
4319 20
4320 32
4321 13
4322 4
4323 36
4324 36
4325 19
4326 17
4327 4
4328 17
4329 18
4330 12
4331 6
4332 4
4333 24
4334 16
4335 42
4336 12
4337 16
4338 25
4339 8
4340 16
4341 4
4342 13
4343 0
4344 30
4345 39
4346 32
4347 9
4348 30
4349 40
4350 6
4351 4
4352 42
4353 36
4354 23
4355 42
4356 8
4357 22
4358 10
4359 4
4360 31
4361 42
4362 21
4363 8
4364 11
4365 4
4366 40
4367 42
4368 10
4369 18
4370 4
4371 4
4372 4
4373 4
4374 30
4375 2
4376 7
4377 21
4378 0
4379 30
4380 44
4381 7
4382 1
4383 28
4384 4
4385 17
4386 4
4387 5
4388 4
4389 11
4390 40
4391 13
4392 7
4393 4
4394 35
4395 42
4396 27
4397 4
4398 32
4399 14
4400 10
4401 19
4402 26
4403 29
4404 4
4405 19
4406 27
4407 28
4408 26
4409 42
4410 21
4411 40
4412 10
4413 20
4414 13
4415 4
4416 5
4417 23
4418 7
4419 15
4420 30
4421 6
4422 16
4423 32
4424 20
4425 36
4426 30
4427 16
4428 26
4429 2
4430 28
4431 20
4432 4
4433 20
4434 33
4435 41
4436 4
4437 4
4438 32
4439 44
4440 0
4441 11
4442 21
4443 2
4444 42
4445 20
4446 41
4447 3
4448 28
4449 25
4450 21
4451 6
4452 4
4453 4
4454 39
4455 28
4456 18
4457 32
4458 15
4459 15
4460 15
4461 4
4462 4
4463 21
4464 7
4465 17
4466 4
4467 1
4468 41
4469 44
4470 44
4471 1
4472 8
4473 6
4474 18
4475 44
4476 34
4477 27
4478 15
4479 20
4480 33
4481 4
4482 44
4483 4
4484 4
4485 4
4486 0
4487 35
4488 6
4489 23
4490 30
4491 27
4492 16
4493 43
4494 14
4495 9
4496 9
4497 28
4498 13
4499 27
4500 20
4501 4
4502 4
4503 14
4504 6
4505 2
4506 17
4507 27
4508 3
4509 4
4510 35
4511 4
4512 16
4513 13
4514 26
4515 18
4516 28
4517 4
4518 10
4519 8
4520 21
4521 12
4522 4
4523 7
4524 43
4525 20
4526 0
4527 27
4528 29
4529 41
4530 29
4531 36
4532 16
4533 37
4534 10
4535 9
4536 15
4537 17
4538 42
4539 30
4540 31
4541 10
4542 37
4543 2
4544 36
4545 10
4546 25
4547 0
4548 25
4549 25
4550 32
4551 37
4552 4
4553 36
4554 2
4555 4
4556 0
4557 1
4558 14
4559 37
4560 40
4561 25
4562 4
4563 19
4564 22
4565 30
4566 5
4567 18
4568 8
4569 19
4570 18
4571 22
4572 4
4573 36
4574 19
4575 35
4576 4
4577 4
4578 4
4579 15
4580 21
4581 33
4582 23
4583 4
4584 33
4585 12
4586 14
4587 27
4588 8
4589 38
4590 12
4591 8
4592 37
4593 4
4594 4
4595 23
4596 4
4597 16
4598 16
4599 41
4600 13
4601 10
4602 33
4603 8
4604 5
4605 18
4606 36
4607 25
4608 7
4609 23
4610 0
4611 12
4612 18
4613 8
4614 34
4615 10
4616 20
4617 20
4618 20
4619 8
4620 38
4621 23
4622 2
4623 8
4624 28
4625 20
4626 6
4627 29
4628 16
4629 21
4630 32
4631 4
4632 19
4633 4
4634 39
4635 14
4636 44
4637 5
4638 4
4639 39
4640 13
4641 23
4642 34
4643 10
4644 10
4645 34
4646 8
4647 4
4648 17
4649 19
4650 4
4651 0
4652 13
4653 5
4654 14
4655 42
4656 20
4657 17
4658 35
4659 13
4660 5
4661 4
4662 12
4663 28
4664 0
4665 8
4666 38
4667 32
4668 12
4669 32
4670 34
4671 17
4672 5
4673 5
4674 37
4675 23
4676 1
4677 7
4678 42
4679 4
4680 34
4681 28
4682 9
4683 42
4684 7
4685 15
4686 2
4687 29
4688 4
4689 26
4690 23
4691 12
4692 4
4693 6
4694 38
4695 10
4696 11
4697 4
4698 15
4699 7
4700 8
4701 16
4702 18
4703 38
4704 14
4705 11
4706 41
4707 34
4708 4
4709 3
4710 6
4711 38
4712 2
4713 14
4714 29
4715 16
4716 16
4717 3
4718 19
4719 4
4720 13
4721 38
4722 11
4723 30
4724 22
4725 39
4726 20
4727 2
4728 4
4729 6
4730 1
4731 19
4732 40
4733 22
4734 18
4735 22
4736 27
4737 15
4738 37
4739 7
4740 34
4741 5
4742 23
4743 9
4744 26
4745 23
4746 13
4747 38
4748 8
4749 7
4750 38
4751 36
4752 44
4753 4
4754 20
4755 33
4756 36
4757 18
4758 28
4759 17
4760 41
4761 35
4762 20
4763 23
4764 9
4765 2
4766 11
4767 17
4768 28
4769 4
4770 37
4771 4
4772 26
4773 7
4774 28
4775 0
4776 27
4777 12
4778 35
4779 4
4780 4
4781 20
4782 21
4783 10
4784 37
4785 4
4786 7
4787 5
4788 12
4789 30
4790 38
4791 20
4792 15
4793 12
4794 40
4795 23
4796 22
4797 6
4798 37
4799 17
4800 42
4801 35
4802 26
4803 11
4804 13
4805 37
4806 42
4807 21
4808 11
4809 3
4810 28
4811 38
4812 19
4813 8
4814 30
4815 4
4816 38
4817 31
4818 35
4819 13
4820 41
4821 19
4822 28
4823 36
4824 28
4825 44
4826 34
4827 41
4828 34
4829 28
4830 38
4831 21
4832 33
4833 32
4834 4
4835 12
4836 23
4837 44
4838 41
4839 29
4840 22
4841 11
4842 15
4843 37
4844 17
4845 16
4846 25
4847 28
4848 4
4849 37
4850 31
4851 7
4852 31
4853 22
4854 44
4855 8
4856 40
4857 20
4858 17
4859 35
4860 4
4861 12
4862 30
4863 1
4864 37
4865 30
4866 31
4867 37
4868 28
4869 13
4870 12
4871 4
4872 19
4873 16
4874 19
4875 16
4876 41
4877 38
4878 16
4879 28
4880 41
4881 11
4882 5
4883 4
4884 14
4885 26
4886 18
4887 4
4888 43
4889 12
4890 4
4891 12
4892 17
4893 23
4894 21
4895 11
4896 5
4897 26
4898 28
4899 11
4900 7
4901 28
4902 4
4903 17
4904 32
4905 30
4906 5
4907 27
4908 8
4909 38
4910 36
4911 38
4912 35
4913 22
4914 18
4915 19
4916 28
4917 0
4918 20
4919 17
4920 30
4921 7
4922 39
4923 8
4924 37
4925 41
4926 44
4927 8
4928 4
4929 28
4930 0
4931 44
4932 5
4933 2
4934 21
4935 9
4936 28
4937 33
4938 33
4939 36
4940 10
4941 38
4942 8
4943 20
4944 27
4945 6
4946 38
4947 23
4948 17
4949 22
4950 23
4951 27
4952 41
4953 35
4954 41
4955 5
4956 7
4957 7
4958 15
4959 23
4960 2
4961 18
4962 12
4963 43
4964 42
4965 8
4966 9
4967 23
4968 7
4969 43
4970 26
4971 41
4972 10
4973 18
4974 42
4975 24
4976 14
4977 22
4978 0
4979 26
4980 28
4981 37
4982 25
4983 34
4984 2
4985 20
4986 4
4987 15
4988 17
4989 16
4990 16
4991 28
4992 44
4993 37
4994 28
4995 23
4996 44
4997 11
4998 4
4999 4
5000 28
5001 31
5002 27
5003 35
5004 0
5005 4
5006 28
5007 14
5008 5
5009 29
5010 23
5011 16
5012 4
5013 3
5014 14
5015 4
5016 0
5017 42
5018 4
5019 16
5020 4
5021 43
5022 42
5023 4
5024 0
5025 29
5026 7
5027 13
5028 26
5029 12
5030 4
5031 4
5032 28
5033 6
5034 26
5035 2
5036 42
5037 4
5038 19
5039 5
5040 42
5041 36
5042 28
5043 20
5044 16
5045 7
5046 27
5047 7
5048 12
5049 13
5050 6
5051 39
5052 4
5053 4
5054 30
5055 5
5056 42
5057 5
5058 3
5059 13
5060 28
5061 27
5062 34
5063 17
5064 5
5065 17
5066 24
5067 23
5068 17
5069 17
5070 4
5071 20
5072 11
5073 42
5074 13
5075 32
5076 42
5077 35
5078 7
5079 30
5080 4
5081 37
5082 8
5083 4
5084 15
5085 20
5086 29
5087 0
5088 17
5089 28
5090 13
5091 37
5092 0
5093 33
5094 13
5095 12
5096 14
5097 44
5098 33
5099 20
5100 6
5101 36
5102 9
5103 10
5104 39
5105 2
5106 12
5107 2
5108 38
5109 33
5110 39
5111 8
5112 30
5113 43
5114 1
5115 35
5116 12
5117 30
5118 2
5119 16
5120 4
5121 44
5122 14
5123 7
5124 43
5125 4
5126 11
5127 19
5128 5
5129 5
5130 12
5131 20
5132 20
5133 28
5134 4
5135 28
5136 38
5137 44
5138 4
5139 4
5140 2
5141 6
5142 5
5143 24
5144 5
5145 17
5146 16
5147 2
5148 8
5149 10
5150 12
5151 31
5152 19
5153 10
5154 36
5155 17
5156 4
5157 41
5158 0
5159 13
5160 18
5161 23
5162 25
5163 13
5164 5
5165 3
5166 10
5167 5
5168 25
5169 28
5170 7
5171 16
5172 42
5173 21
5174 11
5175 16
5176 20
5177 18
5178 20
5179 20
5180 21
5181 14
5182 42
5183 12
5184 28
5185 10
5186 23
5187 20
5188 4
5189 28
5190 4
5191 32
5192 9
5193 10
5194 44
5195 40
5196 19
5197 12
5198 4
5199 4
5200 26
5201 22
5202 12
5203 33
5204 4
5205 16
5206 17
5207 2
5208 27
5209 18
5210 42
5211 22
5212 7
5213 10
5214 4
5215 10
5216 33
5217 24
5218 16
5219 31
5220 38
5221 4
5222 16
5223 42
5224 30
5225 0
5226 7
5227 4
5228 41
5229 43
5230 5
5231 20
5232 2
5233 10
5234 29
5235 16
5236 23
5237 7
5238 30
5239 36
5240 28
5241 23
5242 15
5243 41
5244 4
5245 6
5246 42
5247 31
5248 12
5249 8
5250 10
5251 7
5252 17
5253 4
5254 4
5255 32
5256 4
5257 2
5258 4
5259 4
5260 8
5261 13
5262 31
5263 18
5264 32
5265 25
5266 34
5267 38
5268 7
5269 42
5270 28
5271 4
5272 22
5273 14
5274 5
5275 32
5276 1
5277 36
5278 5
5279 41
5280 15
5281 38
5282 3
5283 15
5284 41
5285 39
5286 8
5287 20
5288 30
5289 38
5290 40
5291 17
5292 4
5293 4
5294 27
5295 13
5296 4
5297 44
5298 42
5299 13
5300 16
5301 39
5302 10
5303 18
5304 38
5305 18
5306 17
5307 36
5308 17
5309 11
5310 38
5311 4
5312 2
5313 34
5314 39
5315 22
5316 29
5317 6
5318 27
5319 1
5320 33
5321 37
5322 10
5323 9
5324 5
5325 17
5326 4
5327 10
5328 6
5329 5
5330 4
5331 27
5332 1
5333 15
5334 4
5335 5
5336 2
5337 13
5338 0
5339 33
5340 4
5341 13
5342 4
5343 27
5344 5
5345 16
5346 18
5347 32
5348 10
5349 23
5350 18
5351 31
5352 2
5353 28
5354 36
5355 12
5356 20
5357 3
5358 42
5359 32
5360 14
5361 39
5362 42
5363 36
5364 7
5365 34
5366 14
5367 28
5368 28
5369 4
5370 19
5371 4
5372 30
5373 32
5374 44
5375 29
5376 34
5377 41
5378 38
5379 43
5380 28
5381 8
5382 16
5383 36
5384 38
5385 31
5386 24
5387 39
5388 14
5389 4
5390 28
5391 38
5392 34
5393 4
5394 22
5395 15
5396 14
5397 28
5398 28
5399 11
5400 28
5401 20
5402 21
5403 2
5404 42
5405 4
5406 4
5407 11
5408 21
5409 16
5410 12
5411 28
5412 28
5413 22
5414 16
5415 31
5416 17
5417 21
5418 4
5419 4
5420 13
5421 32
5422 0
5423 33
5424 21
5425 41
5426 4
5427 4
5428 32
5429 20
5430 23
5431 8
5432 16
5433 16
5434 7
5435 3
5436 12
5437 21
5438 26
5439 21
5440 8
5441 0
5442 8
5443 13
5444 17
5445 23
5446 4
5447 10
5448 31
5449 4
5450 28
5451 5
5452 28
5453 14
5454 18
5455 8
5456 44
5457 31
5458 2
5459 41
5460 27
5461 11
5462 42
5463 39
5464 0
5465 15
5466 20
5467 4
5468 44
5469 27
5470 2
5471 31
5472 2
5473 18
5474 20
5475 17
5476 23
5477 28
5478 34
5479 38
5480 5
5481 18
5482 21
5483 35
5484 10
5485 11
5486 9
5487 4
5488 12
5489 16
5490 11
5491 29
5492 28
5493 26
5494 24
5495 20
5496 28
5497 23
5498 4
5499 29
5500 10
5501 28
5502 42
5503 23
5504 18
5505 15
5506 10
5507 31
5508 30
5509 35
5510 42
5511 15
5512 8
5513 10
5514 33
5515 4
5516 8
5517 30
5518 44
5519 31
5520 19
5521 17
5522 8
5523 9
5524 17
5525 18
5526 23
5527 41
5528 10
5529 25
5530 16
5531 38
5532 7
5533 13
5534 5
5535 7
5536 25
5537 28
5538 42
5539 13
5540 16
5541 13
5542 13
5543 41
5544 28
5545 4
5546 15
5547 4
5548 29
5549 11
5550 28
5551 16
5552 25
5553 7
5554 31
5555 20
5556 4
5557 30
5558 4
5559 12
5560 38
5561 1
5562 13
5563 8
5564 22
5565 7
5566 41
5567 40
5568 23
5569 30
5570 42
5571 21
5572 34
5573 27
5574 5
5575 20
5576 1
5577 23
5578 4
5579 11
5580 20
5581 40
5582 40
5583 0
5584 27
5585 18
5586 16
5587 39
5588 21
5589 0
5590 15
5591 8
5592 43
5593 38
5594 22
5595 1
5596 14
5597 17
5598 17
5599 34
5600 42
5601 38
5602 40
5603 6
5604 20
5605 5
5606 23
5607 11
5608 4
5609 12
5610 26
5611 23
5612 8
5613 42
5614 29
5615 20
5616 4
5617 2
5618 41
5619 17
5620 4
5621 5
5622 21
5623 26
5624 19
5625 4
5626 40
5627 4
5628 16
5629 4
5630 18
5631 23
5632 8
5633 44
5634 25
5635 19
5636 1
5637 1
5638 25
5639 32
5640 13
5641 11
5642 26
5643 11
5644 34
5645 30
5646 29
5647 13
5648 25
5649 4
5650 4
5651 4
5652 27
5653 38
5654 33
5655 20
5656 4
5657 23
5658 4
5659 38
5660 5
5661 32
5662 7
5663 32
5664 4
5665 32
5666 27
5667 6
5668 22
5669 24
5670 43
5671 30
5672 38
5673 32
5674 5
5675 20
5676 10
5677 16
5678 4
5679 4
5680 18
5681 25
5682 21
5683 33
5684 13
5685 32
5686 36
5687 22
5688 25
5689 18
5690 5
5691 2
5692 4
5693 33
5694 14
5695 7
5696 20
5697 41
5698 0
5699 38
5700 15
5701 7
5702 34
5703 13
5704 28
5705 4
5706 21
5707 22
5708 6
5709 34
5710 6
5711 15
5712 15
5713 23
5714 4
5715 4
5716 44
5717 10
5718 0
5719 4
5720 20
5721 42
5722 19
5723 10
5724 28
5725 17
5726 25
5727 23
5728 11
5729 16
5730 14
5731 8
5732 7
5733 20
5734 41
5735 21
5736 35
5737 28
5738 5
5739 23
5740 4
5741 17
5742 33
5743 28
5744 10
5745 23
5746 11
5747 14
5748 1
5749 32
5750 3
5751 1
5752 34
5753 18
5754 27
5755 38
5756 44
5757 31
5758 12
5759 19
5760 0
5761 23
5762 28
5763 31
5764 3
5765 8
5766 0
5767 34
5768 16
5769 44
5770 4
5771 21
5772 7
5773 2
5774 4
5775 28
5776 32
5777 5
5778 38
5779 40
5780 4
5781 4
5782 21
5783 11
5784 12
5785 15
5786 28
5787 27
5788 30
5789 37
5790 36
5791 4
5792 0
5793 4
5794 19
5795 32
5796 21
5797 22
5798 37
5799 44
5800 13
5801 13
5802 4
5803 34
5804 4
5805 22
5806 42
5807 23
5808 37
5809 25
5810 26
5811 20
5812 18
5813 4
5814 38
5815 16
5816 12
5817 13
5818 38
5819 30
5820 3
5821 4
5822 19
5823 14
5824 5
5825 23
5826 31
5827 38
5828 27
5829 44
5830 10
5831 7
5832 4
5833 44
5834 41
5835 37
5836 12
5837 4
5838 0
5839 35
5840 2
5841 44
5842 4
5843 5
5844 7
5845 4
5846 2
5847 42
5848 38
5849 20
5850 40
5851 22
5852 43
5853 40
5854 24
5855 36
5856 28
5857 12
5858 5
5859 34
5860 29
5861 12
5862 4
5863 28
5864 2
5865 16
5866 18
5867 1
5868 36
5869 32
5870 22
5871 39
5872 8
5873 22
5874 4
5875 42
5876 19
5877 35
5878 29
5879 11
5880 33
5881 4
5882 43
5883 19
5884 28
5885 36
5886 19
5887 21
5888 20
5889 23
5890 23
5891 33
5892 28
5893 43
5894 42
5895 40
5896 12
5897 44
5898 11
5899 27
5900 5
5901 5
5902 4
5903 35
5904 18
5905 10
5906 17
5907 0
5908 38
5909 4
5910 21
5911 10
5912 16
5913 34
5914 31
5915 2
5916 4
5917 28
5918 6
5919 37
5920 15
5921 22
5922 27
5923 7
5924 0
5925 1
5926 16
5927 24
5928 22
5929 41
5930 21
5931 1
5932 2
5933 39
5934 4
5935 44
5936 20
5937 7
5938 10
5939 23
5940 12
5941 10
5942 2
5943 40
5944 22
5945 8
5946 4
5947 37
5948 1
5949 21
5950 33
5951 4
5952 32
5953 10
5954 15
5955 40
5956 17
5957 25
5958 42
5959 11
5960 29
5961 5
5962 22
5963 4
5964 4
5965 4
5966 44
5967 6
5968 4
5969 1
5970 10
5971 33
5972 4
5973 41
5974 30
5975 16
5976 23
5977 27
5978 44
5979 42
5980 3
5981 29
5982 4
5983 9
5984 4
5985 34
5986 4
5987 4
5988 31
5989 6
5990 14
5991 24
5992 37
5993 37
5994 20
5995 20
5996 34
5997 4
5998 0
5999 27
6000 41
6001 22
6002 23
6003 8
6004 11
6005 28
6006 28
6007 4
6008 6
6009 5
6010 31
6011 35
6012 35
6013 8
6014 35
6015 4
6016 6
6017 12
6018 32
6019 19
6020 13
6021 7
6022 43
6023 9
6024 12
6025 25
6026 12
6027 28
6028 31
6029 23
6030 28
6031 21
6032 20
6033 25
6034 10
6035 42
6036 4
6037 31
6038 40
6039 28
6040 11
6041 7
6042 35
6043 0
6044 17
6045 12
6046 4
6047 4
6048 14
6049 38
6050 22
6051 20
6052 32
6053 4
6054 8
6055 41
6056 7
6057 6
6058 16
6059 19
6060 4
6061 16
6062 8
6063 4
6064 0
6065 4
6066 15
6067 1
6068 6
6069 32
6070 22
6071 36
6072 5
6073 2
6074 30
6075 44
6076 8
6077 6
6078 29
6079 32
6080 28
6081 4
6082 2
6083 22
6084 28
6085 5
6086 4
6087 28
6088 17
6089 33
6090 28
6091 19
6092 44
6093 4
6094 4
6095 13
6096 4
6097 43
6098 13
6099 9
6100 8
6101 16
6102 43
6103 7
6104 4
6105 35
6106 26
6107 7
6108 23
6109 7
6110 40
6111 21
6112 34
6113 20
6114 38
6115 0
6116 4
6117 36
6118 4
6119 13
6120 4
6121 21
6122 23
6123 15
6124 3
6125 32
6126 27
6127 37
6128 2
6129 36
6130 0
6131 23
6132 35
6133 10
6134 31
6135 43
6136 0
6137 4
6138 18
6139 5
6140 16
6141 4
6142 13
6143 10
6144 4
6145 21
6146 41
6147 4
6148 4
6149 23
6150 4
6151 39
6152 17
6153 40
6154 4
6155 13
6156 41
6157 7
6158 19
6159 6
6160 34
6161 31
6162 20
6163 19
6164 22
6165 27
6166 33
6167 4
6168 1
6169 12
6170 32
6171 6
6172 5
6173 4
6174 19
6175 6
6176 8
6177 41
6178 20
6179 15
6180 13
6181 12
6182 31
6183 17
6184 9
6185 28
6186 30
6187 4
6188 8
6189 44
6190 0
6191 16
6192 1
6193 10
6194 4
6195 6
6196 5
6197 18
6198 28
6199 6
6200 26
6201 32
6202 7
6203 41
6204 13
6205 3
6206 33
6207 10
6208 28
6209 30
6210 10
6211 20
6212 5
6213 15
6214 4
6215 41
6216 32
6217 13
6218 4
6219 5
6220 4
6221 25
6222 25
6223 43
6224 3
6225 41
6226 16
6227 4
6228 44
6229 12
6230 15
6231 17
6232 0
6233 6
6234 26
6235 7
6236 10
6237 1
6238 8
6239 16
6240 31
6241 42
6242 5
6243 39
6244 14
6245 4
6246 5
6247 2
6248 38
6249 10
6250 41
6251 27
6252 35
6253 23
6254 4
6255 4
6256 20
6257 2
6258 17
6259 21
6260 16
6261 44
6262 44
6263 12
6264 10
6265 14
6266 37
6267 30
6268 43
6269 38
6270 38
6271 32
6272 16
6273 23
6274 5
6275 21
6276 4
6277 12
6278 10
6279 4
6280 2
6281 20
6282 0
6283 38
6284 14
6285 15
6286 34
6287 18
6288 28
6289 13
6290 22
6291 4
6292 41
6293 23
6294 14
6295 35
6296 18
6297 40
6298 30
6299 42
6300 4
6301 6
6302 5
6303 44
6304 4
6305 27
6306 12
6307 20
6308 23
6309 43
6310 33
6311 8
6312 20
6313 32
6314 33
6315 21
6316 4
6317 23
6318 27
6319 28
6320 26
6321 34
6322 21
6323 4
6324 13
6325 29
6326 1
6327 44
6328 22
6329 4
6330 23
6331 22
6332 7
6333 22
6334 4
6335 13
6336 16
6337 19
6338 28
6339 14
6340 16
6341 16
6342 38
6343 0
6344 8
6345 29
6346 19
6347 0
6348 31
6349 4
6350 44
6351 29
6352 19
6353 24
6354 32
6355 31
6356 36
6357 22
6358 4
6359 34
6360 10
6361 22
6362 33
6363 12
6364 20
6365 19
6366 17
6367 31
6368 4
6369 32
6370 21
6371 16
6372 7
6373 43
6374 4
6375 2
6376 7
6377 9
6378 5
6379 25
6380 6
6381 29
6382 23
6383 4
6384 30
6385 19
6386 22
6387 6
6388 10
6389 16
6390 12
6391 17
6392 38
6393 11
6394 41
6395 38
6396 41
6397 41
6398 4
6399 28
6400 4
6401 8
6402 0
6403 0
6404 27
6405 5
6406 16
6407 17
6408 17
6409 2
6410 8
6411 2
6412 36
6413 25
6414 21
6415 4
6416 22
6417 10
6418 0
6419 43
6420 12
6421 20
6422 8
6423 15
6424 0
6425 20
6426 4
6427 5
6428 4
6429 4
6430 23
6431 25
6432 20
6433 10
6434 12
6435 38
6436 13
6437 43
6438 10
6439 4
6440 4
6441 19
6442 28
6443 44
6444 13
6445 14
6446 28
6447 27
6448 8
6449 34
6450 28
6451 23
6452 10
6453 30
6454 26
6455 33
6456 8
6457 19
6458 2
6459 0
6460 32
6461 36
6462 4
6463 23
6464 11
6465 20
6466 4
6467 32
6468 17
6469 13
6470 28
6471 19
6472 19
6473 20
6474 33
6475 10
6476 33
6477 41
6478 0
6479 10
6480 4
6481 29
6482 8
6483 28
6484 11
6485 26
6486 4
6487 16
6488 19
6489 5
6490 32
6491 4
6492 13
6493 38
6494 5
6495 25
6496 33
6497 17
6498 27
6499 22
6500 35
6501 23
6502 19
6503 4
6504 13
6505 40
6506 5
6507 15
6508 4
6509 29
6510 16
6511 24
6512 34
6513 4
6514 43
6515 5
6516 14
6517 8
6518 42
6519 20
6520 9
6521 41
6522 42
6523 32
6524 20
6525 25
6526 27
6527 10
6528 4
6529 41
6530 15
6531 25
6532 5
6533 37
6534 44
6535 15
6536 4
6537 3
6538 37
6539 29
6540 21
6541 4
6542 16
6543 8
6544 41
6545 4
6546 36
6547 18
6548 10
6549 19
6550 27
6551 34
6552 23
6553 16
6554 26
6555 34
6556 4
6557 24
6558 39
6559 12
6560 21
6561 4
6562 12
6563 10
6564 20
6565 6
6566 38
6567 32
6568 15
6569 19
6570 16
6571 0
6572 30
6573 4
6574 4
6575 6
6576 30
6577 7
6578 42
6579 20
6580 7
6581 16
6582 41
6583 42
6584 24
6585 8
6586 2
6587 29
6588 4
6589 10
6590 17
6591 0
6592 3
6593 24
6594 20
6595 6
6596 5
6597 44
6598 32
6599 6
6600 4
6601 25
6602 11
6603 16
6604 20
6605 20
6606 39
6607 22
6608 13
6609 32
6610 28
6611 29
6612 5
6613 17
6614 17
6615 23
6616 28
6617 37
6618 7
6619 7
6620 7
6621 27
6622 28
6623 38
6624 40
6625 12
6626 4
6627 28
6628 36
6629 1
6630 19
6631 21
6632 5
6633 0
6634 35
6635 27
6636 31
6637 40
6638 7
6639 8
6640 16
6641 4
6642 2
6643 10
6644 27
6645 1
6646 10
6647 4
6648 28
6649 25
6650 27
6651 17
6652 4
6653 16
6654 28
6655 10
6656 43
6657 19
6658 44
6659 37
6660 29
6661 21
6662 4
6663 18
6664 7
6665 8
6666 33
6667 4
6668 16
6669 17
6670 31
6671 8
6672 3
6673 4
6674 38
6675 26
6676 4
6677 2
6678 34
6679 21
6680 17
6681 22
6682 15
6683 40
6684 21
6685 29
6686 38
6687 19
6688 19
6689 19
6690 8
6691 35
6692 3
6693 11
6694 27
6695 15
6696 6
6697 20
6698 37
6699 4
6700 44
6701 13
6702 12
6703 39
6704 4
6705 18
6706 1
6707 31
6708 4
6709 32
6710 16
6711 23
6712 3
6713 28
6714 39
6715 9
6716 24
6717 23
6718 4
6719 19
6720 13
6721 8
6722 8
6723 41
6724 5
6725 0
6726 28
6727 14
6728 22
6729 29
6730 26
6731 22
6732 21
6733 11
6734 4
6735 9
6736 42
6737 4
6738 11
6739 19
6740 4
6741 4
6742 38
6743 0
6744 26
6745 14
6746 23
6747 16
6748 37
6749 8
6750 0
6751 5
6752 34
6753 13
6754 0
6755 25
6756 39
6757 37
6758 14
6759 4
6760 19
6761 4
6762 34
6763 23
6764 7
6765 8
6766 3
6767 13
6768 12
6769 12
6770 27
6771 10
6772 37
6773 10
6774 5
6775 13
6776 10
6777 19
6778 2
6779 10
6780 20
6781 4
6782 6
6783 28
6784 12
6785 37
6786 37
6787 21
6788 2
6789 31
6790 6
6791 4
6792 5
6793 4
6794 8
6795 21
6796 27
6797 15
6798 13
6799 4
6800 19
6801 6
6802 19
6803 36
6804 38
6805 8
6806 0
6807 13
6808 13
6809 9
6810 20
6811 22
6812 4
6813 36
6814 4
6815 4
6816 8
6817 9
6818 32
6819 40
6820 15
6821 27
6822 12
6823 25
6824 12
6825 15
6826 34
6827 30
6828 21
6829 30
6830 13
6831 34
6832 6
6833 7
6834 16
6835 4
6836 4
6837 9
6838 36
6839 4
6840 20
6841 34
6842 29
6843 12
6844 1
6845 25
6846 34
6847 3
6848 14
6849 10
6850 4
6851 35
6852 16
6853 31
6854 38
6855 23
6856 13
6857 43
6858 4
6859 35
6860 2
6861 2
6862 22
6863 3
6864 42
6865 4
6866 4
6867 3
6868 34
6869 30
6870 32
6871 4
6872 23
6873 35
6874 31
6875 32
6876 27
6877 1
6878 21
6879 10
6880 4
6881 6
6882 4
6883 13
6884 4
6885 27
6886 11
6887 16
6888 41
6889 32
6890 5
6891 4
6892 4
6893 37
6894 16
6895 42
6896 39
6897 19
6898 34
6899 11
6900 4
6901 34
6902 14
6903 13
6904 6
6905 8
6906 19
6907 25
6908 14
6909 8
6910 33
6911 23
6912 5
6913 20
6914 28
6915 18
6916 40
6917 0
6918 12
6919 16
6920 37
6921 16
6922 4
6923 5
6924 25
6925 32
6926 17
6927 16
6928 35
6929 18
6930 38
6931 22
6932 15
6933 31
6934 31
6935 12
6936 33
6937 19
6938 4
6939 18
6940 44
6941 31
6942 4
6943 2
6944 14
6945 9
6946 41
6947 44
6948 14
6949 16
6950 27
6951 7
6952 10
6953 39
6954 41
6955 37
6956 36
6957 18
6958 16
6959 41
6960 10
6961 16
6962 7
6963 21
6964 38
6965 29
6966 14
6967 38
6968 32
6969 16
6970 13
6971 4
6972 42
6973 10
6974 27
6975 12
6976 41
6977 40
6978 20
6979 13
6980 33
6981 6
6982 35
6983 4
6984 40
6985 4
6986 5
6987 18
6988 18
6989 9
6990 4
6991 38
6992 17
6993 26
6994 5
6995 23
6996 27
6997 25
6998 39
6999 2
7000 10
7001 8
7002 16
7003 20
7004 20
7005 16
7006 0
7007 41
7008 22
7009 4
7010 4
7011 30
7012 0
7013 17
7014 16
7015 5
7016 16
7017 28
7018 29
7019 16
7020 6
7021 13
7022 23
7023 8
7024 16
7025 15
7026 4
7027 14
7028 28
7029 11
7030 4
7031 15
7032 38
7033 10
7034 16
7035 4
7036 4
7037 19
7038 40
7039 15
7040 22
7041 21
7042 4
7043 20
7044 39
7045 1
7046 14
7047 30
7048 26
7049 20
7050 8
7051 4
7052 29
7053 13
7054 16
7055 28
7056 4
7057 16
7058 28
7059 17
7060 41
7061 9
7062 8
7063 19
7064 6
7065 4
7066 31
7067 13
7068 2
7069 32
7070 44
7071 20
7072 28
7073 4
7074 38
7075 28
7076 17
7077 40
7078 10
7079 22
7080 3
7081 17
7082 4
7083 4
7084 4
7085 14
7086 26
7087 19
7088 13
7089 41
7090 14
7091 16
7092 13
7093 3
7094 7
7095 11
7096 19
7097 8
7098 33
7099 44
7100 33
7101 16
7102 38
7103 0
7104 21
7105 18
7106 16
7107 5
7108 34
7109 19
7110 23
7111 13
7112 4
7113 23
7114 4
7115 4
7116 17
7117 14
7118 42
7119 44
7120 4
7121 30
7122 24
7123 30
7124 4
7125 41
7126 4
7127 31
7128 13
7129 23
7130 29
7131 14
7132 23
7133 5
7134 20
7135 16
7136 43
7137 20
7138 4
7139 37
7140 37
7141 16
7142 5
7143 37
7144 6
7145 28
7146 3
7147 4
7148 28
7149 13
7150 23
7151 5
7152 43
7153 23
7154 4
7155 10
7156 44
7157 26
7158 30
7159 29
7160 5
7161 13
7162 14
7163 41
7164 33
7165 38
7166 19
7167 13
7168 15
7169 35
7170 3
7171 6
7172 18
7173 31
7174 18
7175 11
7176 38
7177 4
7178 44
7179 7
7180 22
7181 4
7182 14
7183 16
7184 34
7185 20
7186 11
7187 1
7188 35
7189 31
7190 18
7191 28
7192 38
7193 28
7194 30
7195 26
7196 0
7197 25
7198 27
7199 32
7200 40
7201 29
7202 30
7203 19
7204 4
7205 15
7206 36
7207 4
7208 14
7209 43
7210 13
7211 30
7212 22
7213 6
7214 16
7215 4
7216 42
7217 5
7218 37
7219 4
7220 41
7221 36
7222 4
7223 32
7224 34
7225 20
7226 35
7227 2
7228 8
7229 33
7230 26
7231 42
7232 29
7233 4
7234 1
7235 27
7236 4
7237 31
7238 2
7239 29
7240 23
7241 4
7242 44
7243 39
7244 40
7245 38
7246 15
7247 37
7248 36
7249 27
7250 17
7251 27
7252 28
7253 42
7254 23
7255 12
7256 10
7257 28
7258 26
7259 11
7260 14
7261 13
7262 36
7263 8
7264 4
7265 38
7266 22
7267 4
7268 20
7269 41
7270 9
7271 16
7272 36
7273 7
7274 28
7275 12
7276 43
7277 33
7278 10
7279 37
7280 8
7281 1
7282 27
7283 40
7284 7
7285 41
7286 18
7287 34
7288 14
7289 4
7290 29
7291 20
7292 8
7293 3
7294 18
7295 9
7296 8
7297 13
7298 43
7299 30
7300 18
7301 19
7302 8
7303 11
7304 15
7305 4
7306 1
7307 22
7308 4
7309 19
7310 20
7311 11
7312 8
7313 4
7314 4
7315 4
7316 37
7317 17
7318 37
7319 43
7320 27
7321 20
7322 8
7323 4
7324 12
7325 20
7326 16
7327 22
7328 38
7329 7
7330 34
7331 11
7332 32
7333 11
7334 23
7335 20
7336 6
7337 16
7338 38
7339 4
7340 4
7341 9
7342 13
7343 4
7344 9
7345 9
7346 28
7347 10
7348 43
7349 6
7350 32
7351 4
7352 2
7353 23
7354 21
7355 4
7356 29
7357 34
7358 13
7359 40
7360 4
7361 15
7362 14
7363 0
7364 0
7365 34
7366 10
7367 43
7368 5
7369 41
7370 42
7371 13
7372 32
7373 7
7374 28
7375 16
7376 20
7377 10
7378 4
7379 21
7380 32
7381 10
7382 23
7383 4
7384 23
7385 9
7386 2
7387 26
7388 33
7389 37
7390 28
7391 41
7392 32
7393 11
7394 4
7395 4
7396 10
7397 13
7398 4
7399 20
7400 23
7401 9
7402 43
7403 43
7404 4
7405 16
7406 33
7407 17
7408 20
7409 17
7410 29
7411 17
7412 7
7413 38
7414 27
7415 43
7416 4
7417 29
7418 44
7419 13
7420 8
7421 31
7422 35
7423 11
7424 19
7425 10
7426 43
7427 14
7428 36
7429 4
7430 10
7431 16
7432 27
7433 16
7434 4
7435 39
7436 25
7437 4
7438 14
7439 21
7440 14
7441 16
7442 4
7443 21
7444 12
7445 40
7446 4
7447 13
7448 29
7449 36
7450 4
7451 17
7452 38
7453 28
7454 20
7455 16
7456 19
7457 37
7458 17
7459 1
7460 25
7461 4
7462 13
7463 0
7464 39
7465 43
7466 8
7467 5
7468 4
7469 30
7470 27
7471 37
7472 23
7473 39
7474 13
7475 16
7476 0
7477 7
7478 8
7479 15
7480 7
7481 22
7482 28
7483 42
7484 4
7485 4
7486 26
7487 3
7488 36
7489 32
7490 4
7491 21
7492 21
7493 4
7494 21
7495 14
7496 4
7497 14
7498 16
7499 15
7500 27
7501 42
7502 4
7503 11
7504 6
7505 12
7506 27
7507 7
7508 33
7509 15
7510 16
7511 13
7512 9
7513 5
7514 4
7515 32
7516 41
7517 26
7518 41
7519 5
7520 17
7521 23
7522 1
7523 4
7524 39
7525 20
7526 6
7527 4
7528 15
7529 22
7530 3
7531 17
7532 10
7533 24
7534 40
7535 4
7536 2
7537 38
7538 12
7539 21
7540 8
7541 16
7542 8
7543 33
7544 26
7545 20
7546 8
7547 12
7548 21
7549 18
7550 42
7551 15
7552 33
7553 4
7554 16
7555 1
7556 26
7557 19
7558 40
7559 7
7560 19
7561 37
7562 27
7563 23
7564 4
7565 4
7566 19
7567 16
7568 7
7569 4
7570 2
7571 0
7572 26
7573 37
7574 28
7575 4
7576 18
7577 23
7578 13
7579 44
7580 4
7581 29
7582 4
7583 15
7584 17
7585 22
7586 13
7587 5
7588 16
7589 20
7590 21
7591 26
7592 6
7593 12
7594 4
7595 4
7596 35
7597 13
7598 4
7599 44
7600 13
7601 42
7602 23
7603 31
7604 15
7605 5
7606 4
7607 32
7608 34
7609 12
7610 22
7611 28
7612 20
7613 15
7614 4
7615 27
7616 16
7617 10
7618 22
7619 24
7620 1
7621 20
7622 39
7623 44
7624 4
7625 26
7626 29
7627 39
7628 20
7629 22
7630 2
7631 22
7632 23
7633 4
7634 6
7635 16
7636 1
7637 26
7638 28
7639 39
7640 11
7641 35
7642 44
7643 31
7644 33
7645 44
7646 39
7647 38
7648 18
7649 12
7650 4
7651 4
7652 41
7653 32
7654 8
7655 7
7656 5
7657 39
7658 12
7659 2
7660 44
7661 21
7662 41
7663 13
7664 10
7665 17
7666 4
7667 29
7668 30
7669 11
7670 7
7671 28
7672 12
7673 4
7674 17
7675 0
7676 38
7677 16
7678 20
7679 21
7680 44
7681 16
7682 28
7683 21
7684 39
7685 36
7686 5
7687 2
7688 7
7689 44
7690 37
7691 42
7692 27
7693 10
7694 13
7695 4
7696 38
7697 4
7698 4
7699 16
7700 28
7701 32
7702 15
7703 22
7704 41
7705 29
7706 12
7707 20
7708 25
7709 27
7710 22
7711 0
7712 4
7713 0
7714 43
7715 18
7716 5
7717 15
7718 4
7719 6
7720 2
7721 13
7722 42
7723 4
7724 37
7725 37
7726 13
7727 32
7728 28
7729 21
7730 34
7731 22
7732 14
7733 2
7734 17
7735 13
7736 23
7737 23
7738 42
7739 25
7740 18
7741 19
7742 25
7743 27
7744 16
7745 4
7746 20
7747 23
7748 0
7749 44
7750 6
7751 24
7752 43
7753 24
7754 4
7755 38
7756 20
7757 16
7758 1
7759 2
7760 4
7761 0
7762 19
7763 10
7764 20
7765 21
7766 20
7767 5
7768 41
7769 4
7770 40
7771 6
7772 22
7773 44
7774 21
7775 34
7776 0
7777 12
7778 4
7779 1
7780 6
7781 16
7782 9
7783 5
7784 38
7785 33
7786 41
7787 29
7788 12
7789 5
7790 8
7791 44
7792 22
7793 16
7794 5
7795 28
7796 11
7797 4
7798 2
7799 9
7800 2
7801 6
7802 40
7803 19
7804 20
7805 13
7806 4
7807 14
7808 10
7809 4
7810 33
7811 4
7812 35
7813 4
7814 8
7815 7
7816 31
7817 34
7818 36
7819 5
7820 29
7821 13
7822 20
7823 43
7824 6
7825 12
7826 0
7827 0
7828 8
7829 21
7830 10
7831 43
7832 8
7833 4
7834 6
7835 17
7836 20
7837 1
7838 14
7839 29
7840 4
7841 25
7842 32
7843 2
7844 35
7845 6
7846 23
7847 22
7848 22
7849 22
7850 22
7851 20
7852 10
7853 11
7854 13
7855 32
7856 12
7857 6
7858 41
7859 4
7860 8
7861 19
7862 0
7863 15
7864 32
7865 28
7866 4
7867 1
7868 8
7869 14
7870 10
7871 2
7872 36
7873 5
7874 32
7875 28
7876 27
7877 16
7878 38
7879 37
7880 4
7881 40
7882 20
7883 32
7884 23
7885 5
7886 4
7887 2
7888 38
7889 4
7890 43
7891 5
7892 10
7893 20
7894 32
7895 4
7896 14
7897 23
7898 17
7899 16
7900 31
7901 1
7902 42
7903 20
7904 4
7905 39
7906 7
7907 23
7908 27
7909 11
7910 22
7911 33
7912 10
7913 6
7914 30
7915 44
7916 44
7917 21
7918 38
7919 22
7920 21
7921 28
7922 20
7923 22
7924 8
7925 13
7926 28
7927 42
7928 31
7929 19
7930 32
7931 30
7932 12
7933 30
7934 7
7935 12
7936 23
7937 36
7938 34
7939 4
7940 33
7941 0
7942 31
7943 40
7944 13
7945 20
7946 2
7947 4
7948 37
7949 32
7950 5
7951 29
7952 28
7953 42
7954 16
7955 22
7956 35
7957 11
7958 16
7959 4
7960 5
7961 12
7962 10
7963 4
7964 23
7965 26
7966 2
7967 8
7968 30
7969 0
7970 31
7971 10
7972 4
7973 44
7974 0
7975 4
7976 0
7977 28
7978 14
7979 40
7980 0
7981 11
7982 14
7983 21
7984 15
7985 15
7986 4
7987 16
7988 10
7989 8
7990 44
7991 8
7992 28
7993 32
7994 0
7995 12
7996 4
7997 17
7998 11
7999 20
8000 20
8001 4
8002 4
8003 4
8004 13
8005 4
8006 28
8007 27
8008 33
8009 1
8010 12
8011 0
8012 31
8013 4
8014 6
8015 43
8016 7
8017 15
8018 16
8019 44
8020 15
8021 21
8022 10
8023 0
8024 4
8025 35
8026 44
8027 29
8028 4
8029 20
8030 10
8031 13
8032 33
8033 7
8034 3
8035 0
8036 6
8037 24
8038 11
8039 11
8040 31
8041 42
8042 17
8043 42
8044 41
8045 20
8046 8
8047 36
8048 31
8049 4
8050 41
8051 37
8052 18
8053 11
8054 18
8055 31
8056 4
8057 37
8058 37
8059 17
8060 27
8061 21
8062 21
8063 29
8064 20
8065 11
8066 35
8067 42
8068 28
8069 1
8070 11
8071 41
8072 3
8073 25
8074 23
8075 23
8076 35
8077 23
8078 6
8079 16
8080 4
8081 5
8082 34
8083 41
8084 26
8085 32
8086 13
8087 44
8088 36
8089 20
8090 13
8091 22
8092 44
8093 0
8094 33
8095 10
8096 4
8097 20
8098 11
8099 13
8100 15
8101 1
8102 30
8103 12
8104 4
8105 4
8106 10
8107 2
8108 27
8109 33
8110 21
8111 20
8112 18
8113 31
8114 14
8115 8
8116 9
8117 16
8118 20
8119 17
8120 4
8121 17
8122 9
8123 15
8124 4
8125 10
8126 12
8127 11
8128 20
8129 29
8130 32
8131 32
8132 30
8133 3
8134 37
8135 10
8136 14
8137 0
8138 44
8139 23
8140 16
8141 4
8142 22
8143 19
8144 37
8145 44
8146 10
8147 23
8148 10
8149 23
8150 4
8151 28
8152 37
8153 4
8154 39
8155 4
8156 6
8157 24
8158 3
8159 0
8160 4
8161 30
8162 4
8163 16
8164 9
8165 7
8166 28
8167 4
8168 27
8169 11
8170 43
8171 31
8172 4
8173 19
8174 18
8175 18
8176 28
8177 13
8178 4
8179 29
8180 30
8181 7
8182 8
8183 12
8184 4
8185 17
8186 32
8187 8
8188 40
8189 0
8190 42
8191 17
8192 16
8193 39
8194 27
8195 4
8196 8
8197 22
8198 16
8199 29
8200 20
8201 36
8202 27
8203 42
8204 41
8205 34
8206 31
8207 29
8208 39
8209 20
8210 26
8211 8
8212 16
8213 22
8214 33
8215 7
8216 23
8217 4
8218 35
8219 4
8220 12
8221 17
8222 10
8223 21
8224 4
8225 38
8226 4
8227 4
8228 8
8229 8
8230 39
8231 23
8232 4
8233 14
8234 4
8235 43
8236 5
8237 24
8238 41
8239 20
8240 40
8241 12
8242 32
8243 10
8244 19
8245 44
8246 37
8247 9
8248 44
8249 32
8250 4
8251 12
8252 8
8253 13
8254 29
8255 22
8256 23
8257 36
8258 29
8259 16
8260 4
8261 8
8262 22
8263 11
8264 17
8265 35
8266 16
8267 8
8268 33
8269 19
8270 20
8271 42
8272 16
8273 7
8274 35
8275 44
8276 20
8277 4
8278 28
8279 33
8280 4
8281 15
8282 30
8283 42
8284 34
8285 4
8286 44
8287 39
8288 21
8289 32
8290 19
8291 16
8292 12
8293 8
8294 42
8295 28
8296 25
8297 14
8298 3
8299 4
8300 8
8301 38
8302 0
8303 10
8304 10
8305 22
8306 13
8307 40
8308 11
8309 14
8310 31
8311 15
8312 11
8313 30
8314 14
8315 19
8316 29
8317 38
8318 28
8319 19
8320 41
8321 4
8322 21
8323 34
8324 38
8325 4
8326 27
8327 26
8328 31
8329 34
8330 11
8331 29
8332 22
8333 41
8334 4
8335 10
8336 1
8337 4
8338 4
8339 5
8340 11
8341 5
8342 8
8343 18
8344 40
8345 42
8346 44
8347 4
8348 27
8349 31
8350 39
8351 4
8352 0
8353 40
8354 44
8355 4
8356 4
8357 31
8358 37
8359 1
8360 13
8361 28
8362 20
8363 5
8364 13
8365 16
8366 25
8367 3
8368 4
8369 15
8370 16
8371 4
8372 4
8373 16
8374 15
8375 12
8376 34
8377 23
8378 5
8379 20
8380 31
8381 20
8382 0
8383 39
8384 8
8385 22
8386 38
8387 0
8388 16
8389 34
8390 12
8391 32
8392 42
8393 9
8394 38
8395 4
8396 32
8397 28
8398 19
8399 20
8400 12
8401 4
8402 30
8403 13
8404 28
8405 0
8406 7
8407 29
8408 33
8409 15
8410 12
8411 22
8412 4
8413 32
8414 10
8415 13
8416 23
8417 4
8418 43
8419 34
8420 28
8421 4
8422 40
8423 12
8424 43
8425 8
8426 4
8427 5
8428 4
8429 20
8430 20
8431 41
8432 7
8433 10
8434 1
8435 20
8436 27
8437 20
8438 23
8439 0
8440 7
8441 25
8442 13
8443 21
8444 0
8445 33
8446 16
8447 44
8448 8
8449 1
8450 38
8451 11
8452 1
8453 42
8454 4
8455 23
8456 5
8457 10
8458 29
8459 8
8460 4
8461 12
8462 7
8463 6
8464 4
8465 11
8466 4
8467 6
8468 4
8469 16
8470 7
8471 21
8472 23
8473 17
8474 23
8475 1
8476 14
8477 20
8478 1
8479 0
8480 16
8481 20
8482 37
8483 9
8484 12
8485 15
8486 18
8487 4
8488 29
8489 22
8490 44
8491 21
8492 5
8493 38
8494 1
8495 36
8496 41
8497 28
8498 44
8499 13
8500 10
8501 27
8502 7
8503 7
8504 44
8505 12
8506 42
8507 32
8508 30
8509 14
8510 2
8511 22
8512 32
8513 8
8514 20
8515 17
8516 40
8517 11
8518 28
8519 4
8520 6
8521 30
8522 14
8523 32
8524 4
8525 38
8526 36
8527 4
8528 4
8529 2
8530 4
8531 7
8532 4
8533 15
8534 3
8535 4
8536 22
8537 23
8538 34
8539 43
8540 6
8541 35
8542 1
8543 28
8544 10
8545 10
8546 18
8547 30
8548 15
8549 28
8550 34
8551 4
8552 8
8553 16
8554 20
8555 30
8556 4
8557 22
8558 44
8559 22
8560 4
8561 15
8562 4
8563 32
8564 26
8565 28
8566 44
8567 32
8568 31
8569 11
8570 18
8571 5
8572 6
8573 33
8574 4
8575 0
8576 36
8577 14
8578 4
8579 14
8580 44
8581 27
8582 23
8583 21
8584 4
8585 3
8586 42
8587 4
8588 20
8589 28
8590 5
8591 23
8592 43
8593 15
8594 37
8595 30
8596 7
8597 28
8598 6
8599 5
8600 39
8601 33
8602 3
8603 43
8604 19
8605 9
8606 12
8607 3
8608 41
8609 23
8610 8
8611 8
8612 30
8613 35
8614 8
8615 7
8616 10
8617 4
8618 3
8619 2
8620 18
8621 21
8622 18
8623 13
8624 28
8625 19
8626 39
8627 12
8628 26
8629 17
8630 14
8631 25
8632 5
8633 44
8634 15
8635 10
8636 4
8637 14
8638 28
8639 43
8640 7
8641 35
8642 4
8643 38
8644 20
8645 2
8646 4
8647 4
8648 18
8649 38
8650 15
8651 5
8652 21
8653 8
8654 4
8655 38
8656 4
8657 12
8658 43
8659 19
8660 4
8661 41
8662 13
8663 8
8664 3
8665 36
8666 41
8667 20
8668 27
8669 28
8670 4
8671 44
8672 13
8673 16
8674 4
8675 18
8676 42
8677 23
8678 41
8679 39
8680 15
8681 9
8682 43
8683 0
8684 33
8685 2
8686 16
8687 39
8688 32
8689 18
8690 31
8691 7
8692 23
8693 0
8694 32
8695 30
8696 10
8697 19
8698 12
8699 27
8700 19
8701 4
8702 19
8703 4
8704 26
8705 4
8706 32
8707 4
8708 16
8709 28
8710 1
8711 7
8712 28
8713 20
8714 26
8715 32
8716 29
8717 11
8718 1
8719 4
8720 1
8721 4
8722 4
8723 2
8724 2
8725 3
8726 1
8727 4
8728 35
8729 43
8730 23
8731 21
8732 26
8733 9
8734 37
8735 21
8736 34
8737 4
8738 20
8739 28
8740 39
8741 4
8742 23
8743 33
8744 4
8745 1
8746 21
8747 35
8748 5
8749 12
8750 4
8751 16
8752 4
8753 34
8754 4
8755 28
8756 29
8757 4
8758 28
8759 0
8760 30
8761 39
8762 10
8763 13
8764 28
8765 28
8766 12
8767 33
8768 4
8769 16
8770 28
8771 35
8772 43
8773 42
8774 33
8775 4
8776 4
8777 5
8778 42
8779 0
8780 43
8781 10
8782 4
8783 31
8784 27
8785 28
8786 38
8787 23
8788 32
8789 10
8790 35
8791 33
8792 7
8793 10
8794 43
8795 44
8796 6
8797 20
8798 19
8799 25
8800 22
8801 4
8802 42
8803 4
8804 21
8805 21
8806 37
8807 21
8808 7
8809 32
8810 14
8811 4
8812 6
8813 4
8814 18
8815 37
8816 4
8817 25
8818 34
8819 4
8820 4
8821 28
8822 0
8823 37
8824 42
8825 5
8826 42
8827 41
8828 20
8829 35
8830 32
8831 12
8832 41
8833 14
8834 15
8835 20
8836 32
8837 4
8838 4
8839 4
8840 3
8841 10
8842 11
8843 16
8844 42
8845 12
8846 42
8847 2
8848 31
8849 33
8850 37
8851 1
8852 0
8853 20
8854 4
8855 21
8856 31
8857 6
8858 25
8859 7
8860 8
8861 30
8862 44
8863 20
8864 33
8865 34
8866 0
8867 18
8868 23
8869 11
8870 0
8871 14
8872 7
8873 15
8874 27
8875 25
8876 6
8877 4
8878 30
8879 32
8880 44
8881 32
8882 24
8883 40
8884 4
8885 26
8886 8
8887 21
8888 4
8889 13
8890 4
8891 13
8892 31
8893 32
8894 42
8895 17
8896 37
8897 38
8898 4
8899 36
8900 40
8901 4
8902 4
8903 14
8904 3
8905 10
8906 4
8907 4
8908 31
8909 12
8910 22
8911 2
8912 14
8913 43
8914 36
8915 43
8916 8
8917 37
8918 31
8919 13
8920 42
8921 33
8922 16
8923 11
8924 15
8925 41
8926 26
8927 4
8928 0
8929 18
8930 3
8931 1
8932 32
8933 20
8934 8
8935 10
8936 33
8937 2
8938 32
8939 26
8940 34
8941 20
8942 16
8943 0
8944 41
8945 38
8946 2
8947 8
8948 4
8949 10
8950 16
8951 4
8952 23
8953 4
8954 6
8955 22
8956 34
8957 4
8958 31
8959 30
8960 44
8961 15
8962 4
8963 38
8964 18
8965 41
8966 4
8967 14
8968 19
8969 16
8970 28
8971 12
8972 19
8973 29
8974 39
8975 4
8976 17
8977 23
8978 36
8979 0
8980 38
8981 16
8982 38
8983 10
8984 34
8985 2
8986 27
8987 37
8988 12
8989 32
8990 7
8991 10
8992 13
8993 11
8994 23
8995 43
8996 3
8997 40
8998 5
8999 0
9000 31
9001 4
9002 2
9003 28
9004 17
9005 8
9006 34
9007 21
9008 4
9009 31
9010 1
9011 18
9012 35
9013 4
9014 0
9015 5
9016 4
9017 9
9018 5
9019 25
9020 4
9021 4
9022 0
9023 1
9024 14
9025 29
9026 10
9027 4
9028 11
9029 31
9030 12
9031 44
9032 22
9033 4
9034 38
9035 41
9036 11
9037 13
9038 8
9039 12
9040 32
9041 38
9042 41
9043 5
9044 2
9045 18
9046 20
9047 21
9048 1
9049 7
9050 4
9051 31
9052 6
9053 2
9054 0
9055 4
9056 5
9057 16
9058 4
9059 41
9060 13
9061 0
9062 37
9063 22
9064 1
9065 28
9066 7
9067 42
9068 13
9069 32
9070 5
9071 33
9072 4
9073 17
9074 25
9075 4
9076 38
9077 31
9078 4
9079 26
9080 44
9081 37
9082 4
9083 22
9084 10
9085 14
9086 15
9087 39
9088 31
9089 17
9090 22
9091 4
9092 10
9093 0
9094 30
9095 8
9096 14
9097 38
9098 34
9099 23
9100 13
9101 2
9102 21
9103 8
9104 4
9105 0
9106 10
9107 23
9108 29
9109 32
9110 4
9111 12
9112 11
9113 9
9114 0
9115 39
9116 28
9117 28
9118 29
9119 19
9120 6
9121 28
9122 4
9123 6
9124 36
9125 0
9126 4
9127 16
9128 4
9129 32
9130 6
9131 22
9132 4
9133 34
9134 30
9135 24
9136 22
9137 2
9138 28
9139 40
9140 11
9141 12
9142 32
9143 0
9144 15
9145 9
9146 4
9147 4
9148 0
9149 11
9150 38
9151 32
9152 15
9153 8
9154 27
9155 4
9156 37
9157 29
9158 4
9159 16
9160 26
9161 15
9162 13
9163 13
9164 8
9165 4
9166 22
9167 18
9168 4
9169 0
9170 43
9171 5
9172 44
9173 17
9174 19
9175 7
9176 35
9177 6
9178 11
9179 35
9180 30
9181 10
9182 13
9183 13
9184 13
9185 10
9186 16
9187 33
9188 7
9189 38
9190 4
9191 16
9192 23
9193 17
9194 14
9195 4
9196 12
9197 1
9198 13
9199 19
9200 34
9201 8
9202 5
9203 38
9204 7
9205 21
9206 27
9207 32
9208 4
9209 16
9210 16
9211 4
9212 28
9213 14
9214 23
9215 4
9216 25
9217 2
9218 32
9219 12
9220 4
9221 20
9222 11
9223 15
9224 39
9225 17
9226 37
9227 37
9228 16
9229 5
9230 9
9231 33
9232 0
9233 19
9234 6
9235 43
9236 20
9237 19
9238 34
9239 16
9240 17
9241 0
9242 41
9243 1
9244 17
9245 44
9246 32
9247 31
9248 25
9249 5
9250 23
9251 21
9252 2
9253 9
9254 16
9255 16
9256 27
9257 44
9258 18
9259 4
9260 5
9261 41
9262 8
9263 8
9264 0
9265 4
9266 0
9267 4
9268 35
9269 4
9270 36
9271 3
9272 19
9273 31
9274 32
9275 4
9276 29
9277 20
9278 29
9279 4
9280 34
9281 13
9282 43
9283 17
9284 43
9285 21
9286 15
9287 4
9288 38
9289 15
9290 8
9291 21
9292 37
9293 4
9294 42
9295 30
9296 37
9297 4
9298 22
9299 6
9300 4
9301 28
9302 4
9303 42
9304 10
9305 44
9306 17
9307 5
9308 21
9309 7
9310 4
9311 28
9312 13
9313 4
9314 16
9315 5
9316 26
9317 14
9318 38
9319 40
9320 7
9321 16
9322 16
9323 15
9324 4
9325 4
9326 27
9327 12
9328 34
9329 22
9330 4
9331 6
9332 35
9333 3
9334 8
9335 42
9336 12
9337 4
9338 7
9339 2
9340 5
9341 6
9342 20
9343 17
9344 21
9345 32
9346 15
9347 4
9348 22
9349 2
9350 30
9351 19
9352 32
9353 28
9354 12
9355 28
9356 28
9357 41
9358 27
9359 2
9360 19
9361 16
9362 4
9363 6
9364 15
9365 4
9366 21
9367 39
9368 16
9369 17
9370 5
9371 8
9372 35
9373 12
9374 27
9375 6
9376 2
9377 10
9378 32
9379 30
9380 41
9381 4
9382 2
9383 36
9384 8
9385 43
9386 20
9387 19
9388 17
9389 22
9390 44
9391 37
9392 18
9393 3
9394 4
9395 15
9396 14
9397 37
9398 20
9399 17
9400 37
9401 39
9402 17
9403 28
9404 33
9405 32
9406 19
9407 13
9408 5
9409 16
9410 5
9411 18
9412 18
9413 0
9414 30
9415 31
9416 22
9417 23
9418 34
9419 13
9420 3
9421 30
9422 23
9423 23
9424 20
9425 7
9426 4
9427 40
9428 21
9429 22
9430 17
9431 26
9432 22
9433 21
9434 14
9435 12
9436 4
9437 4
9438 30
9439 7
9440 13
9441 6
9442 4
9443 15
9444 27
9445 16
9446 4
9447 7
9448 44
9449 20
9450 8
9451 28
9452 4
9453 17
9454 29
9455 15
9456 16
9457 22
9458 32
9459 39
9460 22
9461 27
9462 20
9463 4
9464 2
9465 20
9466 39
9467 34
9468 16
9469 29
9470 20
9471 13
9472 9
9473 5
9474 4
9475 15
9476 41
9477 16
9478 38
9479 2
9480 35
9481 23
9482 24
9483 4
9484 43
9485 42
9486 2
9487 36
9488 3
9489 37
9490 4
9491 8
9492 28
9493 16
9494 34
9495 26
9496 22
9497 6
9498 28
9499 13
9500 2
9501 12
9502 28
9503 28
9504 21
9505 13
9506 5
9507 20
9508 37
9509 43
9510 4
9511 0
9512 14
9513 21
9514 8
9515 34
9516 42
9517 44
9518 24
9519 39
9520 8
9521 20
9522 4
9523 12
9524 4
9525 4
9526 32
9527 27
9528 6
9529 5
9530 4
9531 11
9532 5
9533 2
9534 34
9535 37
9536 4
9537 24
9538 26
9539 4
9540 23
9541 42
9542 40
9543 26
9544 16
9545 29
9546 4
9547 16
9548 22
9549 17
9550 42
9551 21
9552 5
9553 8
9554 23
9555 4
9556 2
9557 7
9558 14
9559 33
9560 27
9561 18
9562 12
9563 13
9564 8
9565 21
9566 4
9567 2
9568 44
9569 17
9570 8
9571 6
9572 40
9573 4
9574 3
9575 8
9576 0
9577 34
9578 19
9579 11
9580 28
9581 38
9582 35
9583 41
9584 10
9585 4
9586 37
9587 33
9588 12
9589 18
9590 18
9591 15
9592 4
9593 41
9594 11
9595 1
9596 38
9597 24
9598 14
9599 33
9600 40
9601 29
9602 0
9603 22
9604 26
9605 9
9606 22
9607 28
9608 7
9609 20
9610 4
9611 11
9612 40
9613 21
9614 27
9615 38
9616 43
9617 18
9618 2
9619 15
9620 4
9621 8
9622 10
9623 11
9624 38
9625 4
9626 21
9627 34
9628 10
9629 26
9630 4
9631 5
9632 4
9633 24
9634 27
9635 5
9636 5
9637 25
9638 37
9639 30
9640 3
9641 33
9642 7
9643 19
9644 12
9645 0
9646 4
9647 5
9648 21
9649 10
9650 4
9651 32
9652 5
9653 5
9654 12
9655 4
9656 3
9657 2
9658 42
9659 9
9660 4
9661 6
9662 32
9663 43
9664 40
9665 4
9666 4
9667 0
9668 14
9669 32
9670 4
9671 27
9672 5
9673 1
9674 0
9675 16
9676 15
9677 20
9678 4
9679 4
9680 28
9681 8
9682 36
9683 34
9684 25
9685 23
9686 40
9687 32
9688 25
9689 12
9690 12
9691 21
9692 19
9693 14
9694 16
9695 23
9696 19
9697 10
9698 11
9699 4
9700 2
9701 23
9702 28
9703 8
9704 23
9705 42
9706 19
9707 4
9708 4
9709 19
9710 0
9711 19
9712 30
9713 23
9714 5
9715 1
9716 35
9717 33
9718 44
9719 22
9720 7
9721 42
9722 2
9723 18
9724 42
9725 7
9726 4
9727 1
9728 35
9729 4
9730 44
9731 31
9732 34
9733 12
9734 4
9735 1
9736 12
9737 20
9738 18
9739 29
9740 4
9741 17
9742 42
9743 8
9744 18
9745 32
9746 6
9747 38
9748 5
9749 44
9750 44
9751 30
9752 4
9753 24
9754 17
9755 4
9756 18
9757 19
9758 15
9759 0
9760 14
9761 36
9762 23
9763 19
9764 15
9765 14
9766 9
9767 17
9768 36
9769 2
9770 10
9771 34
9772 16
9773 7
9774 23
9775 4
9776 5
9777 31
9778 12
9779 17
9780 21
9781 4
9782 30
9783 15
9784 27
9785 26
9786 4
9787 35
9788 5
9789 34
9790 7
9791 4
9792 10
9793 16
9794 30
9795 4
9796 0
9797 25
9798 35
9799 7
9800 23
9801 37
9802 7
9803 4
9804 13
9805 44
9806 0
9807 4
9808 0
9809 16
9810 19
9811 4
9812 17
9813 4
9814 43
9815 40
9816 26
9817 0
9818 20
9819 40
9820 15
9821 3
9822 4
9823 29
9824 36
9825 31
9826 41
9827 14
9828 7
9829 37
9830 26
9831 4
9832 18
9833 28
9834 44
9835 11
9836 4
9837 39
9838 5
9839 32
9840 30
9841 0
9842 0
9843 17
9844 4
9845 14
9846 20
9847 38
9848 38
9849 34
9850 21
9851 16
9852 4
9853 7
9854 8
9855 1
9856 14
9857 24
9858 13
9859 41
9860 2
9861 4
9862 13
9863 29
9864 20
9865 4
9866 26
9867 43
9868 20
9869 18
9870 13
9871 4
9872 7
9873 11
9874 4
9875 16
9876 37
9877 18
9878 4
9879 24
9880 43
9881 22
9882 16
9883 33
9884 11
9885 38
9886 39
9887 5
9888 28
9889 35
9890 23
9891 7
9892 4
9893 8
9894 0
9895 44
9896 43
9897 19
9898 6
9899 41
9900 4
9901 29
9902 16
9903 13
9904 20
9905 4
9906 10
9907 15
9908 23
9909 10
9910 2
9911 13
9912 29
9913 8
9914 38
9915 18
9916 29
9917 34
9918 13
9919 17
9920 39
9921 33
9922 8
9923 11
9924 2
9925 4
9926 34
9927 1
9928 20
9929 14
9930 39
9931 4
9932 16
9933 23
9934 44
9935 4
9936 30
9937 20
9938 39
9939 6
9940 39
9941 26
9942 31
9943 4
9944 4
9945 37
9946 11
9947 13
9948 4
9949 1
9950 13
9951 4
9952 32
9953 31
9954 10
9955 40
9956 16
9957 20
9958 40
9959 28
9960 16
9961 36
9962 28
9963 6
9964 4
9965 15
9966 7
9967 4
9968 26
9969 20
9970 12
9971 7
9972 30
9973 28
9974 41
9975 34
9976 32
9977 9
9978 7
9979 0
9980 8
9981 19
9982 24
9983 5
9984 6
9985 4
9986 31
9987 0
9988 4
9989 12
9990 15
9991 4
9992 28
9993 35
9994 30
9995 40
9996 0
9997 29
9998 43
9999 36
