0 0
1 1
2 2
3 3
4 4
5 4
6 5
7 6
8 7
9 8
10 9
11 4
12 10
13 11
14 12
15 13
16 14
17 5
18 15
19 4
20 16
21 0
22 15
23 11
24 17
25 18
26 19
27 20
28 7
29 14
30 20
31 14
32 21
33 0
34 22
35 23
36 24
37 0
38 6
39 25
40 20
41 4
42 26
43 27
44 24
45 28
46 20
47 9
48 29
49 27
50 5
51 30
52 20
53 13
54 7
55 9
56 31
57 32
58 20
59 31
60 17
61 33
62 24
63 6
64 5
65 23
66 11
67 7
68 34
69 35
70 6
71 7
72 8
73 15
74 36
75 1
76 37
77 38
78 2
79 15
80 5
81 9
82 18
83 39
84 20
85 3
86 40
87 0
88 27
89 15
90 37
91 14
92 14
93 35
94 7
95 34
96 15
97 7
98 1
99 34
100 37
101 27
102 21
103 35
104 41
105 14
106 14
107 42
108 25
109 6
110 9
111 17
112 5
113 30
114 14
115 4
116 0
117 16
118 43
119 34
120 7
121 32
122 9
123 1
124 15
125 44
126 20
127 0
128 45
129 13
130 4
131 25
132 35
133 0
134 6
135 1
136 4
137 5
138 17
139 37
140 33
141 39
142 33
143 35
144 2
145 5
146 46
147 41
148 24
149 31
150 9
151 19
152 41
153 14
154 12
155 31
156 25
157 4
158 44
159 6
160 7
161 33
162 36
163 15
164 0
165 47
166 5
167 20
168 10
169 25
170 41
171 12
172 31
173 27
174 14
175 14
176 44
177 33
178 4
179 2
180 20
181 17
182 14
183 13
184 45
185 16
186 1
187 45
188 40
189 46
190 23
191 13
192 11
193 29
194 3
195 11
196 14
197 15
198 46
199 4
200 28
201 0
202 7
203 10
204 21
205 36
206 10
207 14
208 18
209 0
210 14
211 23
212 45
213 12
214 28
215 2
216 0
217 14
218 40
219 5
220 19
221 4
222 5
223 4
224 16
225 4
226 43
227 38
228 27
229 35
230 38
231 14
232 23
233 34
234 28
235 8
236 1
237 35
238 4
239 32
240 18
241 19
242 36
243 2
244 39
245 0
246 43
247 15
248 29
249 31
250 2
251 20
252 4
253 20
254 40
255 26
256 4
257 0
258 18
259 12
260 4
261 11
262 24
263 16
264 47
265 22
266 44
267 12
268 35
269 4
270 17
271 4
272 0
273 4
274 6
275 22
276 13
277 25
278 46
279 33
280 14
281 14
282 14
283 7
284 39
285 33
286 13
287 7
288 23
289 42
290 31
291 18
292 31
293 31
294 45
295 0
296 39
297 25
298 4
299 9
300 48
301 10
302 21
303 7
304 4
305 34
306 35
307 5
308 3
309 28
310 23
311 4
312 33
313 6
314 24
315 33
316 3
317 4
318 4
319 12
320 11
321 29
322 40
323 27
324 4
325 42
326 41
327 48
328 5
329 28
330 48
331 40
332 9
333 6
334 20
335 4
336 27
337 20
338 43
339 3
340 33
341 13
342 7
343 7
344 25
345 10
346 27
347 11
348 39
349 0
350 27
351 45
352 12
353 2
354 15
355 19
356 6
357 4
358 4
359 9
360 4
361 10
362 6
363 3
364 14
365 1
366 7
367 24
368 47
369 41
370 44
371 28
372 19
373 28
374 30
375 4
376 4
377 0
378 15
379 44
380 36
381 45
382 35
383 48
384 16
385 7
386 44
387 34
388 0
389 2
390 2
391 4
392 11
393 15
394 2
395 42
396 14
397 34
398 35
399 27
400 10
401 0
402 35
403 23
404 45
405 20
406 20
407 42
408 32
409 15
410 6
411 31
412 15
413 36
414 33
415 19
416 6
417 15
418 30
419 11
420 24
421 0
422 28
423 14
424 28
425 4
426 49
427 11
428 33
429 17
430 46
431 6
432 5
433 13
434 4
435 50
436 4
437 17
438 45
439 15
440 4
441 38
442 46
443 6
444 7
445 11
446 21
447 24
448 25
449 42
450 44
451 35
452 12
453 23
454 21
455 26
456 31
457 17
458 5
459 39
460 36
461 4
462 43
463 4
464 43
465 9
466 4
467 0
468 42
469 45
470 43
471 8
472 11
473 34
474 29
475 33
476 35
477 0
478 0
479 3
480 32
481 11
482 24
483 26
484 31
485 4
486 4
487 2
488 18
489 15
490 9
491 16
492 33
493 9
494 21
495 37
496 28
497 16
498 17
499 4
500 33
501 11
502 6
503 42
504 2
505 46
506 44
507 4
508 4
509 40
510 43
511 6
512 19
513 39
514 6
515 19
516 0
517 45
518 37
519 34
520 20
521 47
522 38
523 11
524 15
525 15
526 4
527 43
528 11
529 14
530 28
531 19
532 4
533 30
534 3
535 42
536 45
537 12
538 14
539 31
540 3
541 10
542 15
543 28
544 15
545 24
546 4
547 0
548 4
549 41
550 17
551 4
552 0
553 25
554 47
555 5
556 14
557 4
558 0
559 45
560 14
561 33
562 36
563 22
564 24
565 14
566 2
567 6
568 26
569 21
570 34
571 36
572 33
573 7
574 16
575 49
576 5
577 49
578 35
579 46
580 28
581 1
582 6
583 7
584 14
585 25
586 18
587 4
588 23
589 26
590 14
591 40
592 0
593 4
594 14
595 4
596 9
597 1
598 15
599 40
600 33
601 20
602 12
603 45
604 44
605 15
606 36
607 27
608 44
609 28
610 42
611 27
612 4
613 10
614 9
615 37
616 16
617 9
618 6
619 4
620 6
621 21
622 40
623 34
624 20
625 1
626 23
627 4
628 25
629 6
630 12
631 30
632 46
633 22
634 14
635 4
636 31
637 48
638 4
639 4
640 36
641 1
642 19
643 16
644 43
645 46
646 2
647 30
648 4
649 44
650 6
651 14
652 35
653 22
654 4
655 9
656 29
657 9
658 42
659 4
660 17
661 45
662 48
663 14
664 4
665 38
666 17
667 22
668 31
669 38
670 37
671 22
672 43
673 15
674 33
675 2
676 32
677 3
678 30
679 25
680 50
681 30
682 5
683 11
684 2
685 11
686 16
687 40
688 15
689 33
690 1
691 37
692 27
693 25
694 7
695 10
696 8
697 26
698 22
699 42
700 31
701 28
702 0
703 33
704 36
705 2
706 14
707 35
708 14
709 38
710 47
711 34
712 4
713 4
714 27
715 5
716 1
717 14
718 24
719 12
720 7
721 4
722 29
723 3
724 28
725 36
726 4
727 19
728 33
729 50
730 4
731 24
732 33
733 2
734 21
735 28
736 33
737 25
738 36
739 8
740 46
741 19
742 10
743 17
744 6
745 28
746 9
747 6
748 9
749 15
750 4
751 9
752 40
753 42
754 33
755 28
756 8
757 26
758 5
759 40
760 14
761 27
762 0
763 15
764 50
765 16
766 43
767 41
768 34
769 32
770 26
771 9
772 21
773 4
774 36
775 1
776 15
777 5
778 12
779 34
780 14
781 46
782 7
783 19
784 2
785 0
786 14
787 7
788 34
789 19
790 4
791 20
792 4
793 14
794 4
795 40
796 32
797 24
798 43
799 17
800 12
801 42
802 38
803 7
804 20
805 45
806 40
807 46
808 24
809 15
810 4
811 7
812 37
813 50
814 12
815 4
816 3
817 4
818 20
819 9
820 2
821 14
822 44
823 9
824 32
825 14
826 18
827 13
828 40
829 47
830 19
831 4
832 30
833 1
834 32
835 19
836 42
837 45
838 44
839 7
840 9
841 29
842 30
843 41
844 3
845 34
846 8
847 1
848 6
849 15
850 7
851 37
852 4
853 15
854 6
855 3
856 2
857 15
858 47
859 11
860 48
861 41
862 5
863 4
864 7
865 29
866 5
867 36
868 19
869 35
870 39
871 48
872 12
873 45
874 44
875 2
876 33
877 0
878 46
879 8
880 12
881 4
882 31
883 4
884 4
885 5
886 0
887 43
888 33
889 15
890 12
891 15
892 1
893 44
894 15
895 44
896 4
897 21
898 5
899 18
900 4
901 38
902 9
903 12
904 45
905 12
906 32
907 10
908 33
909 0
910 39
911 33
912 4
913 37
914 4
915 31
916 1
917 12
918 23
919 23
920 15
921 4
922 7
923 0
924 5
925 15
926 13
927 9
928 36
929 5
930 41
931 19
932 43
933 20
934 45
935 4
936 48
937 39
938 9
939 1
940 31
941 7
942 15
943 0
944 48
945 15
946 28
947 6
948 0
949 42
950 31
951 31
952 12
953 2
954 19
955 48
956 3
957 4
958 36
959 34
960 5
961 37
962 4
963 40
964 10
965 21
966 33
967 37
968 3
969 31
970 21
971 35
972 40
973 46
974 15
975 15
976 13
977 14
978 15
979 20
980 9
981 42
982 4
983 4
984 46
985 33
986 11
987 19
988 1
989 12
990 48
991 43
992 29
993 48
994 1
995 6
996 45
997 35
998 43
999 45
1000 0
1001 30
1002 30
1003 50
1004 6
1005 22
1006 12
1007 3
1008 28
1009 22
1010 1
1011 0
1012 49
1013 28
1014 33
1015 10
1016 4
1017 22
1018 26
1019 15
1020 3
1021 19
1022 41
1023 14
1024 28
1025 5
1026 33
1027 48
1028 32
1029 14
1030 14
1031 19
1032 4
1033 6
1034 24
1035 4
1036 15
1037 17
1038 18
1039 8
1040 1
1041 31
1042 46
1043 15
1044 9
1045 4
1046 50
1047 15
1048 31
1049 0
1050 23
1051 34
1052 13
1053 15
1054 45
1055 14
1056 30
1057 33
1058 14
1059 38
1060 36
1061 16
1062 6
1063 5
1064 18
1065 9
1066 33
1067 16
1068 4
1069 11
1070 21
1071 4
1072 44
1073 9
1074 40
1075 4
1076 33
1077 18
1078 31
1079 11
1080 4
1081 25
1082 7
1083 19
1084 50
1085 21
1086 33
1087 19
1088 28
1089 15
1090 21
1091 39
1092 31
1093 38
1094 7
1095 9
1096 33
1097 43
1098 0
1099 30
1100 5
1101 27
1102 14
1103 13
1104 39
1105 9
1106 12
1107 2
1108 38
1109 15
1110 42
1111 11
1112 24
1113 11
1114 43
1115 4
1116 6
1117 25
1118 38
1119 41
1120 11
1121 4
1122 15
1123 15
1124 36
1125 15
1126 11
1127 48
1128 11
1129 14
1130 25
1131 9
1132 16
1133 20
1134 7
1135 43
1136 44
1137 43
1138 0
1139 20
1140 15
1141 36
1142 9
1143 31
1144 3
1145 1
1146 49
1147 11
1148 9
1149 7
1150 14
1151 41
1152 12
1153 42
1154 23
1155 32
1156 38
1157 15
1158 32
1159 29
1160 48
1161 46
1162 18
1163 9
1164 48
1165 38
1166 0
1167 41
1168 48
1169 4
1170 9
1171 10
1172 22
1173 29
1174 38
1175 18
1176 19
1177 20
1178 4
1179 16
1180 2
1181 1
1182 29
1183 45
1184 4
1185 31
1186 46
1187 18
1188 37
1189 28
1190 43
1191 6
1192 14
1193 31
1194 49
1195 1
1196 6
1197 4
1198 9
1199 0
1200 37
1201 17
1202 20
1203 3
1204 4
1205 16
1206 4
1207 4
1208 5
1209 34
1210 35
1211 12
1212 48
1213 14
1214 12
1215 2
1216 26
1217 31
1218 17
1219 4
1220 4
1221 4
1222 36
1223 45
1224 44
1225 46
1226 42
1227 18
1228 4
1229 6
1230 34
1231 31
1232 14
1233 7
1234 47
1235 46
1236 41
1237 10
1238 32
1239 31
1240 8
1241 18
1242 15
1243 15
1244 25
1245 1
1246 15
1247 47
1248 37
1249 23
1250 17
1251 1
1252 38
1253 45
1254 15
1255 0
1256 4
1257 35
1258 0
1259 4
1260 28
1261 4
1262 3
1263 36
1264 29
1265 2
1266 19
1267 33
1268 10
1269 4
1270 44
1271 45
1272 27
1273 4
1274 24
1275 34
1276 26
1277 40
1278 43
1279 15
1280 38
1281 1
1282 4
1283 10
1284 2
1285 17
1286 49
1287 7
1288 31
1289 26
1290 12
1291 34
1292 50
1293 31
1294 30
1295 46
1296 7
1297 33
1298 4
1299 24
1300 20
1301 33
1302 42
1303 36
1304 9
1305 36
1306 42
1307 44
1308 0
1309 20
1310 35
1311 17
1312 0
1313 50
1314 45
1315 16
1316 38
1317 22
1318 14
1319 19
1320 4
1321 38
1322 4
1323 10
1324 47
1325 31
1326 4
1327 48
1328 0
1329 12
1330 5
1331 35
1332 41
1333 4
1334 26
1335 44
1336 39
1337 19
1338 45
1339 4
1340 7
1341 46
1342 21
1343 43
1344 4
1345 34
1346 2
1347 4
1348 27
1349 0
1350 2
1351 1
1352 46
1353 36
1354 6
1355 26
1356 4
1357 11
1358 46
1359 31
1360 48
1361 29
1362 43
1363 3
1364 7
1365 25
1366 4
1367 11
1368 19
1369 41
1370 14
1371 12
1372 4
1373 31
1374 15
1375 26
1376 4
1377 2
1378 13
1379 35
1380 46
1381 33
1382 19
1383 2
1384 49
1385 4
1386 0
1387 29
1388 23
1389 0
1390 33
1391 15
1392 15
1393 19
1394 4
1395 36
1396 12
1397 43
1398 10
1399 10
1400 4
1401 36
1402 41
1403 18
1404 17
1405 29
1406 30
1407 0
1408 0
1409 5
1410 15
1411 14
1412 28
1413 44
1414 42
1415 5
1416 9
1417 31
1418 3
1419 5
1420 27
1421 48
1422 32
1423 14
1424 14
1425 14
1426 42
1427 25
1428 0
1429 2
1430 38
1431 4
1432 34
1433 10
1434 23
1435 13
1436 32
1437 45
1438 36
1439 0
1440 42
1441 22
1442 15
1443 41
1444 38
1445 4
1446 27
1447 46
1448 43
1449 3
1450 6
1451 21
1452 20
1453 2
1454 33
1455 21
1456 1
1457 0
1458 0
1459 44
1460 28
1461 1
1462 29
1463 39
1464 45
1465 9
1466 28
1467 22
1468 4
1469 5
1470 28
1471 18
1472 45
1473 23
1474 43
1475 46
1476 27
1477 19
1478 0
1479 42
1480 24
1481 9
1482 38
1483 0
1484 14
1485 23
1486 39
1487 28
1488 15
1489 44
1490 14
1491 7
1492 28
1493 4
1494 1
1495 26
1496 0
1497 4
1498 0
1499 14
1500 1
1501 3
1502 15
1503 9
1504 14
1505 4
1506 33
1507 21
1508 44
1509 17
1510 28
1511 48
1512 4
1513 34
1514 4
1515 11
1516 3
1517 18
1518 11
1519 42
1520 18
1521 47
1522 44
1523 44
1524 2
1525 14
1526 33
1527 29
1528 10
1529 6
1530 11
1531 13
1532 44
1533 11
1534 36
1535 46
1536 33
1537 45
1538 4
1539 39
1540 3
1541 22
1542 20
1543 35
1544 16
1545 22
1546 11
1547 15
1548 23
1549 19
1550 38
1551 5
1552 7
1553 18
1554 5
1555 8
1556 47
1557 6
1558 28
1559 38
1560 41
1561 0
1562 31
1563 3
1564 14
1565 18
1566 14
1567 42
1568 0
1569 42
1570 5
1571 45
1572 22
1573 32
1574 47
1575 42
1576 4
1577 9
1578 33
1579 4
1580 5
1581 2
1582 17
1583 14
1584 37
1585 33
1586 9
1587 33
1588 41
1589 14
1590 7
1591 31
1592 50
1593 18
1594 31
1595 21
1596 44
1597 0
1598 5
1599 6
1600 4
1601 25
1602 35
1603 20
1604 24
1605 39
1606 44
1607 20
1608 44
1609 7
1610 33
1611 14
1612 17
1613 50
1614 36
1615 7
1616 8
1617 43
1618 14
1619 2
1620 1
1621 50
1622 46
1623 28
1624 12
1625 4
1626 14
1627 37
1628 10
1629 11
1630 3
1631 4
1632 40
1633 6
1634 0
1635 38
1636 5
1637 3
1638 46
1639 45
1640 17
1641 24
1642 28
1643 4
1644 44
1645 7
1646 4
1647 40
1648 34
1649 35
1650 4
1651 23
1652 1
1653 22
1654 0
1655 0
1656 14
1657 11
1658 27
1659 34
1660 45
1661 14
1662 7
1663 36
1664 37
1665 45
1666 8
1667 31
1668 36
1669 1
1670 47
1671 20
1672 12
1673 41
1674 1
1675 2
1676 7
1677 15
1678 0
1679 11
1680 46
1681 4
1682 12
1683 40
1684 38
1685 44
1686 8
1687 14
1688 4
1689 25
1690 4
1691 14
1692 4
1693 23
1694 4
1695 5
1696 43
1697 12
1698 13
1699 15
1700 4
1701 0
1702 35
1703 2
1704 19
1705 4
1706 29
1707 4
1708 16
1709 4
1710 30
1711 2
1712 43
1713 15
1714 4
1715 43
1716 38
1717 19
1718 15
1719 11
1720 5
1721 9
1722 38
1723 4
1724 44
1725 37
1726 10
1727 8
1728 14
1729 26
1730 9
1731 4
1732 39
1733 46
1734 44
1735 32
1736 10
1737 50
1738 9
1739 11
1740 3
1741 4
1742 4
1743 43
1744 10
1745 4
1746 43
1747 25
1748 41
1749 42
1750 9
1751 11
1752 17
1753 43
1754 47
1755 14
1756 6
1757 39
1758 15
1759 38
1760 15
1761 46
1762 14
1763 4
1764 40
1765 10
1766 1
1767 15
1768 20
1769 24
1770 50
1771 16
1772 3
1773 27
1774 33
1775 0
1776 42
1777 43
1778 26
1779 35
1780 38
1781 15
1782 37
1783 2
1784 43
1785 3
1786 12
1787 38
1788 46
1789 5
1790 26
1791 5
1792 34
1793 4
1794 14
1795 30
1796 15
1797 36
1798 6
1799 4
1800 38
1801 5
1802 12
1803 19
1804 10
1805 14
1806 3
1807 2
1808 15
1809 44
1810 46
1811 29
1812 7
1813 29
1814 32
1815 4
1816 12
1817 4
1818 31
1819 39
1820 29
1821 8
1822 26
1823 15
1824 15
1825 25
1826 35
1827 4
1828 9
1829 35
1830 31
1831 5
1832 20
1833 33
1834 23
1835 22
1836 32
1837 33
1838 5
1839 34
1840 15
1841 15
1842 4
1843 9
1844 15
1845 6
1846 12
1847 6
1848 29
1849 22
1850 26
1851 28
1852 14
1853 42
1854 11
1855 26
1856 24
1857 38
1858 20
1859 25
1860 45
1861 36
1862 35
1863 14
1864 12
1865 47
1866 12
1867 12
1868 10
1869 14
1870 20
1871 29
1872 2
1873 46
1874 10
1875 20
1876 44
1877 35
1878 34
1879 41
1880 14
1881 15
1882 21
1883 40
1884 31
1885 9
1886 3
1887 31
1888 37
1889 18
1890 41
1891 15
1892 30
1893 35
1894 46
1895 49
1896 4
1897 43
1898 6
1899 14
1900 43
1901 11
1902 33
1903 4
1904 24
1905 41
1906 31
1907 42
1908 17
1909 45
1910 4
1911 33
1912 44
1913 39
1914 0
1915 23
1916 46
1917 42
1918 1
1919 34
1920 36
1921 7
1922 27
1923 6
1924 14
1925 14
1926 28
1927 5
1928 2
1929 39
1930 44
1931 43
1932 48
1933 33
1934 30
1935 20
1936 34
1937 19
1938 7
1939 20
1940 14
1941 30
1942 9
1943 14
1944 27
1945 19
1946 12
1947 39
1948 28
1949 19
1950 12
1951 0
1952 26
1953 8
1954 35
1955 0
1956 1
1957 38
1958 33
1959 9
1960 29
1961 36
1962 18
1963 33
1964 4
1965 7
1966 29
1967 39
1968 27
1969 43
1970 25
1971 7
1972 18
1973 13
1974 38
1975 44
1976 10
1977 4
1978 11
1979 27
1980 41
1981 22
1982 18
1983 38
1984 15
1985 28
1986 11
1987 41
1988 1
1989 49
1990 25
1991 36
1992 28
1993 22
1994 15
1995 12
1996 4
1997 38
1998 14
1999 24
2000 37
2001 40
2002 13
2003 43
2004 31
2005 19
2006 39
2007 10
2008 33
2009 4
2010 17
2011 15
2012 42
2013 14
2014 3
2015 8
2016 1
2017 5
2018 15
2019 33
2020 0
2021 12
2022 20
2023 46
2024 22
2025 0
2026 6
2027 41
2028 7
2029 44
2030 2
2031 35
2032 41
2033 2
2034 2
2035 14
2036 40
2037 11
2038 14
2039 46
2040 29
2041 20
2042 48
2043 4
2044 31
2045 6
2046 9
2047 37
2048 22
2049 18
2050 37
2051 4
2052 19
2053 7
2054 33
2055 7
2056 15
2057 24
2058 22
2059 18
2060 43
2061 24
2062 43
2063 31
2064 30
2065 4
2066 41
2067 11
2068 14
2069 33
2070 24
2071 33
2072 38
2073 21
2074 11
2075 31
2076 17
2077 41
2078 19
2079 19
2080 15
2081 45
2082 16
2083 11
2084 43
2085 1
2086 0
2087 43
2088 37
2089 16
2090 2
2091 19
2092 36
2093 1
2094 31
2095 1
2096 8
2097 4
2098 29
2099 44
2100 7
2101 34
2102 22
2103 18
2104 26
2105 18
2106 23
2107 48
2108 6
2109 15
2110 6
2111 17
2112 35
2113 15
2114 41
2115 26
2116 33
2117 43
2118 33
2119 13
2120 14
2121 18
2122 0
2123 0
2124 29
2125 9
2126 11
2127 21
2128 15
2129 23
2130 10
2131 14
2132 17
2133 31
2134 3
2135 3
2136 31
2137 10
2138 4
2139 31
2140 4
2141 18
2142 10
2143 44
2144 44
2145 1
2146 18
2147 11
2148 35
2149 0
2150 0
2151 48
2152 15
2153 7
2154 11
2155 6
2156 14
2157 6
2158 0
2159 40
2160 21
2161 31
2162 40
2163 10
2164 7
2165 12
2166 12
2167 39
2168 15
2169 4
2170 40
2171 48
2172 44
2173 40
2174 45
2175 34
2176 33
2177 41
2178 2
2179 15
2180 23
2181 14
2182 5
2183 26
2184 11
2185 35
2186 14
2187 42
2188 33
2189 33
2190 13
2191 40
2192 34
2193 50
2194 14
2195 40
2196 17
2197 30
2198 4
2199 27
2200 9
2201 38
2202 41
2203 20
2204 50
2205 5
2206 15
2207 28
2208 44
2209 6
2210 31
2211 14
2212 36
2213 44
2214 12
2215 3
2216 22
2217 15
2218 25
2219 18
2220 14
2221 11
2222 42
2223 38
2224 2
2225 31
2226 25
2227 33
2228 19
2229 20
2230 45
2231 16
2232 33
2233 41
2234 44
2235 39
2236 5
2237 41
2238 50
2239 10
2240 4
2241 14
2242 4
2243 4
2244 33
2245 36
2246 22
2247 48
2248 10
2249 50
2250 33
2251 31
2252 10
2253 12
2254 39
2255 10
2256 46
2257 12
2258 46
2259 10
2260 41
2261 43
2262 43
2263 36
2264 33
2265 4
2266 2
2267 15
2268 4
2269 30
2270 17
2271 25
2272 41
2273 44
2274 9
2275 36
2276 46
2277 37
2278 26
2279 24
2280 31
2281 10
2282 23
2283 2
2284 45
2285 48
2286 22
2287 44
2288 38
2289 9
2290 33
2291 14
2292 3
2293 43
2294 4
2295 43
2296 11
2297 45
2298 34
2299 3
2300 18
2301 41
2302 28
2303 15
2304 43
2305 19
2306 33
2307 42
2308 7
2309 1
2310 4
2311 31
2312 38
2313 4
2314 12
2315 28
2316 11
2317 25
2318 34
2319 4
2320 14
2321 3
2322 24
2323 42
2324 7
2325 12
2326 11
2327 4
2328 45
2329 34
2330 11
2331 35
2332 11
2333 35
2334 17
2335 25
2336 44
2337 38
2338 18
2339 0
2340 6
2341 14
2342 48
2343 9
2344 28
2345 15
2346 4
2347 43
2348 50
2349 2
2350 4
2351 9
2352 42
2353 19
2354 16
2355 46
2356 39
2357 37
2358 22
2359 20
2360 42
2361 6
2362 28
2363 32
2364 33
2365 6
2366 14
2367 4
2368 5
2369 40
2370 33
2371 1
2372 20
2373 29
2374 14
2375 34
2376 33
2377 15
2378 28
2379 32
2380 28
2381 0
2382 14
2383 45
2384 34
2385 15
2386 5
2387 39
2388 35
2389 40
2390 17
2391 37
2392 15
2393 22
2394 28
2395 46
2396 4
2397 4
2398 42
2399 50
2400 15
2401 4
2402 23
2403 0
2404 16
2405 13
2406 44
2407 42
2408 14
2409 5
2410 4
2411 31
2412 19
2413 14
2414 4
2415 9
2416 3
2417 50
2418 12
2419 47
2420 28
2421 25
2422 14
2423 5
2424 31
2425 11
2426 24
2427 3
2428 29
2429 3
2430 4
2431 4
2432 48
2433 7
2434 35
2435 27
2436 33
2437 28
2438 34
2439 33
2440 21
2441 11
2442 23
2443 2
2444 42
2445 36
2446 12
2447 28
2448 14
2449 7
2450 41
2451 34
2452 31
2453 38
2454 23
2455 32
2456 2
2457 42
2458 33
2459 41
2460 33
2461 10
2462 48
2463 15
2464 4
2465 41
2466 6
2467 12
2468 0
2469 13
2470 15
2471 5
2472 29
2473 4
2474 44
2475 48
2476 31
2477 48
2478 15
2479 33
2480 29
2481 9
2482 41
2483 42
2484 2
2485 14
2486 15
2487 4
2488 30
2489 32
2490 14
2491 38
2492 28
2493 11
2494 35
2495 26
2496 24
2497 29
2498 42
2499 14
2500 4
2501 39
2502 25
2503 14
2504 33
2505 45
2506 19
2507 46
2508 11
2509 10
2510 4
2511 29
2512 22
2513 35
2514 4
2515 4
2516 37
2517 26
2518 15
2519 13
2520 21
2521 4
2522 14
2523 46
2524 3
2525 45
2526 25
2527 38
2528 43
2529 4
2530 2
2531 17
2532 6
2533 2
2534 42
2535 44
2536 18
2537 4
2538 5
2539 43
2540 12
2541 11
2542 2
2543 35
2544 34
2545 0
2546 46
2547 19
2548 15
2549 17
2550 35
2551 0
2552 26
2553 4
2554 18
2555 16
2556 18
2557 43
2558 10
2559 5
2560 15
2561 49
2562 21
2563 6
2564 39
2565 4
2566 8
2567 4
2568 32
2569 4
2570 18
2571 31
2572 48
2573 33
2574 27
2575 31
2576 46
2577 39
2578 32
2579 33
2580 17
2581 3
2582 9
2583 4
2584 45
2585 19
2586 20
2587 10
2588 12
2589 3
2590 9
2591 19
2592 4
2593 6
2594 14
2595 1
2596 24
2597 28
2598 23
2599 34
2600 0
2601 38
2602 11
2603 32
2604 17
2605 21
2606 26
2607 4
2608 41
2609 3
2610 4
2611 1
2612 20
2613 2
2614 16
2615 32
2616 28
2617 13
2618 15
2619 0
2620 10
2621 15
2622 14
2623 14
2624 6
2625 11
2626 20
2627 4
2628 19
2629 4
2630 12
2631 6
2632 24
2633 0
2634 33
2635 27
2636 33
2637 2
2638 37
2639 1
2640 11
2641 20
2642 16
2643 9
2644 16
2645 33
2646 19
2647 2
2648 14
2649 31
2650 4
2651 12
2652 50
2653 11
2654 38
2655 44
2656 6
2657 15
2658 4
2659 42
2660 19
2661 29
2662 18
2663 24
2664 29
2665 39
2666 11
2667 22
2668 16
2669 5
2670 25
2671 14
2672 15
2673 6
2674 32
2675 12
2676 11
2677 7
2678 1
2679 1
2680 6
2681 43
2682 3
2683 9
2684 45
2685 41
2686 1
2687 14
2688 42
2689 33
2690 45
2691 33
2692 4
2693 17
2694 19
2695 45
2696 28
2697 31
2698 19
2699 17
2700 15
2701 33
2702 31
2703 33
2704 9
2705 24
2706 19
2707 4
2708 40
2709 10
2710 7
2711 15
2712 9
2713 27
2714 31
2715 39
2716 3
2717 16
2718 6
2719 18
2720 8
2721 15
2722 2
2723 0
2724 13
2725 19
2726 35
2727 35
2728 36
2729 34
2730 35
2731 46
2732 21
2733 14
2734 38
2735 21
2736 24
2737 14
2738 30
2739 5
2740 27
2741 15
2742 26
2743 12
2744 9
2745 9
2746 37
2747 19
2748 38
2749 1
2750 26
2751 19
2752 15
2753 3
2754 42
2755 22
2756 11
2757 28
2758 42
2759 12
2760 33
2761 12
2762 4
2763 36
2764 14
2765 44
2766 0
2767 35
2768 0
2769 4
2770 7
2771 3
2772 18
2773 14
2774 41
2775 25
2776 41
2777 2
2778 26
2779 8
2780 9
2781 48
2782 33
2783 33
2784 11
2785 20
2786 29
2787 2
2788 16
2789 4
2790 36
2791 34
2792 2
2793 42
2794 47
2795 9
2796 11
2797 1
2798 4
2799 22
2800 24
2801 30
2802 33
2803 15
2804 18
2805 28
2806 46
2807 28
2808 10
2809 4
2810 30
2811 15
2812 5
2813 4
2814 34
2815 7
2816 14
2817 14
2818 3
2819 9
2820 9
2821 18
2822 2
2823 19
2824 39
2825 43
2826 4
2827 6
2828 7
2829 33
2830 39
2831 37
2832 27
2833 46
2834 48
2835 4
2836 13
2837 38
2838 14
2839 31
2840 14
2841 26
2842 46
2843 43
2844 31
2845 14
2846 14
2847 21
2848 15
2849 18
2850 8
2851 11
2852 0
2853 7
2854 4
2855 33
2856 50
2857 5
2858 15
2859 44
2860 29
2861 15
2862 4
2863 32
2864 19
2865 27
2866 15
2867 33
2868 4
2869 9
2870 2
2871 23
2872 5
2873 45
2874 13
2875 1
2876 44
2877 35
2878 30
2879 9
2880 43
2881 44
2882 45
2883 4
2884 43
2885 15
2886 27
2887 46
2888 25
2889 36
2890 9
2891 15
2892 25
2893 44
2894 33
2895 16
2896 10
2897 31
2898 47
2899 35
2900 37
2901 21
2902 25
2903 4
2904 8
2905 11
2906 14
2907 36
2908 3
2909 17
2910 14
2911 48
2912 39
2913 2
2914 31
2915 13
2916 14
2917 46
2918 23
2919 4
2920 2
2921 43
2922 4
2923 17
2924 6
2925 10
2926 14
2927 15
2928 38
2929 45
2930 35
2931 4
2932 12
2933 0
2934 36
2935 42
2936 50
2937 0
2938 2
2939 8
2940 18
2941 9
2942 14
2943 49
2944 11
2945 35
2946 14
2947 27
2948 22
2949 11
2950 47
2951 47
2952 27
2953 37
2954 36
2955 36
2956 38
2957 11
2958 12
2959 4
2960 0
2961 2
2962 37
2963 17
2964 29
2965 6
2966 43
2967 36
2968 46
2969 45
2970 11
2971 36
2972 42
2973 36
2974 16
2975 23
2976 11
2977 2
2978 23
2979 5
2980 0
2981 19
2982 0
2983 50
2984 16
2985 41
2986 36
2987 35
2988 4
2989 0
2990 10
2991 4
2992 9
2993 4
2994 4
2995 35
2996 31
2997 40
2998 32
2999 37
3000 42
3001 17
3002 30
3003 4
3004 21
3005 38
3006 7
3007 4
3008 43
3009 41
3010 35
3011 32
3012 26
3013 27
3014 10
3015 15
3016 17
3017 45
3018 14
3019 23
3020 18
3021 19
3022 4
3023 15
3024 9
3025 6
3026 4
3027 15
3028 1
3029 50
3030 46
3031 16
3032 15
3033 27
3034 14
3035 11
3036 4
3037 10
3038 46
3039 2
3040 4
3041 26
3042 12
3043 42
3044 34
3045 2
3046 19
3047 11
3048 21
3049 6
3050 14
3051 34
3052 25
3053 33
3054 6
3055 32
3056 3
3057 46
3058 25
3059 24
3060 27
3061 46
3062 23
3063 14
3064 36
3065 14
3066 2
3067 45
3068 8
3069 0
3070 23
3071 30
3072 27
3073 27
3074 44
3075 0
3076 28
3077 4
3078 24
3079 22
3080 36
3081 31
3082 35
3083 0
3084 3
3085 31
3086 50
3087 11
3088 43
3089 13
3090 47
3091 20
3092 27
3093 26
3094 2
3095 35
3096 10
3097 12
3098 11
3099 14
3100 12
3101 34
3102 11
3103 9
3104 14
3105 7
3106 14
3107 31
3108 50
3109 15
3110 26
3111 19
3112 3
3113 6
3114 43
3115 41
3116 10
3117 27
3118 9
3119 34
3120 21
3121 46
3122 33
3123 36
3124 3
3125 43
3126 44
3127 11
3128 4
3129 38
3130 13
3131 29
3132 15
3133 5
3134 24
3135 37
3136 43
3137 48
3138 2
3139 11
3140 37
3141 20
3142 12
3143 12
3144 17
3145 33
3146 22
3147 1
3148 45
3149 17
3150 11
3151 15
3152 39
3153 24
3154 34
3155 16
3156 14
3157 38
3158 29
3159 7
3160 20
3161 17
3162 14
3163 34
3164 38
3165 5
3166 15
3167 4
3168 45
3169 38
3170 41
3171 9
3172 43
3173 15
3174 4
3175 16
3176 47
3177 0
3178 12
3179 0
3180 46
3181 38
3182 13
3183 34
3184 25
3185 11
3186 4
3187 1
3188 35
3189 8
3190 8
3191 12
3192 38
3193 45
3194 4
3195 6
3196 18
3197 9
3198 31
3199 6
3200 6
3201 34
3202 14
3203 40
3204 43
3205 41
3206 31
3207 6
3208 43
3209 41
3210 24
3211 34
3212 9
3213 27
3214 16
3215 15
3216 32
3217 24
3218 5
3219 14
3220 48
3221 32
3222 14
3223 7
3224 3
3225 12
3226 34
3227 26
3228 18
3229 12
3230 9
3231 4
3232 34
3233 47
3234 4
3235 38
3236 14
3237 22
3238 21
3239 14
3240 50
3241 43
3242 7
3243 5
3244 38
3245 16
3246 11
3247 3
3248 37
3249 18
3250 16
3251 6
3252 10
3253 28
3254 20
3255 28
3256 6
3257 32
3258 49
3259 22
3260 12
3261 15
3262 19
3263 46
3264 46
3265 11
3266 23
3267 2
3268 9
3269 29
3270 22
3271 27
3272 4
3273 5
3274 34
3275 15
3276 31
3277 15
3278 28
3279 36
3280 15
3281 48
3282 11
3283 34
3284 19
3285 33
3286 19
3287 45
3288 2
3289 2
3290 18
3291 35
3292 6
3293 0
3294 35
3295 26
3296 14
3297 22
3298 20
3299 33
3300 16
3301 14
3302 18
3303 14
3304 29
3305 42
3306 15
3307 43
3308 4
3309 31
3310 30
3311 14
3312 45
3313 32
3314 28
3315 1
3316 43
3317 2
3318 6
3319 32
3320 9
3321 41
3322 21
3323 9
3324 30
3325 15
3326 10
3327 28
3328 12
3329 11
3330 15
3331 12
3332 30
3333 2
3334 20
3335 43
3336 48
3337 10
3338 22
3339 44
3340 41
3341 37
3342 1
3343 31
3344 6
3345 4
3346 44
3347 19
3348 50
3349 14
3350 47
3351 25
3352 42
3353 3
3354 28
3355 26
3356 7
3357 1
3358 27
3359 11
3360 14
3361 6
3362 36
3363 24
3364 15
3365 32
3366 0
3367 34
3368 5
3369 38
3370 35
3371 19
3372 14
3373 38
3374 42
3375 27
3376 43
3377 11
3378 31
3379 33
3380 4
3381 46
3382 14
3383 48
3384 14
3385 39
3386 1
3387 4
3388 33
3389 19
3390 6
3391 46
3392 38
3393 15
3394 15
3395 3
3396 11
3397 43
3398 14
3399 17
3400 31
3401 0
3402 4
3403 4
3404 23
3405 33
3406 23
3407 17
3408 34
3409 0
3410 9
3411 6
3412 16
3413 4
3414 42
3415 50
3416 15
3417 0
3418 19
3419 0
3420 33
3421 9
3422 2
3423 7
3424 4
3425 17
3426 4
3427 23
3428 41
3429 19
3430 11
3431 23
3432 24
3433 1
3434 1
3435 15
3436 4
3437 39
3438 43
3439 20
3440 17
3441 9
3442 31
3443 28
3444 10
3445 3
3446 19
3447 35
3448 15
3449 2
3450 32
3451 10
3452 5
3453 15
3454 44
3455 14
3456 21
3457 45
3458 4
3459 4
3460 35
3461 21
3462 31
3463 7
3464 15
3465 31
3466 7
3467 4
3468 27
3469 42
3470 37
3471 14
3472 31
3473 16
3474 4
3475 42
3476 14
3477 24
3478 31
3479 46
3480 15
3481 42
3482 49
3483 43
3484 9
3485 15
3486 31
3487 19
3488 10
3489 23
3490 8
3491 3
3492 24
3493 31
3494 47
3495 19
3496 43
3497 37
3498 19
3499 3
3500 39
3501 46
3502 30
3503 45
3504 11
3505 14
3506 41
3507 50
3508 24
3509 22
3510 36
3511 11
3512 11
3513 43
3514 4
3515 15
3516 27
3517 50
3518 0
3519 25
3520 43
3521 4
3522 15
3523 33
3524 24
3525 7
3526 41
3527 7
3528 1
3529 42
3530 7
3531 19
3532 25
3533 15
3534 11
3535 11
3536 10
3537 39
3538 31
3539 18
3540 30
3541 24
3542 36
3543 11
3544 4
3545 9
3546 44
3547 16
3548 42
3549 33
3550 10
3551 24
3552 20
3553 35
3554 4
3555 33
3556 15
3557 19
3558 16
3559 35
3560 44
3561 10
3562 28
3563 12
3564 9
3565 19
3566 39
3567 4
3568 34
3569 3
3570 11
3571 43
3572 28
3573 30
3574 13
3575 44
3576 42
3577 6
3578 0
3579 9
3580 44
3581 4
3582 4
3583 27
3584 35
3585 40
3586 6
3587 4
3588 12
3589 0
3590 41
3591 41
3592 20
3593 50
3594 5
3595 12
3596 12
3597 3
3598 19
3599 46
3600 14
3601 31
3602 5
3603 31
3604 16
3605 46
3606 4
3607 0
3608 6
3609 36
3610 15
3611 1
3612 4
3613 25
3614 11
3615 0
3616 27
3617 26
3618 2
3619 26
3620 15
3621 4
3622 20
3623 21
3624 26
3625 14
3626 47
3627 4
3628 46
3629 4
3630 3
3631 9
3632 32
3633 0
3634 7
3635 45
3636 32
3637 20
3638 21
3639 7
3640 7
3641 46
3642 4
3643 1
3644 15
3645 4
3646 35
3647 49
3648 4
3649 41
3650 1
3651 3
3652 12
3653 33
3654 0
3655 10
3656 5
3657 2
3658 19
3659 41
3660 0
3661 4
3662 4
3663 27
3664 46
3665 23
3666 2
3667 17
3668 14
3669 33
3670 22
3671 22
3672 45
3673 32
3674 21
3675 16
3676 9
3677 10
3678 38
3679 50
3680 41
3681 33
3682 20
3683 36
3684 4
3685 10
3686 12
3687 19
3688 48
3689 42
3690 7
3691 33
3692 28
3693 15
3694 6
3695 4
3696 50
3697 29
3698 6
3699 41
3700 41
3701 48
3702 4
3703 15
3704 4
3705 14
3706 20
3707 31
3708 12
3709 6
3710 36
3711 50
3712 4
3713 19
3714 24
3715 4
3716 33
3717 48
3718 4
3719 39
3720 2
3721 39
3722 25
3723 22
3724 16
3725 2
3726 10
3727 39
3728 15
3729 4
3730 6
3731 44
3732 1
3733 33
3734 8
3735 34
3736 9
3737 2
3738 3
3739 41
3740 35
3741 41
3742 36
3743 4
3744 39
3745 0
3746 15
3747 7
3748 4
3749 7
3750 31
3751 2
3752 47
3753 24
3754 7
3755 46
3756 30
3757 34
3758 49
3759 34
3760 25
3761 45
3762 31
3763 11
3764 42
3765 5
3766 5
3767 11
3768 11
3769 38
3770 19
3771 31
3772 35
3773 46
3774 41
3775 4
3776 45
3777 27
3778 5
3779 21
3780 28
3781 37
3782 3
3783 14
3784 11
3785 43
3786 9
3787 9
3788 10
3789 3
3790 48
3791 26
3792 14
3793 8
3794 18
3795 4
3796 15
3797 44
3798 27
3799 26
3800 44
3801 19
3802 14
3803 5
3804 36
3805 42
3806 4
3807 0
3808 4
3809 12
3810 6
3811 31
3812 46
3813 0
3814 4
3815 33
3816 33
3817 40
3818 31
3819 12
3820 4
3821 4
3822 43
3823 4
3824 4
3825 0
3826 21
3827 0
3828 4
3829 14
3830 24
3831 2
3832 2
3833 38
3834 6
3835 26
3836 20
3837 31
3838 1
3839 9
3840 37
3841 11
3842 0
3843 3
3844 26
3845 39
3846 5
3847 4
3848 12
3849 24
3850 12
3851 38
3852 2
3853 16
3854 1
3855 46
3856 13
3857 37
3858 4
3859 45
3860 27
3861 41
3862 22
3863 22
3864 19
3865 2
3866 21
3867 14
3868 15
3869 11
3870 14
3871 46
3872 31
3873 44
3874 27
3875 34
3876 22
3877 28
3878 14
3879 32
3880 5
3881 24
3882 41
3883 2
3884 43
3885 4
3886 48
3887 19
3888 46
3889 27
3890 2
3891 16
3892 47
3893 48
3894 6
3895 12
3896 1
3897 24
3898 2
3899 2
3900 28
3901 4
3902 0
3903 6
3904 0
3905 1
3906 43
3907 16
3908 4
3909 15
3910 4
3911 7
3912 44
3913 39
3914 11
3915 18
3916 1
3917 6
3918 24
3919 12
3920 31
3921 13
3922 0
3923 27
3924 49
3925 17
3926 33
3927 25
3928 33
3929 7
3930 5
3931 11
3932 25
3933 24
3934 33
3935 33
3936 36
3937 4
3938 15
3939 10
3940 23
3941 49
3942 43
3943 20
3944 9
3945 10
3946 42
3947 38
3948 14
3949 13
3950 10
3951 16
3952 4
3953 44
3954 20
3955 8
3956 40
3957 32
3958 27
3959 4
3960 31
3961 16
3962 37
3963 30
3964 7
3965 40
3966 4
3967 48
3968 43
3969 26
3970 41
3971 27
3972 28
3973 14
3974 31
3975 7
3976 3
3977 6
3978 5
3979 16
3980 38
3981 8
3982 0
3983 7
3984 32
3985 7
3986 38
3987 7
3988 33
3989 4
3990 10
3991 21
3992 14
3993 47
3994 31
3995 43
3996 46
3997 14
3998 14
3999 16
4000 8
4001 0
4002 20
4003 6
4004 4
4005 4
4006 7
4007 21
4008 41
4009 31
4010 43
4011 7
4012 36
4013 2
4014 6
4015 40
4016 15
4017 24
4018 42
4019 50
4020 12
4021 4
4022 44
4023 27
4024 37
4025 38
4026 7
4027 25
4028 14
4029 49
4030 13
4031 43
4032 28
4033 6
4034 35
4035 39
4036 39
4037 9
4038 25
4039 42
4040 43
4041 6
4042 37
4043 8
4044 5
4045 0
4046 33
4047 14
4048 5
4049 3
4050 43
4051 22
4052 40
4053 32
4054 35
4055 18
4056 27
4057 14
4058 9
4059 26
4060 36
4061 29
4062 6
4063 0
4064 0
4065 33
4066 15
4067 14
4068 4
4069 2
4070 5
4071 39
4072 9
4073 28
4074 38
4075 15
4076 7
4077 7
4078 24
4079 19
4080 19
4081 12
4082 19
4083 35
4084 19
4085 1
4086 0
4087 23
4088 5
4089 48
4090 46
4091 33
4092 38
4093 26
4094 32
4095 2
4096 41
4097 17
4098 10
4099 4
4100 15
4101 1
4102 11
4103 43
4104 7
4105 4
4106 30
4107 42
4108 0
4109 3
4110 44
4111 39
4112 21
4113 31
4114 34
4115 32
4116 6
4117 25
4118 15
4119 24
4120 8
4121 39
4122 31
4123 11
4124 42
4125 4
4126 41
4127 2
4128 7
4129 4
4130 1
4131 30
4132 28
4133 6
4134 15
4135 4
4136 15
4137 20
4138 7
4139 11
4140 6
4141 7
4142 11
4143 5
4144 45
4145 3
4146 9
4147 48
4148 11
4149 4
4150 11
4151 40
4152 25
4153 13
4154 9
4155 1
4156 14
4157 4
4158 35
4159 30
4160 32
4161 43
4162 2
4163 12
4164 14
4165 35
4166 33
4167 12
4168 44
4169 8
4170 14
4171 38
4172 27
4173 20
4174 22
4175 35
4176 2
4177 14
4178 17
4179 1
4180 10
4181 44
4182 17
4183 48
4184 15
4185 6
4186 34
4187 20
4188 4
4189 25
4190 4
4191 15
4192 39
4193 15
4194 11
4195 15
4196 28
4197 39
4198 31
4199 3
4200 11
4201 15
4202 2
4203 9
4204 2
4205 38
4206 4
4207 33
4208 20
4209 33
4210 2
4211 7
4212 19
4213 0
4214 1
4215 33
4216 11
4217 18
4218 32
4219 42
4220 50
4221 23
4222 4
4223 35
4224 37
4225 35
4226 4
4227 5
4228 25
4229 26
4230 19
4231 2
4232 41
4233 2
4234 20
4235 48
4236 41
4237 30
4238 39
4239 0
4240 4
4241 14
4242 14
4243 14
4244 17
4245 7
4246 34
4247 7
4248 20
4249 32
4250 7
4251 39
4252 43
4253 0
4254 31
4255 41
4256 9
4257 33
4258 14
4259 7
4260 15
4261 0
4262 31
4263 35
4264 46
4265 19
4266 25
4267 1
4268 14
4269 38
4270 14
4271 16
4272 46
4273 7
4274 40
4275 14
4276 12
4277 11
4278 5
4279 27
4280 22
4281 17
4282 32
4283 40
4284 16
4285 46
4286 0
4287 4
4288 17
4289 15
4290 5
4291 4
4292 5
4293 16
4294 28
4295 3
4296 32
4297 0
4298 15
4299 14
4300 32
4301 22
4302 4
4303 16
4304 47
4305 33
4306 7
4307 18
4308 46
4309 11
4310 27
4311 50
4312 42
4313 9
4314 20
4315 10
4316 15
4317 18
4318 4
4319 28
4320 14
4321 50
4322 14
4323 33
4324 47
4325 43
4326 19
4327 15
4328 12
4329 10
4330 10
4331 48
4332 5
4333 7
4334 4
4335 6
4336 33
4337 34
4338 44
4339 15
4340 44
4341 15
4342 22
4343 32
4344 16
4345 24
4346 43
4347 41
4348 45
4349 37
4350 35
4351 15
4352 3
4353 8
4354 41
4355 44
4356 7
4357 12
4358 0
4359 7
4360 14
4361 37
4362 18
4363 24
4364 4
4365 3
4366 7
4367 28
4368 11
4369 3
4370 1
4371 14
4372 4
4373 41
4374 44
4375 3
4376 32
4377 31
4378 13
4379 4
4380 40
4381 15
4382 3
4383 48
4384 6
4385 27
4386 14
4387 42
4388 46
4389 22
4390 1
4391 9
4392 38
4393 14
4394 24
4395 22
4396 3
4397 10
4398 14
4399 44
4400 12
4401 5
4402 50
4403 4
4404 4
4405 32
4406 30
4407 38
4408 41
4409 19
4410 37
4411 9
4412 14
4413 14
4414 3
4415 29
4416 36
4417 6
4418 4
4419 32
4420 24
4421 34
4422 6
4423 19
4424 7
4425 33
4426 31
4427 44
4428 43
4429 6
4430 15
4431 4
4432 16
4433 10
4434 16
4435 11
4436 6
4437 40
4438 7
4439 4
4440 20
4441 7
4442 27
4443 17
4444 10
4445 19
4446 17
4447 45
4448 0
4449 30
4450 47
4451 34
4452 39
4453 4
4454 9
4455 34
4456 47
4457 12
4458 6
4459 32
4460 11
4461 14
4462 4
4463 27
4464 43
4465 36
4466 15
4467 39
4468 11
4469 15
4470 15
4471 30
4472 9
4473 35
4474 44
4475 44
4476 15
4477 3
4478 15
4479 10
4480 33
4481 15
4482 0
4483 43
4484 4
4485 40
4486 5
4487 39
4488 8
4489 48
4490 46
4491 43
4492 22
4493 9
4494 0
4495 31
4496 31
4497 5
4498 35
4499 10
4500 46
4501 4
4502 11
4503 37
4504 15
4505 40
4506 20
4507 15
4508 35
4509 0
4510 42
4511 46
4512 6
4513 14
4514 36
4515 7
4516 0
4517 43
4518 0
4519 23
4520 31
4521 27
4522 4
4523 33
4524 14
4525 38
4526 13
4527 41
4528 34
4529 7
4530 14
4531 25
4532 18
4533 43
4534 26
4535 8
4536 16
4537 4
4538 0
4539 25
4540 5
4541 25
4542 35
4543 48
4544 35
4545 34
4546 23
4547 4
4548 42
4549 2
4550 43
4551 50
4552 1
4553 47
4554 9
4555 4
4556 16
4557 15
4558 0
4559 33
4560 1
4561 7
4562 11
4563 0
4564 33
4565 4
4566 31
4567 5
4568 36
4569 23
4570 46
4571 0
4572 4
4573 5
4574 43
4575 7
4576 26
4577 44
4578 24
4579 36
4580 32
4581 4
4582 14
4583 24
4584 19
4585 14
4586 25
4587 34
4588 4
4589 12
4590 6
4591 1
4592 5
4593 4
4594 13
4595 27
4596 15
4597 33
4598 42
4599 46
4600 12
4601 6
4602 21
4603 31
4604 31
4605 42
4606 47
4607 8
4608 25
4609 49
4610 43
4611 6
4612 11
4613 7
4614 11
4615 1
4616 19
4617 4
4618 46
4619 4
4620 3
4621 9
4622 46
4623 23
4624 8
4625 12
4626 1
4627 6
4628 12
4629 31
4630 1
4631 28
4632 23
4633 36
4634 2
4635 26
4636 2
4637 27
4638 12
4639 0
4640 2
4641 28
4642 39
4643 4
4644 17
4645 15
4646 30
4647 42
4648 33
4649 32
4650 15
4651 46
4652 1
4653 46
4654 1
4655 33
4656 19
4657 39
4658 44
4659 46
4660 16
4661 15
4662 23
4663 0
4664 2
4665 12
4666 33
4667 43
4668 25
4669 34
4670 15
4671 33
4672 32
4673 42
4674 50
4675 27
4676 22
4677 0
4678 16
4679 4
4680 46
4681 19
4682 32
4683 49
4684 45
4685 36
4686 33
4687 21
4688 11
4689 36
4690 26
4691 17
4692 20
4693 20
4694 24
4695 3
4696 6
4697 5
4698 27
4699 21
4700 1
4701 26
4702 12
4703 33
4704 12
4705 35
4706 33
4707 25
4708 36
4709 33
4710 15
4711 33
4712 37
4713 4
4714 1
4715 7
4716 43
4717 24
4718 6
4719 15
4720 0
4721 0
4722 15
4723 46
4724 21
4725 45
4726 11
4727 29
4728 15
4729 31
4730 15
4731 27
4732 9
4733 11
4734 35
4735 50
4736 42
4737 45
4738 34
4739 30
4740 31
4741 42
4742 43
4743 25
4744 1
4745 46
4746 15
4747 31
4748 6
4749 15
4750 34
4751 11
4752 20
4753 4
4754 15
4755 38
4756 21
4757 14
4758 43
4759 31
4760 15
4761 42
4762 18
4763 26
4764 31
4765 33
4766 28
4767 41
4768 36
4769 46
4770 9
4771 45
4772 30
4773 0
4774 3
4775 13
4776 20
4777 19
4778 27
4779 0
4780 33
4781 12
4782 11
4783 46
4784 9
4785 4
4786 2
4787 15
4788 0
4789 45
4790 31
4791 7
4792 20
4793 4
4794 16
4795 15
4796 41
4797 7
4798 0
4799 27
4800 22
4801 25
4802 21
4803 45
4804 19
4805 2
4806 0
4807 8
4808 14
4809 24
4810 25
4811 25
4812 4
4813 28
4814 32
4815 4
4816 36
4817 33
4818 46
4819 15
4820 6
4821 48
4822 11
4823 41
4824 31
4825 7
4826 10
4827 33
4828 10
4829 31
4830 2
4831 43
4832 15
4833 37
4834 14
4835 30
4836 10
4837 20
4838 14
4839 21
4840 31
4841 35
4842 42
4843 45
4844 27
4845 44
4846 44
4847 15
4848 4
4849 9
4850 42
4851 30
4852 0
4853 34
4854 14
4855 23
4856 15
4857 26
4858 31
4859 46
4860 4
4861 42
4862 27
4863 12
4864 45
4865 44
4866 40
4867 12
4868 33
4869 39
4870 38
4871 14
4872 15
4873 31
4874 24
4875 5
4876 19
4877 9
4878 32
4879 14
4880 31
4881 3
4882 34
4883 5
4884 35
4885 30
4886 34
4887 40
4888 1
4889 42
4890 4
4891 33
4892 11
4893 4
4894 38
4895 4
4896 6
4897 20
4898 9
4899 7
4900 43
4901 44
4902 6
4903 4
4904 24
4905 47
4906 27
4907 22
4908 0
4909 14
4910 8
4911 3
4912 35
4913 38
4914 24
4915 29
4916 0
4917 32
4918 0
4919 15
4920 5
4921 21
4922 9
4923 11
4924 33
4925 1
4926 27
4927 41
4928 4
4929 14
4930 9
4931 15
4932 33
4933 44
4934 44
4935 44
4936 4
4937 16
4938 43
4939 49
4940 26
4941 3
4942 36
4943 23
4944 30
4945 0
4946 3
4947 41
4948 2
4949 38
4950 5
4951 12
4952 2
4953 39
4954 43
4955 4
4956 0
4957 21
4958 18
4959 35
4960 37
4961 25
4962 14
4963 5
4964 50
4965 30
4966 19
4967 15
4968 37
4969 6
4970 46
4971 41
4972 14
4973 4
4974 4
4975 20
4976 43
4977 50
4978 22
4979 15
4980 48
4981 35
4982 39
4983 10
4984 9
4985 14
4986 4
4987 34
4988 16
4989 31
4990 43
4991 18
4992 18
4993 4
4994 49
4995 2
4996 2
4997 2
4998 5
4999 15
5000 6
5001 43
5002 35
5003 20
5004 8
5005 17
5006 16
5007 23
5008 9
5009 44
5010 24
5011 3
5012 4
5013 3
5014 41
5015 4
5016 41
5017 26
5018 32
5019 37
5020 4
5021 22
5022 20
5023 11
5024 26
5025 4
5026 45
5027 0
5028 39
5029 4
5030 40
5031 9
5032 31
5033 21
5034 45
5035 15
5036 20
5037 48
5038 14
5039 23
5040 3
5041 24
5042 33
5043 30
5044 7
5045 4
5046 3
5047 50
5048 14
5049 45
5050 23
5051 45
5052 8
5053 44
5054 23
5055 47
5056 40
5057 27
5058 20
5059 44
5060 40
5061 22
5062 26
5063 27
5064 42
5065 24
5066 27
5067 9
5068 20
5069 22
5070 16
5071 28
5072 9
5073 1
5074 12
5075 45
5076 2
5077 8
5078 37
5079 37
5080 18
5081 45
5082 43
5083 21
5084 20
5085 41
5086 11
5087 13
5088 38
5089 24
5090 4
5091 14
5092 20
5093 5
5094 27
5095 14
5096 44
5097 2
5098 35
5099 36
5100 31
5101 25
5102 11
5103 4
5104 0
5105 5
5106 27
5107 47
5108 2
5109 27
5110 34
5111 18
5112 0
5113 5
5114 39
5115 43
5116 26
5117 47
5118 17
5119 16
5120 21
5121 46
5122 22
5123 6
5124 6
5125 14
5126 12
5127 2
5128 25
5129 18
5130 27
5131 20
5132 4
5133 4
5134 4
5135 43
5136 17
5137 46
5138 48
5139 1
5140 42
5141 41
5142 21
5143 20
5144 22
5145 10
5146 15
5147 33
5148 36
5149 47
5150 38
5151 13
5152 5
5153 7
5154 41
5155 0
5156 15
5157 8
5158 13
5159 38
5160 37
5161 14
5162 43
5163 25
5164 33
5165 23
5166 12
5167 14
5168 43
5169 31
5170 3
5171 36
5172 28
5173 35
5174 7
5175 22
5176 19
5177 3
5178 4
5179 3
5180 10
5181 40
5182 7
5183 15
5184 38
5185 1
5186 4
5187 1
5188 4
5189 9
5190 4
5191 14
5192 28
5193 19
5194 2
5195 10
5196 46
5197 6
5198 4
5199 9
5200 43
5201 16
5202 25
5203 7
5204 10
5205 2
5206 32
5207 28
5208 11
5209 14
5210 15
5211 14
5212 42
5213 44
5214 38
5215 20
5216 47
5217 27
5218 36
5219 1
5220 29
5221 4
5222 32
5223 35
5224 34
5225 22
5226 2
5227 14
5228 37
5229 32
5230 45
5231 6
5232 2
5233 44
5234 46
5235 31
5236 24
5237 43
5238 22
5239 4
5240 40
5241 26
5242 39
5243 34
5244 10
5245 38
5246 47
5247 13
5248 43
5249 7
5250 47
5251 43
5252 19
5253 9
5254 22
5255 14
5256 4
5257 33
5258 4
5259 4
5260 12
5261 2
5262 15
5263 4
5264 14
5265 38
5266 15
5267 38
5268 22
5269 0
5270 37
5271 50
5272 37
5273 49
5274 43
5275 4
5276 10
5277 41
5278 22
5279 22
5280 41
5281 27
5282 28
5283 46
5284 24
5285 14
5286 28
5287 43
5288 16
5289 11
5290 1
5291 27
5292 11
5293 25
5294 43
5295 20
5296 9
5297 20
5298 48
5299 27
5300 9
5301 35
5302 16
5303 29
5304 33
5305 46
5306 20
5307 3
5308 0
5309 7
5310 14
5311 19
5312 31
5313 14
5314 0
5315 24
5316 23
5317 46
5318 44
5319 24
5320 41
5321 50
5322 21
5323 15
5324 42
5325 43
5326 42
5327 11
5328 50
5329 40
5330 32
5331 14
5332 17
5333 14
5334 4
5335 21
5336 29
5337 2
5338 43
5339 31
5340 4
5341 12
5342 9
5343 0
5344 16
5345 6
5346 0
5347 48
5348 0
5349 41
5350 20
5351 44
5352 6
5353 8
5354 35
5355 25
5356 26
5357 15
5358 28
5359 45
5360 46
5361 12
5362 46
5363 6
5364 0
5365 20
5366 0
5367 47
5368 27
5369 35
5370 9
5371 7
5372 48
5373 18
5374 15
5375 44
5376 26
5377 7
5378 38
5379 1
5380 31
5381 16
5382 43
5383 25
5384 7
5385 16
5386 33
5387 14
5388 34
5389 44
5390 14
5391 25
5392 10
5393 30
5394 10
5395 14
5396 22
5397 8
5398 49
5399 29
5400 5
5401 41
5402 7
5403 4
5404 50
5405 4
5406 19
5407 9
5408 11
5409 38
5410 20
5411 0
5412 40
5413 31
5414 14
5415 28
5416 19
5417 40
5418 37
5419 4
5420 48
5421 12
5422 36
5423 7
5424 35
5425 11
5426 14
5427 4
5428 41
5429 14
5430 27
5431 6
5432 4
5433 36
5434 45
5435 6
5436 20
5437 5
5438 5
5439 14
5440 7
5441 13
5442 30
5443 50
5444 44
5445 2
5446 14
5447 4
5448 40
5449 4
5450 40
5451 10
5452 40
5453 16
5454 15
5455 0
5456 29
5457 3
5458 4
5459 6
5460 44
5461 20
5462 0
5463 0
5464 42
5465 1
5466 5
5467 15
5468 32
5469 5
5470 9
5471 7
5472 24
5473 47
5474 5
5475 25
5476 2
5477 43
5478 34
5479 11
5480 21
5481 8
5482 2
5483 42
5484 44
5485 7
5486 40
5487 41
5488 4
5489 44
5490 17
5491 2
5492 36
5493 5
5494 38
5495 4
5496 14
5497 6
5498 6
5499 13
5500 43
5501 32
5502 28
5503 20
5504 19
5505 43
5506 14
5507 13
5508 23
5509 24
5510 9
5511 12
5512 40
5513 14
5514 14
5515 12
5516 7
5517 22
5518 36
5519 10
5520 5
5521 36
5522 3
5523 31
5524 41
5525 15
5526 35
5527 14
5528 43
5529 10
5530 5
5531 31
5532 1
5533 3
5534 1
5535 44
5536 33
5537 42
5538 22
5539 22
5540 50
5541 15
5542 34
5543 33
5544 38
5545 43
5546 31
5547 4
5548 1
5549 20
5550 9
5551 41
5552 43
5553 7
5554 7
5555 4
5556 28
5557 4
5558 6
5559 35
5560 4
5561 39
5562 28
5563 45
5564 46
5565 6
5566 4
5567 41
5568 8
5569 30
5570 2
5571 39
5572 4
5573 43
5574 2
5575 19
5576 18
5577 46
5578 0
5579 28
5580 19
5581 37
5582 12
5583 2
5584 34
5585 4
5586 6
5587 14
5588 4
5589 26
5590 28
5591 30
5592 15
5593 27
5594 14
5595 11
5596 33
5597 9
5598 45
5599 7
5600 20
5601 10
5602 41
5603 41
5604 21
5605 14
5606 15
5607 50
5608 4
5609 44
5610 5
5611 28
5612 28
5613 20
5614 19
5615 44
5616 34
5617 9
5618 37
5619 15
5620 37
5621 39
5622 28
5623 37
5624 46
5625 29
5626 33
5627 15
5628 18
5629 7
5630 35
5631 26
5632 32
5633 18
5634 27
5635 34
5636 12
5637 32
5638 37
5639 1
5640 16
5641 12
5642 5
5643 4
5644 39
5645 2
5646 1
5647 20
5648 23
5649 16
5650 4
5651 28
5652 14
5653 9
5654 0
5655 19
5656 42
5657 5
5658 4
5659 5
5660 22
5661 9
5662 31
5663 14
5664 4
5665 49
5666 35
5667 36
5668 31
5669 46
5670 14
5671 11
5672 33
5673 20
5674 34
5675 0
5676 49
5677 4
5678 29
5679 5
5680 1
5681 2
5682 33
5683 43
5684 48
5685 0
5686 18
5687 48
5688 21
5689 12
5690 42
5691 39
5692 4
5693 11
5694 7
5695 21
5696 12
5697 45
5698 43
5699 7
5700 28
5701 10
5702 45
5703 45
5704 16
5705 35
5706 14
5707 11
5708 0
5709 15
5710 7
5711 2
5712 45
5713 1
5714 24
5715 37
5716 46
5717 26
5718 20
5719 38
5720 3
5721 0
5722 4
5723 21
5724 27
5725 6
5726 14
5727 5
5728 1
5729 14
5730 0
5731 46
5732 26
5733 37
5734 33
5735 4
5736 8
5737 42
5738 28
5739 31
5740 4
5741 6
5742 33
5743 36
5744 15
5745 5
5746 4
5747 22
5748 15
5749 29
5750 30
5751 30
5752 14
5753 3
5754 5
5755 7
5756 25
5757 42
5758 25
5759 6
5760 45
5761 12
5762 37
5763 42
5764 45
5765 26
5766 13
5767 11
5768 50
5769 23
5770 28
5771 33
5772 12
5773 23
5774 4
5775 32
5776 34
5777 4
5778 3
5779 4
5780 4
5781 13
5782 0
5783 36
5784 0
5785 32
5786 14
5787 45
5788 31
5789 48
5790 33
5791 4
5792 48
5793 15
5794 5
5795 35
5796 4
5797 50
5798 11
5799 4
5800 4
5801 27
5802 4
5803 37
5804 1
5805 10
5806 4
5807 41
5808 4
5809 31
5810 17
5811 28
5812 15
5813 26
5814 48
5815 21
5816 30
5817 31
5818 3
5819 17
5820 3
5821 4
5822 10
5823 8
5824 0
5825 32
5826 30
5827 0
5828 8
5829 23
5830 4
5831 21
5832 18
5833 20
5834 8
5835 24
5836 6
5837 25
5838 19
5839 20
5840 3
5841 14
5842 4
5843 26
5844 22
5845 4
5846 14
5847 6
5848 3
5849 31
5850 13
5851 0
5852 30
5853 31
5854 17
5855 47
5856 43
5857 50
5858 32
5859 42
5860 6
5861 10
5862 4
5863 15
5864 33
5865 14
5866 9
5867 39
5868 12
5869 31
5870 40
5871 40
5872 26
5873 3
5874 4
5875 43
5876 33
5877 28
5878 3
5879 28
5880 7
5881 40
5882 10
5883 10
5884 4
5885 0
5886 46
5887 8
5888 28
5889 24
5890 1
5891 5
5892 15
5893 46
5894 4
5895 14
5896 7
5897 4
5898 14
5899 20
5900 20
5901 15
5902 7
5903 42
5904 11
5905 0
5906 44
5907 19
5908 11
5909 20
5910 12
5911 1
5912 22
5913 15
5914 20
5915 28
5916 44
5917 3
5918 38
5919 0
5920 6
5921 12
5922 9
5923 7
5924 26
5925 20
5926 29
5927 20
5928 44
5929 46
5930 33
5931 2
5932 10
5933 35
5934 4
5935 38
5936 0
5937 49
5938 18
5939 14
5940 6
5941 43
5942 14
5943 32
5944 50
5945 17
5946 14
5947 40
5948 36
5949 18
5950 35
5951 18
5952 35
5953 4
5954 40
5955 2
5956 36
5957 43
5958 8
5959 12
5960 20
5961 0
5962 21
5963 4
5964 6
5965 6
5966 12
5967 20
5968 25
5969 6
5970 49
5971 5
5972 32
5973 33
5974 16
5975 35
5976 34
5977 5
5978 23
5979 15
5980 10
5981 13
5982 4
5983 15
5984 4
5985 8
5986 18
5987 14
5988 42
5989 7
5990 37
5991 17
5992 29
5993 42
5994 22
5995 46
5996 14
5997 25
5998 19
5999 41
6000 42
6001 15
6002 12
6003 2
6004 14
6005 46
6006 49
6007 25
6008 40
6009 1
6010 31
6011 35
6012 13
6013 7
6014 9
6015 10
6016 32
6017 12
6018 49
6019 7
6020 34
6021 38
6022 45
6023 5
6024 26
6025 3
6026 46
6027 14
6028 7
6029 6
6030 38
6031 44
6032 32
6033 8
6034 44
6035 15
6036 25
6037 21
6038 14
6039 23
6040 24
6041 41
6042 1
6043 33
6044 46
6045 4
6046 36
6047 23
6048 46
6049 4
6050 17
6051 6
6052 9
6053 4
6054 3
6055 15
6056 31
6057 48
6058 12
6059 34
6060 26
6061 21
6062 7
6063 15
6064 42
6065 15
6066 4
6067 36
6068 11
6069 41
6070 48
6071 3
6072 4
6073 26
6074 43
6075 23
6076 30
6077 4
6078 29
6079 38
6080 38
6081 8
6082 6
6083 21
6084 33
6085 27
6086 33
6087 12
6088 44
6089 43
6090 42
6091 23
6092 5
6093 23
6094 19
6095 50
6096 49
6097 29
6098 12
6099 43
6100 6
6101 14
6102 5
6103 40
6104 21
6105 50
6106 0
6107 46
6108 5
6109 16
6110 43
6111 38
6112 39
6113 18
6114 4
6115 7
6116 4
6117 18
6118 4
6119 12
6120 4
6121 44
6122 26
6123 15
6124 22
6125 45
6126 33
6127 14
6128 2
6129 30
6130 11
6131 38
6132 4
6133 7
6134 7
6135 4
6136 38
6137 14
6138 23
6139 0
6140 3
6141 4
6142 12
6143 21
6144 44
6145 19
6146 12
6147 3
6148 4
6149 0
6150 15
6151 45
6152 27
6153 46
6154 15
6155 36
6156 24
6157 44
6158 12
6159 45
6160 4
6161 12
6162 15
6163 7
6164 15
6165 26
6166 38
6167 39
6168 4
6169 46
6170 1
6171 14
6172 9
6173 41
6174 11
6175 5
6176 12
6177 8
6178 31
6179 7
6180 13
6181 40
6182 0
6183 36
6184 41
6185 50
6186 4
6187 4
6188 46
6189 35
6190 11
6191 22
6192 3
6193 34
6194 15
6195 17
6196 5
6197 31
6198 24
6199 20
6200 35
6201 14
6202 7
6203 4
6204 27
6205 35
6206 25
6207 44
6208 47
6209 15
6210 38
6211 14
6212 41
6213 1
6214 31
6215 41
6216 6
6217 27
6218 43
6219 11
6220 46
6221 5
6222 42
6223 11
6224 7
6225 34
6226 4
6227 15
6228 34
6229 44
6230 6
6231 48
6232 33
6233 35
6234 30
6235 21
6236 49
6237 39
6238 17
6239 11
6240 12
6241 41
6242 32
6243 28
6244 27
6245 4
6246 30
6247 9
6248 33
6249 46
6250 11
6251 30
6252 12
6253 14
6254 23
6255 4
6256 0
6257 14
6258 7
6259 38
6260 7
6261 16
6262 32
6263 27
6264 3
6265 24
6266 29
6267 15
6268 4
6269 15
6270 10
6271 0
6272 42
6273 12
6274 21
6275 38
6276 4
6277 6
6278 4
6279 29
6280 22
6281 12
6282 10
6283 34
6284 12
6285 24
6286 35
6287 25
6288 9
6289 44
6290 12
6291 28
6292 21
6293 42
6294 4
6295 44
6296 4
6297 41
6298 15
6299 5
6300 4
6301 38
6302 37
6303 33
6304 15
6305 35
6306 42
6307 0
6308 31
6309 15
6310 15
6311 11
6312 37
6313 21
6314 43
6315 45
6316 4
6317 2
6318 10
6319 12
6320 23
6321 31
6322 39
6323 32
6324 0
6325 23
6326 37
6327 9
6328 33
6329 14
6330 41
6331 48
6332 41
6333 33
6334 4
6335 33
6336 16
6337 6
6338 11
6339 37
6340 17
6341 4
6342 31
6343 29
6344 1
6345 12
6346 41
6347 7
6348 31
6349 4
6350 15
6351 31
6352 0
6353 20
6354 40
6355 44
6356 6
6357 50
6358 4
6359 7
6360 25
6361 32
6362 7
6363 27
6364 31
6365 3
6366 27
6367 41
6368 4
6369 25
6370 3
6371 44
6372 29
6373 4
6374 4
6375 25
6376 12
6377 4
6378 2
6379 33
6380 36
6381 36
6382 10
6383 43
6384 25
6385 14
6386 7
6387 7
6388 49
6389 31
6390 22
6391 7
6392 14
6393 17
6394 37
6395 44
6396 8
6397 15
6398 15
6399 33
6400 4
6401 0
6402 40
6403 1
6404 12
6405 0
6406 22
6407 20
6408 27
6409 38
6410 7
6411 15
6412 35
6413 32
6414 38
6415 4
6416 41
6417 6
6418 42
6419 46
6420 45
6421 32
6422 2
6423 5
6424 28
6425 15
6426 11
6427 39
6428 11
6429 6
6430 26
6431 14
6432 3
6433 11
6434 23
6435 36
6436 14
6437 4
6438 22
6439 7
6440 4
6441 39
6442 1
6443 15
6444 31
6445 27
6446 15
6447 3
6448 35
6449 15
6450 30
6451 24
6452 4
6453 7
6454 15
6455 34
6456 14
6457 15
6458 21
6459 13
6460 15
6461 14
6462 27
6463 29
6464 14
6465 43
6466 11
6467 3
6468 33
6469 43
6470 47
6471 23
6472 26
6473 46
6474 43
6475 21
6476 7
6477 2
6478 44
6479 18
6480 19
6481 32
6482 48
6483 49
6484 11
6485 15
6486 4
6487 1
6488 7
6489 6
6490 48
6491 7
6492 5
6493 33
6494 32
6495 37
6496 9
6497 27
6498 10
6499 50
6500 30
6501 26
6502 23
6503 2
6504 12
6505 45
6506 37
6507 4
6508 4
6509 4
6510 36
6511 46
6512 18
6513 15
6514 17
6515 42
6516 6
6517 6
6518 43
6519 24
6520 41
6521 8
6522 25
6523 27
6524 43
6525 14
6526 14
6527 20
6528 6
6529 14
6530 47
6531 43
6532 14
6533 34
6534 50
6535 16
6536 15
6537 40
6538 28
6539 19
6540 36
6541 20
6542 4
6543 0
6544 46
6545 30
6546 39
6547 37
6548 5
6549 36
6550 12
6551 49
6552 15
6553 25
6554 2
6555 5
6556 4
6557 6
6558 0
6559 28
6560 35
6561 14
6562 6
6563 39
6564 48
6565 17
6566 31
6567 34
6568 15
6569 1
6570 10
6571 43
6572 33
6573 20
6574 19
6575 35
6576 15
6577 3
6578 8
6579 19
6580 29
6581 36
6582 5
6583 1
6584 20
6585 7
6586 0
6587 23
6588 6
6589 50
6590 0
6591 2
6592 15
6593 20
6594 10
6595 38
6596 36
6597 32
6598 14
6599 35
6600 24
6601 37
6602 4
6603 43
6604 19
6605 1
6606 0
6607 41
6608 30
6609 35
6610 11
6611 1
6612 42
6613 44
6614 17
6615 15
6616 34
6617 9
6618 35
6619 33
6620 0
6621 30
6622 46
6623 7
6624 13
6625 6
6626 34
6627 11
6628 18
6629 18
6630 41
6631 10
6632 33
6633 19
6634 11
6635 28
6636 30
6637 33
6638 37
6639 42
6640 42
6641 12
6642 31
6643 0
6644 31
6645 0
6646 3
6647 38
6648 11
6649 6
6650 31
6651 2
6652 0
6653 39
6654 9
6655 23
6656 16
6657 38
6658 38
6659 47
6660 33
6661 11
6662 11
6663 7
6664 17
6665 46
6666 35
6667 4
6668 11
6669 17
6670 7
6671 26
6672 0
6673 4
6674 24
6675 17
6676 6
6677 7
6678 7
6679 38
6680 1
6681 32
6682 15
6683 39
6684 4
6685 23
6686 50
6687 4
6688 8
6689 32
6690 2
6691 20
6692 30
6693 9
6694 31
6695 4
6696 7
6697 33
6698 35
6699 9
6700 46
6701 3
6702 6
6703 43
6704 28
6705 33
6706 24
6707 11
6708 14
6709 37
6710 12
6711 2
6712 0
6713 20
6714 26
6715 10
6716 44
6717 10
6718 31
6719 5
6720 2
6721 16
6722 20
6723 12
6724 4
6725 11
6726 14
6727 15
6728 22
6729 28
6730 38
6731 38
6732 38
6733 1
6734 4
6735 20
6736 16
6737 1
6738 24
6739 12
6740 19
6741 37
6742 31
6743 14
6744 6
6745 24
6746 46
6747 11
6748 14
6749 0
6750 2
6751 0
6752 20
6753 17
6754 22
6755 23
6756 0
6757 28
6758 15
6759 4
6760 1
6761 10
6762 21
6763 48
6764 19
6765 39
6766 49
6767 16
6768 28
6769 29
6770 35
6771 9
6772 35
6773 19
6774 27
6775 33
6776 50
6777 0
6778 12
6779 12
6780 14
6781 4
6782 36
6783 31
6784 22
6785 45
6786 0
6787 39
6788 4
6789 14
6790 36
6791 41
6792 42
6793 6
6794 7
6795 0
6796 9
6797 45
6798 14
6799 15
6800 23
6801 15
6802 32
6803 32
6804 14
6805 1
6806 20
6807 20
6808 20
6809 33
6810 43
6811 24
6812 15
6813 6
6814 31
6815 4
6816 4
6817 15
6818 4
6819 14
6820 15
6821 44
6822 9
6823 44
6824 20
6825 7
6826 31
6827 4
6828 1
6829 32
6830 26
6831 9
6832 40
6833 30
6834 33
6835 14
6836 4
6837 33
6838 6
6839 4
6840 28
6841 34
6842 4
6843 0
6844 14
6845 43
6846 7
6847 4
6848 31
6849 10
6850 19
6851 9
6852 12
6853 1
6854 9
6855 21
6856 0
6857 34
6858 1
6859 22
6860 9
6861 40
6862 20
6863 9
6864 46
6865 11
6866 38
6867 24
6868 18
6869 47
6870 50
6871 29
6872 31
6873 11
6874 19
6875 33
6876 30
6877 34
6878 43
6879 0
6880 12
6881 0
6882 14
6883 4
6884 35
6885 3
6886 35
6887 41
6888 12
6889 15
6890 31
6891 7
6892 4
6893 50
6894 16
6895 45
6896 20
6897 38
6898 9
6899 11
6900 43
6901 15
6902 31
6903 29
6904 33
6905 28
6906 36
6907 8
6908 0
6909 7
6910 26
6911 33
6912 31
6913 21
6914 14
6915 7
6916 2
6917 4
6918 25
6919 50
6920 19
6921 12
6922 17
6923 4
6924 31
6925 31
6926 33
6927 14
6928 42
6929 44
6930 15
6931 43
6932 1
6933 6
6934 33
6935 21
6936 14
6937 26
6938 4
6939 14
6940 14
6941 13
6942 4
6943 44
6944 14
6945 8
6946 16
6947 4
6948 0
6949 16
6950 5
6951 35
6952 50
6953 0
6954 15
6955 14
6956 11
6957 14
6958 39
6959 4
6960 10
6961 48
6962 6
6963 7
6964 36
6965 42
6966 4
6967 17
6968 8
6969 6
6970 4
6971 14
6972 13
6973 18
6974 34
6975 8
6976 1
6977 28
6978 8
6979 48
6980 6
6981 39
6982 42
6983 4
6984 44
6985 14
6986 42
6987 46
6988 1
6989 43
6990 18
6991 23
6992 23
6993 36
6994 27
6995 4
6996 35
6997 43
6998 9
6999 48
7000 44
7001 44
7002 14
7003 48
7004 4
7005 44
7006 42
7007 0
7008 48
7009 5
7010 37
7011 23
7012 20
7013 4
7014 17
7015 27
7016 0
7017 4
7018 4
7019 38
7020 11
7021 48
7022 10
7023 5
7024 22
7025 9
7026 4
7027 28
7028 39
7029 35
7030 24
7031 9
7032 29
7033 3
7034 23
7035 7
7036 25
7037 25
7038 10
7039 18
7040 40
7041 3
7042 6
7043 44
7044 13
7045 39
7046 42
7047 17
7048 30
7049 43
7050 32
7051 46
7052 33
7053 34
7054 4
7055 34
7056 7
7057 0
7058 22
7059 31
7060 19
7061 31
7062 7
7063 34
7064 11
7065 8
7066 13
7067 12
7068 1
7069 24
7070 38
7071 4
7072 47
7073 31
7074 7
7075 43
7076 27
7077 20
7078 38
7079 40
7080 3
7081 28
7082 0
7083 4
7084 7
7085 4
7086 30
7087 20
7088 14
7089 43
7090 32
7091 44
7092 3
7093 10
7094 8
7095 45
7096 46
7097 43
7098 29
7099 34
7100 9
7101 15
7102 7
7103 40
7104 14
7105 2
7106 43
7107 27
7108 7
7109 7
7110 25
7111 33
7112 10
7113 41
7114 38
7115 31
7116 41
7117 21
7118 7
7119 15
7120 6
7121 36
7122 27
7123 18
7124 4
7125 11
7126 14
7127 31
7128 9
7129 21
7130 41
7131 15
7132 23
7133 39
7134 4
7135 7
7136 22
7137 37
7138 4
7139 31
7140 34
7141 9
7142 3
7143 3
7144 17
7145 31
7146 9
7147 14
7148 38
7149 41
7150 1
7151 4
7152 34
7153 6
7154 34
7155 29
7156 3
7157 5
7158 17
7159 23
7160 47
7161 22
7162 17
7163 33
7164 35
7165 11
7166 7
7167 45
7168 2
7169 20
7170 3
7171 30
7172 18
7173 33
7174 46
7175 38
7176 18
7177 43
7178 27
7179 3
7180 3
7181 1
7182 33
7183 47
7184 11
7185 6
7186 29
7187 30
7188 24
7189 45
7190 44
7191 4
7192 8
7193 38
7194 28
7195 2
7196 10
7197 9
7198 45
7199 35
7200 46
7201 11
7202 30
7203 15
7204 14
7205 12
7206 12
7207 32
7208 8
7209 14
7210 0
7211 47
7212 21
7213 44
7214 12
7215 45
7216 39
7217 10
7218 35
7219 11
7220 2
7221 30
7222 14
7223 41
7224 20
7225 38
7226 35
7227 38
7228 7
7229 6
7230 5
7231 47
7232 1
7233 4
7234 9
7235 31
7236 6
7237 10
7238 2
7239 15
7240 15
7241 44
7242 29
7243 9
7244 41
7245 14
7246 0
7247 4
7248 19
7249 19
7250 10
7251 5
7252 2
7253 46
7254 14
7255 11
7256 4
7257 45
7258 15
7259 35
7260 37
7261 2
7262 11
7263 40
7264 31
7265 25
7266 5
7267 50
7268 4
7269 5
7270 15
7271 36
7272 6
7273 31
7274 5
7275 38
7276 16
7277 5
7278 16
7279 0
7280 7
7281 39
7282 26
7283 20
7284 41
7285 11
7286 18
7287 2
7288 24
7289 4
7290 3
7291 44
7292 30
7293 0
7294 16
7295 15
7296 2
7297 22
7298 34
7299 4
7300 7
7301 43
7302 28
7303 4
7304 27
7305 5
7306 15
7307 50
7308 12
7309 32
7310 4
7311 24
7312 28
7313 44
7314 4
7315 6
7316 7
7317 10
7318 0
7319 2
7320 16
7321 5
7322 26
7323 4
7324 37
7325 48
7326 7
7327 28
7328 9
7329 4
7330 10
7331 7
7332 15
7333 32
7334 14
7335 4
7336 29
7337 23
7338 21
7339 20
7340 41
7341 4
7342 33
7343 14
7344 21
7345 47
7346 38
7347 38
7348 0
7349 3
7350 40
7351 44
7352 10
7353 2
7354 30
7355 24
7356 50
7357 46
7358 50
7359 6
7360 4
7361 4
7362 4
7363 28
7364 33
7365 29
7366 38
7367 14
7368 19
7369 21
7370 28
7371 1
7372 11
7373 35
7374 12
7375 7
7376 4
7377 38
7378 44
7379 35
7380 14
7381 14
7382 31
7383 4
7384 8
7385 39
7386 4
7387 15
7388 16
7389 0
7390 24
7391 7
7392 18
7393 17
7394 15
7395 31
7396 19
7397 23
7398 14
7399 48
7400 15
7401 30
7402 39
7403 2
7404 2
7405 32
7406 0
7407 32
7408 4
7409 4
7410 41
7411 4
7412 38
7413 17
7414 19
7415 9
7416 8
7417 9
7418 2
7419 18
7420 34
7421 10
7422 1
7423 36
7424 20
7425 44
7426 5
7427 8
7428 23
7429 4
7430 34
7431 3
7432 31
7433 3
7434 11
7435 33
7436 46
7437 14
7438 21
7439 4
7440 41
7441 15
7442 43
7443 4
7444 15
7445 36
7446 4
7447 15
7448 5
7449 7
7450 14
7451 34
7452 14
7453 4
7454 2
7455 16
7456 15
7457 14
7458 24
7459 6
7460 50
7461 4
7462 45
7463 24
7464 10
7465 20
7466 46
7467 26
7468 4
7469 44
7470 20
7471 7
7472 15
7473 5
7474 1
7475 43
7476 5
7477 21
7478 22
7479 27
7480 22
7481 10
7482 4
7483 43
7484 31
7485 0
7486 4
7487 19
7488 10
7489 9
7490 46
7491 14
7492 1
7493 4
7494 2
7495 15
7496 15
7497 4
7498 12
7499 35
7500 20
7501 1
7502 4
7503 23
7504 15
7505 38
7506 16
7507 9
7508 20
7509 39
7510 0
7511 27
7512 11
7513 36
7514 14
7515 14
7516 34
7517 27
7518 50
7519 9
7520 33
7521 24
7522 33
7523 19
7524 9
7525 22
7526 41
7527 4
7528 6
7529 34
7530 15
7531 39
7532 47
7533 20
7534 7
7535 4
7536 3
7537 17
7538 15
7539 11
7540 11
7541 22
7542 34
7543 48
7544 37
7545 22
7546 8
7547 1
7548 4
7549 20
7550 1
7551 10
7552 31
7553 45
7554 4
7555 0
7556 15
7557 4
7558 13
7559 21
7560 46
7561 14
7562 16
7563 2
7564 4
7565 10
7566 7
7567 15
7568 44
7569 3
7570 47
7571 10
7572 15
7573 0
7574 10
7575 46
7576 47
7577 46
7578 14
7579 23
7580 23
7581 24
7582 4
7583 46
7584 7
7585 37
7586 34
7587 28
7588 47
7589 21
7590 31
7591 17
7592 12
7593 6
7594 38
7595 11
7596 43
7597 31
7598 4
7599 38
7600 39
7601 15
7602 20
7603 48
7604 28
7605 41
7606 15
7607 1
7608 8
7609 7
7610 20
7611 41
7612 22
7613 9
7614 49
7615 45
7616 6
7617 17
7618 20
7619 11
7620 1
7621 27
7622 45
7623 42
7624 4
7625 17
7626 16
7627 34
7628 15
7629 3
7630 0
7631 38
7632 46
7633 43
7634 45
7635 0
7636 18
7637 44
7638 12
7639 35
7640 7
7641 33
7642 33
7643 1
7644 0
7645 14
7646 0
7647 2
7648 35
7649 6
7650 7
7651 15
7652 37
7653 4
7654 7
7655 38
7656 31
7657 13
7658 42
7659 31
7660 2
7661 34
7662 4
7663 0
7664 18
7665 27
7666 4
7667 23
7668 14
7669 2
7670 4
7671 11
7672 4
7673 7
7674 41
7675 33
7676 17
7677 9
7678 28
7679 10
7680 46
7681 4
7682 42
7683 39
7684 9
7685 16
7686 15
7687 4
7688 0
7689 7
7690 42
7691 16
7692 41
7693 16
7694 45
7695 14
7696 31
7697 7
7698 15
7699 38
7700 14
7701 45
7702 27
7703 11
7704 14
7705 34
7706 11
7707 20
7708 31
7709 45
7710 4
7711 11
7712 45
7713 33
7714 25
7715 1
7716 28
7717 30
7718 50
7719 11
7720 14
7721 36
7722 4
7723 4
7724 33
7725 14
7726 3
7727 3
7728 0
7729 39
7730 39
7731 45
7732 42
7733 0
7734 4
7735 15
7736 27
7737 5
7738 45
7739 28
7740 1
7741 26
7742 44
7743 24
7744 6
7745 4
7746 20
7747 44
7748 26
7749 4
7750 24
7751 20
7752 4
7753 20
7754 14
7755 33
7756 9
7757 50
7758 12
7759 19
7760 6
7761 30
7762 41
7763 0
7764 16
7765 22
7766 14
7767 27
7768 11
7769 7
7770 4
7771 41
7772 5
7773 20
7774 39
7775 18
7776 13
7777 42
7778 27
7779 39
7780 10
7781 14
7782 30
7783 6
7784 14
7785 4
7786 32
7787 3
7788 45
7789 3
7790 21
7791 0
7792 22
7793 46
7794 15
7795 4
7796 7
7797 38
7798 6
7799 1
7800 44
7801 18
7802 35
7803 41
7804 28
7805 50
7806 1
7807 33
7808 5
7809 26
7810 35
7811 19
7812 20
7813 15
7814 4
7815 1
7816 46
7817 33
7818 26
7819 42
7820 21
7821 23
7822 31
7823 32
7824 20
7825 38
7826 29
7827 48
7828 48
7829 10
7830 10
7831 5
7832 34
7833 48
7834 15
7835 27
7836 0
7837 17
7838 14
7839 15
7840 4
7841 37
7842 4
7843 38
7844 42
7845 15
7846 6
7847 31
7848 5
7849 4
7850 18
7851 20
7852 26
7853 24
7854 4
7855 7
7856 8
7857 0
7858 33
7859 4
7860 44
7861 34
7862 42
7863 19
7864 41
7865 8
7866 38
7867 4
7868 37
7869 21
7870 29
7871 12
7872 7
7873 33
7874 14
7875 34
7876 3
7877 12
7878 36
7879 40
7880 4
7881 33
7882 27
7883 43
7884 19
7885 4
7886 0
7887 43
7888 20
7889 14
7890 43
7891 33
7892 32
7893 43
7894 7
7895 31
7896 0
7897 46
7898 27
7899 16
7900 15
7901 5
7902 48
7903 15
7904 14
7905 11
7906 1
7907 15
7908 48
7909 33
7910 2
7911 14
7912 18
7913 41
7914 16
7915 14
7916 15
7917 33
7918 41
7919 43
7920 6
7921 33
7922 16
7923 50
7924 12
7925 17
7926 21
7927 42
7928 3
7929 8
7930 22
7931 37
7932 25
7933 12
7934 12
7935 30
7936 10
7937 0
7938 4
7939 48
7940 23
7941 40
7942 13
7943 2
7944 2
7945 4
7946 4
7947 2
7948 14
7949 38
7950 41
7951 32
7952 14
7953 41
7954 31
7955 38
7956 46
7957 11
7958 43
7959 19
7960 16
7961 22
7962 44
7963 22
7964 26
7965 43
7966 18
7967 28
7968 44
7969 20
7970 12
7971 15
7972 33
7973 40
7974 29
7975 19
7976 14
7977 43
7978 30
7979 36
7980 35
7981 48
7982 42
7983 6
7984 18
7985 1
7986 24
7987 14
7988 43
7989 4
7990 27
7991 39
7992 11
7993 43
7994 40
7995 15
7996 40
7997 39
7998 33
7999 14
8000 7
8001 4
8002 4
8003 38
8004 34
8005 14
8006 43
8007 41
8008 7
8009 11
8010 4
8011 33
8012 5
8013 4
8014 36
8015 31
8016 43
8017 27
8018 15
8019 28
8020 2
8021 43
8022 37
8023 33
8024 0
8025 44
8026 18
8027 19
8028 14
8029 4
8030 3
8031 42
8032 27
8033 43
8034 3
8035 20
8036 12
8037 11
8038 28
8039 2
8040 1
8041 0
8042 9
8043 3
8044 9
8045 12
8046 36
8047 25
8048 39
8049 29
8050 26
8051 9
8052 7
8053 9
8054 14
8055 11
8056 45
8057 2
8058 35
8059 7
8060 33
8061 4
8062 7
8063 4
8064 12
8065 9
8066 33
8067 28
8068 22
8069 39
8070 38
8071 8
8072 19
8073 25
8074 6
8075 21
8076 42
8077 14
8078 36
8079 14
8080 20
8081 38
8082 25
8083 5
8084 46
8085 15
8086 39
8087 2
8088 8
8089 27
8090 4
8091 50
8092 41
8093 38
8094 43
8095 40
8096 6
8097 16
8098 9
8099 34
8100 24
8101 45
8102 14
8103 3
8104 40
8105 14
8106 35
8107 3
8108 0
8109 15
8110 3
8111 19
8112 3
8113 42
8114 2
8115 45
8116 43
8117 19
8118 15
8119 8
8120 2
8121 41
8122 18
8123 25
8124 4
8125 25
8126 23
8127 11
8128 5
8129 19
8130 49
8131 13
8132 34
8133 41
8134 14
8135 10
8136 27
8137 39
8138 14
8139 16
8140 49
8141 6
8142 11
8143 40
8144 26
8145 20
8146 19
8147 15
8148 18
8149 40
8150 4
8151 33
8152 35
8153 18
8154 14
8155 0
8156 20
8157 19
8158 32
8159 14
8160 4
8161 38
8162 7
8163 43
8164 15
8165 33
8166 18
8167 44
8168 13
8169 17
8170 18
8171 13
8172 44
8173 38
8174 24
8175 7
8176 46
8177 4
8178 4
8179 4
8180 45
8181 45
8182 28
8183 12
8184 15
8185 43
8186 18
8187 9
8188 41
8189 42
8190 33
8191 9
8192 39
8193 26
8194 22
8195 45
8196 7
8197 5
8198 7
8199 10
8200 15
8201 43
8202 45
8203 11
8204 36
8205 11
8206 42
8207 5
8208 25
8209 42
8210 7
8211 23
8212 42
8213 37
8214 7
8215 31
8216 20
8217 14
8218 25
8219 24
8220 7
8221 11
8222 4
8223 8
8224 35
8225 15
8226 11
8227 4
8228 23
8229 0
8230 27
8231 40
8232 6
8233 13
8234 4
8235 6
8236 10
8237 44
8238 28
8239 38
8240 32
8241 29
8242 40
8243 9
8244 46
8245 1
8246 34
8247 5
8248 38
8249 35
8250 11
8251 5
8252 39
8253 3
8254 16
8255 20
8256 46
8257 5
8258 5
8259 15
8260 8
8261 1
8262 38
8263 18
8264 39
8265 11
8266 4
8267 4
8268 40
8269 16
8270 18
8271 0
8272 29
8273 19
8274 11
8275 23
8276 46
8277 37
8278 11
8279 2
8280 28
8281 40
8282 4
8283 28
8284 6
8285 42
8286 40
8287 22
8288 44
8289 36
8290 8
8291 39
8292 6
8293 37
8294 3
8295 45
8296 14
8297 8
8298 20
8299 18
8300 7
8301 25
8302 38
8303 38
8304 50
8305 18
8306 45
8307 14
8308 1
8309 15
8310 7
8311 1
8312 24
8313 45
8314 28
8315 23
8316 4
8317 43
8318 31
8319 7
8320 45
8321 22
8322 2
8323 9
8324 31
8325 4
8326 14
8327 24
8328 23
8329 39
8330 14
8331 11
8332 33
8333 26
8334 19
8335 38
8336 10
8337 7
8338 49
8339 39
8340 7
8341 24
8342 2
8343 46
8344 2
8345 20
8346 46
8347 8
8348 30
8349 21
8350 4
8351 21
8352 43
8353 41
8354 4
8355 48
8356 10
8357 33
8358 14
8359 39
8360 14
8361 42
8362 41
8363 16
8364 0
8365 2
8366 12
8367 38
8368 5
8369 27
8370 6
8371 20
8372 20
8373 18
8374 44
8375 1
8376 24
8377 20
8378 26
8379 28
8380 3
8381 12
8382 20
8383 9
8384 46
8385 39
8386 36
8387 39
8388 17
8389 46
8390 38
8391 14
8392 50
8393 30
8394 12
8395 0
8396 14
8397 39
8398 43
8399 4
8400 4
8401 9
8402 30
8403 3
8404 31
8405 6
8406 27
8407 11
8408 31
8409 18
8410 6
8411 10
8412 17
8413 28
8414 46
8415 17
8416 8
8417 13
8418 7
8419 39
8420 38
8421 4
8422 16
8423 35
8424 6
8425 7
8426 4
8427 27
8428 26
8429 23
8430 21
8431 0
8432 50
8433 49
8434 10
8435 18
8436 4
8437 32
8438 13
8439 9
8440 2
8441 31
8442 42
8443 0
8444 38
8445 35
8446 29
8447 32
8448 49
8449 15
8450 3
8451 33
8452 20
8453 7
8454 7
8455 5
8456 4
8457 0
8458 4
8459 7
8460 4
8461 0
8462 37
8463 45
8464 2
8465 17
8466 4
8467 2
8468 4
8469 46
8470 33
8471 0
8472 15
8473 5
8474 8
8475 16
8476 28
8477 11
8478 11
8479 41
8480 38
8481 48
8482 50
8483 10
8484 4
8485 33
8486 1
8487 13
8488 19
8489 6
8490 7
8491 4
8492 37
8493 35
8494 9
8495 46
8496 1
8497 11
8498 0
8499 40
8500 34
8501 9
8502 0
8503 32
8504 16
8505 15
8506 28
8507 7
8508 4
8509 23
8510 31
8511 41
8512 18
8513 0
8514 5
8515 1
8516 42
8517 29
8518 4
8519 4
8520 18
8521 44
8522 15
8523 18
8524 11
8525 18
8526 12
8527 24
8528 35
8529 36
8530 4
8531 15
8532 9
8533 16
8534 34
8535 4
8536 43
8537 9
8538 2
8539 11
8540 34
8541 33
8542 4
8543 15
8544 4
8545 50
8546 15
8547 35
8548 17
8549 21
8550 31
8551 38
8552 15
8553 11
8554 38
8555 30
8556 4
8557 7
8558 46
8559 27
8560 19
8561 44
8562 42
8563 26
8564 30
8565 31
8566 14
8567 7
8568 3
8569 22
8570 3
8571 28
8572 4
8573 14
8574 4
8575 13
8576 35
8577 2
8578 4
8579 0
8580 41
8581 3
8582 41
8583 31
8584 4
8585 34
8586 21
8587 37
8588 4
8589 33
8590 41
8591 12
8592 12
8593 9
8594 3
8595 24
8596 3
8597 40
8598 34
8599 21
8600 19
8601 7
8602 15
8603 43
8604 34
8605 1
8606 30
8607 4
8608 41
8609 41
8610 46
8611 1
8612 15
8613 24
8614 11
8615 27
8616 0
8617 4
8618 3
8619 2
8620 3
8621 2
8622 25
8623 7
8624 48
8625 0
8626 0
8627 6
8628 30
8629 11
8630 34
8631 4
8632 3
8633 34
8634 14
8635 11
8636 4
8637 42
8638 3
8639 12
8640 21
8641 33
8642 29
8643 16
8644 48
8645 17
8646 18
8647 4
8648 42
8649 42
8650 48
8651 36
8652 4
8653 15
8654 8
8655 27
8656 30
8657 15
8658 44
8659 23
8660 43
8661 11
8662 9
8663 36
8664 44
8665 35
8666 49
8667 46
8668 37
8669 25
8670 15
8671 46
8672 19
8673 37
8674 4
8675 24
8676 9
8677 5
8678 15
8679 14
8680 5
8681 1
8682 4
8683 9
8684 4
8685 22
8686 19
8687 20
8688 40
8689 4
8690 39
8691 1
8692 15
8693 7
8694 17
8695 37
8696 31
8697 8
8698 10
8699 42
8700 38
8701 14
8702 38
8703 45
8704 30
8705 3
8706 35
8707 6
8708 48
8709 43
8710 15
8711 46
8712 42
8713 11
8714 15
8715 49
8716 5
8717 4
8718 15
8719 16
8720 39
8721 46
8722 11
8723 6
8724 15
8725 2
8726 18
8727 43
8728 1
8729 33
8730 38
8731 31
8732 31
8733 13
8734 11
8735 11
8736 18
8737 14
8738 12
8739 23
8740 14
8741 8
8742 13
8743 4
8744 14
8745 36
8746 24
8747 29
8748 2
8749 25
8750 44
8751 3
8752 4
8753 42
8754 28
8755 31
8756 5
8757 10
8758 14
8759 9
8760 44
8761 9
8762 1
8763 12
8764 14
8765 11
8766 6
8767 0
8768 4
8769 16
8770 36
8771 48
8772 41
8773 1
8774 12
8775 1
8776 46
8777 27
8778 28
8779 39
8780 0
8781 21
8782 6
8783 11
8784 19
8785 14
8786 41
8787 6
8788 1
8789 49
8790 33
8791 44
8792 49
8793 4
8794 9
8795 29
8796 14
8797 24
8798 9
8799 44
8800 10
8801 48
8802 33
8803 14
8804 6
8805 15
8806 15
8807 10
8808 4
8809 43
8810 38
8811 14
8812 4
8813 40
8814 46
8815 33
8816 15
8817 7
8818 20
8819 4
8820 4
8821 45
8822 1
8823 33
8824 26
8825 3
8826 3
8827 5
8828 17
8829 20
8830 39
8831 6
8832 11
8833 43
8834 45
8835 4
8836 39
8837 4
8838 5
8839 4
8840 45
8841 38
8842 28
8843 32
8844 40
8845 14
8846 3
8847 9
8848 13
8849 43
8850 11
8851 6
8852 5
8853 32
8854 4
8855 8
8856 11
8857 38
8858 43
8859 49
8860 32
8861 8
8862 9
8863 19
8864 40
8865 7
8866 42
8867 1
8868 35
8869 20
8870 9
8871 15
8872 5
8873 24
8874 16
8875 9
8876 46
8877 15
8878 44
8879 41
8880 4
8881 15
8882 17
8883 13
8884 45
8885 37
8886 12
8887 36
8888 22
8889 0
8890 2
8891 35
8892 34
8893 3
8894 31
8895 19
8896 32
8897 11
8898 10
8899 49
8900 42
8901 4
8902 28
8903 4
8904 18
8905 11
8906 7
8907 4
8908 12
8909 24
8910 18
8911 5
8912 3
8913 19
8914 37
8915 31
8916 14
8917 6
8918 28
8919 12
8920 40
8921 0
8922 17
8923 34
8924 15
8925 17
8926 46
8927 4
8928 19
8929 4
8930 33
8931 10
8932 14
8933 14
8934 36
8935 6
8936 41
8937 28
8938 7
8939 17
8940 18
8941 23
8942 26
8943 7
8944 41
8945 33
8946 42
8947 49
8948 4
8949 16
8950 20
8951 6
8952 15
8953 34
8954 35
8955 42
8956 4
8957 4
8958 11
8959 36
8960 18
8961 0
8962 10
8963 14
8964 3
8965 11
8966 45
8967 15
8968 16
8969 22
8970 31
8971 14
8972 42
8973 50
8974 9
8975 4
8976 4
8977 18
8978 4
8979 46
8980 35
8981 44
8982 38
8983 14
8984 15
8985 44
8986 43
8987 42
8988 10
8989 46
8990 4
8991 25
8992 25
8993 41
8994 14
8995 2
8996 20
8997 14
8998 9
8999 40
9000 5
9001 21
9002 37
9003 15
9004 12
9005 23
9006 18
9007 7
9008 15
9009 15
9010 13
9011 20
9012 43
9013 33
9014 19
9015 32
9016 4
9017 38
9018 11
9019 8
9020 14
9021 14
9022 40
9023 9
9024 24
9025 14
9026 9
9027 4
9028 42
9029 7
9030 36
9031 47
9032 7
9033 43
9034 36
9035 20
9036 37
9037 23
9038 30
9039 42
9040 45
9041 33
9042 19
9043 20
9044 46
9045 25
9046 4
9047 48
9048 1
9049 38
9050 4
9051 46
9052 4
9053 10
9054 22
9055 18
9056 26
9057 9
9058 4
9059 4
9060 22
9061 3
9062 42
9063 20
9064 1
9065 6
9066 35
9067 19
9068 2
9069 49
9070 4
9071 33
9072 4
9073 30
9074 8
9075 4
9076 33
9077 30
9078 21
9079 17
9080 18
9081 6
9082 4
9083 15
9084 0
9085 35
9086 7
9087 24
9088 44
9089 44
9090 9
9091 4
9092 43
9093 19
9094 16
9095 45
9096 22
9097 33
9098 11
9099 9
9100 14
9101 37
9102 45
9103 0
9104 4
9105 27
9106 0
9107 12
9108 48
9109 18
9110 4
9111 24
9112 4
9113 48
9114 13
9115 13
9116 42
9117 16
9118 38
9119 23
9120 7
9121 33
9122 4
9123 5
9124 6
9125 4
9126 31
9127 17
9128 25
9129 45
9130 11
9131 16
9132 49
9133 9
9134 37
9135 46
9136 34
9137 2
9138 11
9139 14
9140 0
9141 36
9142 18
9143 19
9144 7
9145 41
9146 38
9147 38
9148 13
9149 22
9150 8
9151 7
9152 6
9153 49
9154 25
9155 33
9156 33
9157 15
9158 4
9159 14
9160 24
9161 4
9162 0
9163 48
9164 7
9165 14
9166 40
9167 6
9168 4
9169 14
9170 1
9171 38
9172 46
9173 7
9174 41
9175 4
9176 50
9177 0
9178 1
9179 5
9180 44
9181 6
9182 25
9183 14
9184 34
9185 11
9186 44
9187 15
9188 37
9189 3
9190 4
9191 19
9192 42
9193 24
9194 33
9195 4
9196 6
9197 14
9198 5
9199 29
9200 7
9201 46
9202 33
9203 14
9204 7
9205 3
9206 33
9207 50
9208 15
9209 7
9210 14
9211 4
9212 43
9213 13
9214 31
9215 15
9216 8
9217 15
9218 48
9219 14
9220 4
9221 6
9222 42
9223 19
9224 9
9225 0
9226 31
9227 42
9228 0
9229 41
9230 43
9231 21
9232 32
9233 26
9234 35
9235 5
9236 7
9237 1
9238 7
9239 47
9240 9
9241 36
9242 16
9243 36
9244 0
9245 18
9246 18
9247 33
9248 32
9249 4
9250 4
9251 4
9252 42
9253 4
9254 0
9255 34
9256 25
9257 46
9258 2
9259 50
9260 46
9261 7
9262 11
9263 7
9264 2
9265 6
9266 31
9267 15
9268 9
9269 16
9270 43
9271 9
9272 17
9273 7
9274 17
9275 23
9276 6
9277 12
9278 39
9279 24
9280 5
9281 33
9282 25
9283 44
9284 43
9285 24
9286 9
9287 16
9288 2
9289 7
9290 1
9291 35
9292 7
9293 15
9294 45
9295 48
9296 9
9297 43
9298 33
9299 33
9300 25
9301 15
9302 4
9303 0
9304 28
9305 15
9306 38
9307 2
9308 34
9309 16
9310 38
9311 31
9312 7
9313 15
9314 38
9315 30
9316 37
9317 44
9318 33
9319 37
9320 0
9321 29
9322 16
9323 41
9324 10
9325 4
9326 45
9327 42
9328 12
9329 50
9330 25
9331 8
9332 46
9333 31
9334 34
9335 6
9336 33
9337 2
9338 37
9339 2
9340 20
9341 28
9342 15
9343 20
9344 18
9345 13
9346 40
9347 31
9348 21
9349 27
9350 38
9351 25
9352 0
9353 36
9354 6
9355 47
9356 31
9357 33
9358 10
9359 29
9360 9
9361 48
9362 45
9363 14
9364 14
9365 11
9366 1
9367 45
9368 14
9369 27
9370 10
9371 5
9372 26
9373 30
9374 9
9375 7
9376 6
9377 4
9378 2
9379 3
9380 46
9381 5
9382 9
9383 4
9384 4
9385 10
9386 14
9387 21
9388 23
9389 4
9390 6
9391 16
9392 10
9393 2
9394 4
9395 6
9396 4
9397 3
9398 2
9399 27
9400 0
9401 15
9402 11
9403 31
9404 24
9405 15
9406 31
9407 22
9408 5
9409 26
9410 1
9411 46
9412 43
9413 10
9414 38
9415 31
9416 24
9417 27
9418 41
9419 4
9420 30
9421 10
9422 10
9423 42
9424 35
9425 6
9426 20
9427 9
9428 48
9429 21
9430 10
9431 20
9432 31
9433 31
9434 8
9435 12
9436 4
9437 33
9438 28
9439 14
9440 33
9441 5
9442 4
9443 34
9444 13
9445 38
9446 7
9447 1
9448 7
9449 26
9450 12
9451 20
9452 4
9453 0
9454 28
9455 46
9456 14
9457 7
9458 1
9459 29
9460 27
9461 35
9462 48
9463 50
9464 4
9465 10
9466 0
9467 4
9468 38
9469 33
9470 16
9471 16
9472 15
9473 5
9474 0
9475 5
9476 34
9477 42
9478 12
9479 33
9480 44
9481 41
9482 17
9483 31
9484 11
9485 41
9486 24
9487 8
9488 2
9489 15
9490 29
9491 11
9492 15
9493 41
9494 4
9495 27
9496 14
9497 0
9498 41
9499 44
9500 17
9501 44
9502 42
9503 2
9504 15
9505 42
9506 41
9507 39
9508 35
9509 43
9510 31
9511 19
9512 7
9513 3
9514 7
9515 15
9516 20
9517 7
9518 11
9519 23
9520 7
9521 20
9522 40
9523 45
9524 12
9525 4
9526 48
9527 45
9528 32
9529 37
9530 14
9531 7
9532 6
9533 12
9534 31
9535 15
9536 4
9537 1
9538 46
9539 19
9540 2
9541 50
9542 41
9543 27
9544 15
9545 2
9546 10
9547 32
9548 10
9549 17
9550 28
9551 45
9552 10
9553 0
9554 41
9555 16
9556 6
9557 37
9558 4
9559 7
9560 45
9561 31
9562 15
9563 44
9564 39
9565 35
9566 15
9567 19
9568 1
9569 6
9570 11
9571 47
9572 9
9573 17
9574 30
9575 19
9576 20
9577 34
9578 6
9579 3
9580 46
9581 18
9582 2
9583 0
9584 37
9585 34
9586 15
9587 7
9588 6
9589 25
9590 34
9591 46
9592 14
9593 35
9594 39
9595 4
9596 4
9597 44
9598 0
9599 10
9600 41
9601 26
9602 1
9603 14
9604 24
9605 8
9606 41
9607 40
9608 12
9609 15
9610 19
9611 21
9612 39
9613 38
9614 48
9615 7
9616 5
9617 34
9618 9
9619 49
9620 34
9621 18
9622 15
9623 4
9624 0
9625 40
9626 4
9627 4
9628 14
9629 21
9630 13
9631 27
9632 4
9633 7
9634 9
9635 31
9636 26
9637 31
9638 2
9639 4
9640 35
9641 2
9642 41
9643 23
9644 31
9645 9
9646 14
9647 8
9648 17
9649 15
9650 8
9651 19
9652 25
9653 25
9654 28
9655 7
9656 7
9657 32
9658 14
9659 28
9660 18
9661 41
9662 43
9663 22
9664 31
9665 8
9666 4
9667 4
9668 33
9669 33
9670 12
9671 20
9672 45
9673 37
9674 43
9675 2
9676 38
9677 45
9678 43
9679 14
9680 32
9681 12
9682 25
9683 25
9684 31
9685 40
9686 22
9687 9
9688 5
9689 20
9690 1
9691 4
9692 17
9693 47
9694 8
9695 8
9696 26
9697 49
9698 4
9699 2
9700 30
9701 5
9702 10
9703 1
9704 45
9705 8
9706 38
9707 1
9708 4
9709 1
9710 24
9711 7
9712 4
9713 5
9714 37
9715 18
9716 42
9717 38
9718 15
9719 16
9720 8
9721 32
9722 40
9723 43
9724 37
9725 6
9726 14
9727 4
9728 33
9729 31
9730 26
9731 20
9732 14
9733 27
9734 22
9735 4
9736 25
9737 15
9738 7
9739 4
9740 4
9741 36
9742 11
9743 50
9744 38
9745 1
9746 35
9747 11
9748 30
9749 11
9750 44
9751 42
9752 48
9753 11
9754 7
9755 19
9756 25
9757 6
9758 46
9759 24
9760 24
9761 15
9762 4
9763 48
9764 18
9765 7
9766 22
9767 48
9768 11
9769 27
9770 38
9771 14
9772 38
9773 9
9774 35
9775 5
9776 2
9777 30
9778 41
9779 20
9780 22
9781 0
9782 22
9783 46
9784 14
9785 43
9786 36
9787 45
9788 3
9789 7
9790 31
9791 24
9792 3
9793 37
9794 31
9795 4
9796 40
9797 43
9798 8
9799 12
9800 14
9801 9
9802 50
9803 42
9804 23
9805 0
9806 32
9807 25
9808 32
9809 0
9810 40
9811 48
9812 0
9813 36
9814 34
9815 41
9816 17
9817 43
9818 29
9819 1
9820 27
9821 18
9822 14
9823 44
9824 4
9825 12
9826 14
9827 3
9828 1
9829 9
9830 30
9831 7
9832 46
9833 43
9834 0
9835 24
9836 33
9837 29
9838 6
9839 50
9840 11
9841 33
9842 26
9843 20
9844 25
9845 17
9846 14
9847 2
9848 33
9849 29
9850 31
9851 15
9852 42
9853 21
9854 0
9855 4
9856 24
9857 34
9858 2
9859 5
9860 5
9861 43
9862 18
9863 18
9864 6
9865 25
9866 24
9867 7
9868 20
9869 46
9870 4
9871 0
9872 4
9873 41
9874 4
9875 16
9876 9
9877 12
9878 15
9879 11
9880 11
9881 21
9882 9
9883 35
9884 8
9885 33
9886 0
9887 44
9888 19
9889 45
9890 44
9891 25
9892 4
9893 36
9894 17
9895 13
9896 11
9897 4
9898 1
9899 36
9900 0
9901 28
9902 47
9903 50
9904 46
9905 38
9906 46
9907 41
9908 42
9909 19
9910 14
9911 34
9912 48
9913 29
9914 31
9915 7
9916 32
9917 14
9918 12
9919 27
9920 19
9921 5
9922 24
9923 0
9924 47
9925 13
9926 21
9927 5
9928 6
9929 47
9930 45
9931 10
9932 48
9933 22
9934 13
9935 4
9936 37
9937 4
9938 45
9939 17
9940 46
9941 34
9942 30
9943 4
9944 30
9945 5
9946 4
9947 20
9948 15
9949 32
9950 0
9951 15
9952 36
9953 15
9954 24
9955 11
9956 16
9957 8
9958 37
9959 12
9960 1
9961 43
9962 34
9963 17
9964 23
9965 14
9966 0
9967 14
9968 29
9969 4
9970 48
9971 31
9972 14
9973 18
9974 41
9975 5
9976 45
9977 2
9978 11
9979 15
9980 30
9981 5
9982 1
9983 15
9984 0
9985 41
9986 7
9987 19
9988 36
9989 14
9990 18
9991 15
9992 15
9993 23
9994 27
9995 10
9996 30
9997 0
9998 25
9999 33
