0 0
1 0
2 0
3 0
4 0
5 0
6 0
7 0
8 0
9 0
10 1
11 1
12 1
13 1
14 1
15 1
16 1
17 1
18 1
19 1
20 2
21 2
22 2
23 2
24 2
25 2
26 2
27 2
28 2
29 2
30 3
31 3
32 3
33 3
34 3
35 3
36 3
37 3
38 3
39 3
40 4
41 4
42 4
43 4
44 4
45 4
46 4
47 4
48 4
49 4
50 5
51 5
52 5
53 5
54 5
55 5
56 5
57 5
58 5
59 5
60 6
61 6
62 6
63 6
64 6
65 6
66 6
67 6
68 6
69 6
70 7
71 7
72 7
73 7
74 7
75 7
76 7
77 7
78 7
79 7
80 8
81 8
82 8
83 8
84 8
85 8
86 8
87 8
88 8
89 8
90 9
91 9
92 9
93 9
94 9
95 9
96 9
97 9
98 9
99 9
100 10
101 10
102 10
103 10
104 10
105 10
106 10
107 10
108 10
109 10
110 11
111 11
112 11
113 11
114 11
115 11
116 11
117 11
118 11
119 11
120 12
121 12
122 12
123 12
124 12
125 12
126 12
127 12
128 12
129 12
130 13
131 13
132 13
133 13
134 13
135 13
136 13
137 13
138 13
139 13
140 14
141 14
142 14
143 14
144 14
145 14
146 14
147 14
148 14
149 14
150 15
151 15
152 15
153 15
154 15
155 15
156 15
157 15
158 15
159 15
160 16
161 16
162 16
163 16
164 16
165 16
166 16
167 16
168 16
169 16
170 17
171 17
172 17
173 17
174 17
175 17
176 17
177 17
178 17
179 17
180 18
181 18
182 18
183 18
184 18
185 18
186 18
187 18
188 18
189 18
190 19
191 19
192 19
193 19
194 19
195 19
196 19
197 19
198 19
199 19
200 20
201 20
202 20
203 20
204 20
205 20
206 20
207 20
208 20
209 20
210 21
211 21
212 21
213 21
214 21
215 21
216 21
217 21
218 21
219 21
220 22
221 22
222 22
223 22
224 22
225 22
226 22
227 22
228 22
229 22
230 23
231 23
232 23
233 23
234 23
235 23
236 23
237 23
238 23
239 23
240 24
241 24
242 24
243 24
244 24
245 24
246 24
247 24
248 24
249 24
250 25
251 25
252 25
253 25
254 25
255 25
256 25
257 25
258 25
259 25
260 26
261 26
262 26
263 26
264 26
265 26
266 26
267 26
268 26
269 26
270 27
271 27
272 27
273 27
274 27
275 27
276 27
277 27
278 27
279 27
280 28
281 28
282 28
283 28
284 28
285 28
286 28
287 28
288 28
289 28
290 29
291 29
292 29
293 29
294 29
295 29
296 29
297 29
298 29
299 29
300 30
301 30
302 30
303 30
304 30
305 30
306 30
307 30
308 30
309 30
310 31
311 31
312 31
313 31
314 31
315 31
316 31
317 31
318 31
319 31
320 32
321 32
322 32
323 32
324 32
325 32
326 32
327 32
328 32
329 32
330 33
331 33
332 33
333 33
334 33
335 33
336 33
337 33
338 33
339 33
340 34
341 34
342 34
343 34
344 34
345 34
346 34
347 34
348 34
349 34
350 35
351 35
352 35
353 35
354 35
355 35
356 35
357 35
358 35
359 35
360 36
361 36
362 36
363 36
364 36
365 36
366 36
367 36
368 36
369 36
370 37
371 37
372 37
373 37
374 37
375 37
376 37
377 37
378 37
379 37
380 38
381 38
382 38
383 38
384 38
385 38
386 38
387 38
388 38
389 38
390 39
391 39
392 39
393 39
394 39
395 39
396 39
397 39
398 39
399 39
400 40
401 40
402 40
403 40
404 40
405 40
406 40
407 40
408 40
409 40
410 41
411 41
412 41
413 41
414 41
415 41
416 41
417 41
418 41
419 41
420 42
421 42
422 42
423 42
424 42
425 42
426 42
427 42
428 42
429 42
430 43
431 43
432 43
433 43
434 43
435 43
436 43
437 43
438 43
439 43
440 44
441 44
442 44
443 44
444 44
445 44
446 44
447 44
448 44
449 44
450 45
451 45
452 45
453 45
454 45
455 45
456 45
457 45
458 45
459 45
460 46
461 46
462 46
463 46
464 46
465 46
466 46
467 46
468 46
469 46
470 47
471 47
472 47
473 47
474 47
475 47
476 47
477 47
478 47
479 47
480 48
481 48
482 48
483 48
484 48
485 48
486 48
487 48
488 48
489 48
490 49
491 49
492 49
493 49
494 49
495 49
496 49
497 49
498 49
499 49
500 50
501 50
502 50
503 50
504 50
505 50
506 50
507 50
508 50
509 50
510 51
511 51
512 51
513 51
514 51
515 51
516 51
517 51
518 51
519 51
520 52
521 52
522 52
523 52
524 52
525 52
526 52
527 52
528 52
529 52
530 53
531 53
532 53
533 53
534 53
535 53
536 53
537 53
538 53
539 53
540 54
541 54
542 54
543 54
544 54
545 54
546 54
547 54
548 54
549 54
550 55
551 55
552 55
553 55
554 55
555 55
556 55
557 55
558 55
559 55
560 56
561 56
562 56
563 56
564 56
565 56
566 56
567 56
568 56
569 56
570 57
571 57
572 57
573 57
574 57
575 57
576 57
577 57
578 57
579 57
580 58
581 58
582 58
583 58
584 58
585 58
586 58
587 58
588 58
589 58
590 59
591 59
592 59
593 59
594 59
595 59
596 59
597 59
598 59
599 59
600 60
601 60
602 60
603 60
604 60
605 60
606 60
607 60
608 60
609 60
610 61
611 61
612 61
613 61
614 61
615 61
616 61
617 61
618 61
619 61
620 62
621 62
622 62
623 62
624 62
625 62
626 62
627 62
628 62
629 62
630 4
631 4
632 4
633 4
634 4
635 4
636 4
637 4
638 4
639 4
640 63
641 63
642 63
643 63
644 63
645 63
646 63
647 63
648 63
649 63
650 64
651 64
652 64
653 64
654 64
655 64
656 64
657 64
658 64
659 64
660 63
661 63
662 63
663 63
664 63
665 63
666 63
667 63
668 63
669 63
670 65
671 65
672 65
673 65
674 65
675 65
676 65
677 65
678 65
679 65
680 66
681 66
682 66
683 66
684 66
685 66
686 66
687 66
688 66
689 66
690 2
691 2
692 2
693 2
694 2
695 2
696 2
697 2
698 2
699 2
700 67
701 67
702 67
703 67
704 67
705 67
706 67
707 67
708 67
709 67
710 68
711 68
712 68
713 68
714 68
715 68
716 68
717 68
718 68
719 68
720 69
721 69
722 69
723 69
724 69
725 69
726 69
727 69
728 69
729 69
730 70
731 70
732 70
733 70
734 70
735 70
736 70
737 70
738 70
739 70
740 71
741 71
742 71
743 71
744 71
745 71
746 71
747 71
748 71
749 71
750 72
751 72
752 72
753 72
754 72
755 72
756 72
757 72
758 72
759 72
760 73
761 73
762 73
763 73
764 73
765 73
766 73
767 73
768 73
769 73
770 74
771 74
772 74
773 74
774 74
775 74
776 74
777 74
778 74
779 74
780 75
781 75
782 75
783 75
784 75
785 75
786 75
787 75
788 75
789 75
790 76
791 76
792 76
793 76
794 76
795 76
796 76
797 76
798 76
799 76
800 77
801 77
802 77
803 77
804 77
805 77
806 77
807 77
808 77
809 77
810 78
811 78
812 78
813 78
814 78
815 78
816 78
817 78
818 78
819 78
820 79
821 79
822 79
823 79
824 79
825 79
826 79
827 79
828 79
829 79
830 80
831 80
832 80
833 80
834 80
835 80
836 80
837 80
838 80
839 80
840 81
841 81
842 81
843 81
844 81
845 81
846 81
847 81
848 81
849 81
850 82
851 82
852 82
853 82
854 82
855 82
856 82
857 82
858 82
859 82
860 83
861 83
862 83
863 83
864 83
865 83
866 83
867 83
868 83
869 83
870 84
871 84
872 84
873 84
874 84
875 84
876 84
877 84
878 84
879 84
880 85
881 85
882 85
883 85
884 85
885 85
886 85
887 85
888 85
889 85
890 86
891 86
892 86
893 86
894 86
895 86
896 86
897 86
898 86
899 86
900 87
901 87
902 87
903 87
904 87
905 87
906 87
907 87
908 87
909 87
910 88
911 88
912 88
913 88
914 88
915 88
916 88
917 88
918 88
919 88
920 89
921 89
922 89
923 89
924 89
925 89
926 89
927 89
928 89
929 89
930 90
931 90
932 90
933 90
934 90
935 90
936 90
937 90
938 90
939 90
940 91
941 91
942 91
943 91
944 91
945 91
946 91
947 91
948 91
949 91
950 92
951 92
952 92
953 92
954 92
955 92
956 92
957 92
958 92
959 92
960 93
961 93
962 93
963 93
964 93
965 93
966 93
967 93
968 93
969 93
970 94
971 94
972 94
973 94
974 94
975 94
976 94
977 94
978 94
979 94
980 95
981 95
982 95
983 95
984 95
985 95
986 95
987 95
988 95
989 95
990 96
991 96
992 96
993 96
994 96
995 96
996 96
997 96
998 96
999 96
1000 97
1001 97
1002 97
1003 97
1004 97
1005 97
1006 97
1007 97
1008 97
1009 97
1010 98
1011 98
1012 98
1013 98
1014 98
1015 98
1016 98
1017 98
1018 98
1019 98
1020 99
1021 99
1022 99
1023 99
1024 99
1025 99
1026 99
1027 99
1028 99
1029 99
1030 100
1031 100
1032 100
1033 100
1034 100
1035 100
1036 100
1037 100
1038 100
1039 100
1040 101
1041 101
1042 101
1043 101
1044 101
1045 101
1046 101
1047 101
1048 101
1049 101
1050 102
1051 102
1052 102
1053 102
1054 102
1055 102
1056 102
1057 102
1058 102
1059 102
1060 103
1061 103
1062 103
1063 103
1064 103
1065 103
1066 103
1067 103
1068 103
1069 103
1070 104
1071 104
1072 104
1073 104
1074 104
1075 104
1076 104
1077 104
1078 104
1079 104
1080 105
1081 105
1082 105
1083 105
1084 105
1085 105
1086 105
1087 105
1088 105
1089 105
1090 106
1091 106
1092 106
1093 106
1094 106
1095 106
1096 106
1097 106
1098 106
1099 106
1100 107
1101 107
1102 107
1103 107
1104 107
1105 107
1106 107
1107 107
1108 107
1109 107
1110 108
1111 108
1112 108
1113 108
1114 108
1115 108
1116 108
1117 108
1118 108
1119 108
1120 109
1121 109
1122 109
1123 109
1124 109
1125 109
1126 109
1127 109
1128 109
1129 109
1130 110
1131 110
1132 110
1133 110
1134 110
1135 110
1136 110
1137 110
1138 110
1139 110
1140 111
1141 111
1142 111
1143 111
1144 111
1145 111
1146 111
1147 111
1148 111
1149 111
1150 112
1151 112
1152 112
1153 112
1154 112
1155 112
1156 112
1157 112
1158 112
1159 112
1160 113
1161 113
1162 113
1163 113
1164 113
1165 113
1166 113
1167 113
1168 113
1169 113
1170 114
1171 114
1172 114
1173 114
1174 114
1175 114
1176 114
1177 114
1178 114
1179 114
1180 115
1181 115
1182 115
1183 115
1184 115
1185 115
1186 115
1187 115
1188 115
1189 115
1190 116
1191 116
1192 116
1193 116
1194 116
1195 116
1196 116
1197 116
1198 116
1199 116
1200 117
1201 117
1202 117
1203 117
1204 117
1205 117
1206 117
1207 117
1208 117
1209 117
1210 118
1211 118
1212 118
1213 118
1214 118
1215 118
1216 118
1217 118
1218 118
1219 118
1220 119
1221 119
1222 119
1223 119
1224 119
1225 119
1226 119
1227 119
1228 119
1229 119
1230 120
1231 120
1232 120
1233 120
1234 120
1235 120
1236 120
1237 120
1238 120
1239 120
1240 121
1241 121
1242 121
1243 121
1244 121
1245 121
1246 121
1247 121
1248 121
1249 121
1250 122
1251 122
1252 122
1253 122
1254 122
1255 122
1256 122
1257 122
1258 122
1259 122
1260 123
1261 123
1262 123
1263 123
1264 123
1265 123
1266 123
1267 123
1268 123
1269 123
1270 48
1271 48
1272 48
1273 48
1274 48
1275 48
1276 48
1277 48
1278 48
1279 48
1280 124
1281 124
1282 124
1283 124
1284 124
1285 124
1286 124
1287 124
1288 124
1289 124
1290 125
1291 125
1292 125
1293 125
1294 125
1295 125
1296 125
1297 125
1298 125
1299 125
1300 126
1301 126
1302 126
1303 126
1304 126
1305 126
1306 126
1307 126
1308 126
1309 126
1310 103
1311 103
1312 103
1313 103
1314 103
1315 103
1316 103
1317 103
1318 103
1319 103
1320 84
1321 84
1322 84
1323 84
1324 84
1325 84
1326 84
1327 84
1328 84
1329 84
1330 127
1331 127
1332 127
1333 127
1334 127
1335 127
1336 127
1337 127
1338 127
1339 127
1340 128
1341 128
1342 128
1343 128
1344 128
1345 128
1346 128
1347 128
1348 128
1349 128
1350 129
1351 129
1352 129
1353 129
1354 129
1355 129
1356 129
1357 129
1358 129
1359 129
1360 130
1361 130
1362 130
1363 130
1364 130
1365 130
1366 130
1367 130
1368 130
1369 130
1370 131
1371 131
1372 131
1373 131
1374 131
1375 131
1376 131
1377 131
1378 131
1379 131
1380 132
1381 132
1382 132
1383 132
1384 132
1385 132
1386 132
1387 132
1388 132
1389 132
1390 133
1391 133
1392 133
1393 133
1394 133
1395 133
1396 133
1397 133
1398 133
1399 133
1400 134
1401 134
1402 134
1403 134
1404 134
1405 134
1406 134
1407 134
1408 134
1409 134
1410 135
1411 135
1412 135
1413 135
1414 135
1415 135
1416 135
1417 135
1418 135
1419 135
1420 136
1421 136
1422 136
1423 136
1424 136
1425 136
1426 136
1427 136
1428 136
1429 136
1430 137
1431 137
1432 137
1433 137
1434 137
1435 137
1436 137
1437 137
1438 137
1439 137
1440 42
1441 42
1442 42
1443 42
1444 42
1445 42
1446 42
1447 42
1448 42
1449 42
1450 138
1451 138
1452 138
1453 138
1454 138
1455 138
1456 138
1457 138
1458 138
1459 138
1460 139
1461 139
1462 139
1463 139
1464 139
1465 139
1466 139
1467 139
1468 139
1469 139
1470 140
1471 140
1472 140
1473 140
1474 140
1475 140
1476 140
1477 140
1478 140
1479 140
1480 141
1481 141
1482 141
1483 141
1484 141
1485 141
1486 141
1487 141
1488 141
1489 141
1490 142
1491 142
1492 142
1493 142
1494 142
1495 142
1496 142
1497 142
1498 142
1499 142
1500 143
1501 143
1502 143
1503 143
1504 143
1505 143
1506 143
1507 143
1508 143
1509 143
1510 144
1511 144
1512 144
1513 144
1514 144
1515 144
1516 144
1517 144
1518 144
1519 144
1520 145
1521 145
1522 145
1523 145
1524 145
1525 145
1526 145
1527 145
1528 145
1529 145
1530 146
1531 146
1532 146
1533 146
1534 146
1535 146
1536 146
1537 146
1538 146
1539 146
1540 140
1541 140
1542 140
1543 140
1544 140
1545 140
1546 140
1547 140
1548 140
1549 140
1550 147
1551 147
1552 147
1553 147
1554 147
1555 147
1556 147
1557 147
1558 147
1559 147
1560 148
1561 148
1562 148
1563 148
1564 148
1565 148
1566 148
1567 148
1568 148
1569 148
1570 149
1571 149
1572 149
1573 149
1574 149
1575 149
1576 149
1577 149
1578 149
1579 149
1580 150
1581 150
1582 150
1583 150
1584 150
1585 150
1586 150
1587 150
1588 150
1589 150
1590 151
1591 151
1592 151
1593 151
1594 151
1595 151
1596 151
1597 151
1598 151
1599 151
1600 152
1601 152
1602 152
1603 152
1604 152
1605 152
1606 152
1607 152
1608 152
1609 152
1610 153
1611 153
1612 153
1613 153
1614 153
1615 153
1616 153
1617 153
1618 153
1619 153
1620 154
1621 154
1622 154
1623 154
1624 154
1625 154
1626 154
1627 154
1628 154
1629 154
1630 155
1631 155
1632 155
1633 155
1634 155
1635 155
1636 155
1637 155
1638 155
1639 155
1640 156
1641 156
1642 156
1643 156
1644 156
1645 156
1646 156
1647 156
1648 156
1649 156
1650 157
1651 157
1652 157
1653 157
1654 157
1655 157
1656 157
1657 157
1658 157
1659 157
1660 158
1661 158
1662 158
1663 158
1664 158
1665 158
1666 158
1667 158
1668 158
1669 158
1670 159
1671 159
1672 159
1673 159
1674 159
1675 159
1676 159
1677 159
1678 159
1679 159
1680 160
1681 160
1682 160
1683 160
1684 160
1685 160
1686 160
1687 160
1688 160
1689 160
1690 161
1691 161
1692 161
1693 161
1694 161
1695 161
1696 161
1697 161
1698 161
1699 161
1700 162
1701 162
1702 162
1703 162
1704 162
1705 162
1706 162
1707 162
1708 162
1709 162
1710 163
1711 163
1712 163
1713 163
1714 163
1715 163
1716 163
1717 163
1718 163
1719 163
1720 164
1721 164
1722 164
1723 164
1724 164
1725 164
1726 164
1727 164
1728 164
1729 164
1730 165
1731 165
1732 165
1733 165
1734 165
1735 165
1736 165
1737 165
1738 165
1739 165
1740 166
1741 166
1742 166
1743 166
1744 166
1745 166
1746 166
1747 166
1748 166
1749 166
1750 167
1751 167
1752 167
1753 167
1754 167
1755 167
1756 167
1757 167
1758 167
1759 167
1760 168
1761 168
1762 168
1763 168
1764 168
1765 168
1766 168
1767 168
1768 168
1769 168
1770 169
1771 169
1772 169
1773 169
1774 169
1775 169
1776 169
1777 169
1778 169
1779 169
1780 170
1781 170
1782 170
1783 170
1784 170
1785 170
1786 170
1787 170
1788 170
1789 170
1790 171
1791 171
1792 171
1793 171
1794 171
1795 171
1796 171
1797 171
1798 171
1799 171
1800 172
1801 172
1802 172
1803 172
1804 172
1805 172
1806 172
1807 172
1808 172
1809 172
1810 173
1811 173
1812 173
1813 173
1814 173
1815 173
1816 173
1817 173
1818 173
1819 173
1820 174
1821 174
1822 174
1823 174
1824 174
1825 174
1826 174
1827 174
1828 174
1829 174
1830 175
1831 175
1832 175
1833 175
1834 175
1835 175
1836 175
1837 175
1838 175
1839 175
1840 176
1841 176
1842 176
1843 176
1844 176
1845 176
1846 176
1847 176
1848 176
1849 176
1850 177
1851 177
1852 177
1853 177
1854 177
1855 177
1856 177
1857 177
1858 177
1859 177
1860 178
1861 178
1862 178
1863 178
1864 178
1865 178
1866 178
1867 178
1868 178
1869 178
1870 179
1871 179
1872 179
1873 179
1874 179
1875 179
1876 179
1877 179
1878 179
1879 179
1880 180
1881 180
1882 180
1883 180
1884 180
1885 180
1886 180
1887 180
1888 180
1889 180
1890 181
1891 181
1892 181
1893 181
1894 181
1895 181
1896 181
1897 181
1898 181
1899 181
1900 182
1901 182
1902 182
1903 182
1904 182
1905 182
1906 182
1907 182
1908 182
1909 182
1910 183
1911 183
1912 183
1913 183
1914 183
1915 183
1916 183
1917 183
1918 183
1919 183
1920 184
1921 184
1922 184
1923 184
1924 184
1925 184
1926 184
1927 184
1928 184
1929 184
1930 185
1931 185
1932 185
1933 185
1934 185
1935 185
1936 185
1937 185
1938 185
1939 185
1940 186
1941 186
1942 186
1943 186
1944 186
1945 186
1946 186
1947 186
1948 186
1949 186
1950 187
1951 187
1952 187
1953 187
1954 187
1955 187
1956 187
1957 187
1958 187
1959 187
1960 188
1961 188
1962 188
1963 188
1964 188
1965 188
1966 188
1967 188
1968 188
1969 188
1970 189
1971 189
1972 189
1973 189
1974 189
1975 189
1976 189
1977 189
1978 189
1979 189
1980 190
1981 190
1982 190
1983 190
1984 190
1985 190
1986 190
1987 190
1988 190
1989 190
1990 191
1991 191
1992 191
1993 191
1994 191
1995 191
1996 191
1997 191
1998 191
1999 191
2000 192
2001 192
2002 192
2003 192
2004 192
2005 192
2006 192
2007 192
2008 192
2009 192
2010 193
2011 193
2012 193
2013 193
2014 193
2015 193
2016 193
2017 193
2018 193
2019 193
2020 194
2021 194
2022 194
2023 194
2024 194
2025 194
2026 194
2027 194
2028 194
2029 194
2030 114
2031 114
2032 114
2033 114
2034 114
2035 114
2036 114
2037 114
2038 114
2039 114
2040 195
2041 195
2042 195
2043 195
2044 195
2045 195
2046 195
2047 195
2048 195
2049 195
2050 196
2051 196
2052 196
2053 196
2054 196
2055 196
2056 196
2057 196
2058 196
2059 196
2060 197
2061 197
2062 197
2063 197
2064 197
2065 197
2066 197
2067 197
2068 197
2069 197
2070 198
2071 198
2072 198
2073 198
2074 198
2075 198
2076 198
2077 198
2078 198
2079 198
2080 199
2081 199
2082 199
2083 199
2084 199
2085 199
2086 199
2087 199
2088 199
2089 199
2090 27
2091 27
2092 27
2093 27
2094 27
2095 27
2096 27
2097 27
2098 27
2099 27
2100 200
2101 200
2102 200
2103 200
2104 200
2105 200
2106 200
2107 200
2108 200
2109 200
2110 201
2111 201
2112 201
2113 201
2114 201
2115 201
2116 201
2117 201
2118 201
2119 201
2120 202
2121 202
2122 202
2123 202
2124 202
2125 202
2126 202
2127 202
2128 202
2129 202
2130 203
2131 203
2132 203
2133 203
2134 203
2135 203
2136 203
2137 203
2138 203
2139 203
2140 179
2141 179
2142 179
2143 179
2144 179
2145 179
2146 179
2147 179
2148 179
2149 179
2150 204
2151 204
2152 204
2153 204
2154 204
2155 204
2156 204
2157 204
2158 204
2159 204
2160 205
2161 205
2162 205
2163 205
2164 205
2165 205
2166 205
2167 205
2168 205
2169 205
2170 206
2171 206
2172 206
2173 206
2174 206
2175 206
2176 206
2177 206
2178 206
2179 206
2180 207
2181 207
2182 207
2183 207
2184 207
2185 207
2186 207
2187 207
2188 207
2189 207
2190 208
2191 208
2192 208
2193 208
2194 208
2195 208
2196 208
2197 208
2198 208
2199 208
2200 209
2201 209
2202 209
2203 209
2204 209
2205 209
2206 209
2207 209
2208 209
2209 209
2210 210
2211 210
2212 210
2213 210
2214 210
2215 210
2216 210
2217 210
2218 210
2219 210
2220 211
2221 211
2222 211
2223 211
2224 211
2225 211
2226 211
2227 211
2228 211
2229 211
2230 212
2231 212
2232 212
2233 212
2234 212
2235 212
2236 212
2237 212
2238 212
2239 212
2240 213
2241 213
2242 213
2243 213
2244 213
2245 213
2246 213
2247 213
2248 213
2249 213
2250 214
2251 214
2252 214
2253 214
2254 214
2255 214
2256 214
2257 214
2258 214
2259 214
2260 174
2261 174
2262 174
2263 174
2264 174
2265 174
2266 174
2267 174
2268 174
2269 174
2270 215
2271 215
2272 215
2273 215
2274 215
2275 215
2276 215
2277 215
2278 215
2279 215
2280 216
2281 216
2282 216
2283 216
2284 216
2285 216
2286 216
2287 216
2288 216
2289 216
2290 217
2291 217
2292 217
2293 217
2294 217
2295 217
2296 217
2297 217
2298 217
2299 217
2300 218
2301 218
2302 218
2303 218
2304 218
2305 218
2306 218
2307 218
2308 218
2309 218
2310 219
2311 219
2312 219
2313 219
2314 219
2315 219
2316 219
2317 219
2318 219
2319 219
2320 220
2321 220
2322 220
2323 220
2324 220
2325 220
2326 220
2327 220
2328 220
2329 220
2330 221
2331 221
2332 221
2333 221
2334 221
2335 221
2336 221
2337 221
2338 221
2339 221
2340 222
2341 222
2342 222
2343 222
2344 222
2345 222
2346 222
2347 222
2348 222
2349 222
2350 223
2351 223
2352 223
2353 223
2354 223
2355 223
2356 223
2357 223
2358 223
2359 223
2360 224
2361 224
2362 224
2363 224
2364 224
2365 224
2366 224
2367 224
2368 224
2369 224
2370 225
2371 225
2372 225
2373 225
2374 225
2375 225
2376 225
2377 225
2378 225
2379 225
2380 226
2381 226
2382 226
2383 226
2384 226
2385 226
2386 226
2387 226
2388 226
2389 226
2390 227
2391 227
2392 227
2393 227
2394 227
2395 227
2396 227
2397 227
2398 227
2399 227
2400 228
2401 228
2402 228
2403 228
2404 228
2405 228
2406 228
2407 228
2408 228
2409 228
2410 229
2411 229
2412 229
2413 229
2414 229
2415 229
2416 229
2417 229
2418 229
2419 229
2420 230
2421 230
2422 230
2423 230
2424 230
2425 230
2426 230
2427 230
2428 230
2429 230
2430 86
2431 86
2432 86
2433 86
2434 86
2435 86
2436 86
2437 86
2438 86
2439 86
2440 231
2441 231
2442 231
2443 231
2444 231
2445 231
2446 231
2447 231
2448 231
2449 231
2450 232
2451 232
2452 232
2453 232
2454 232
2455 232
2456 232
2457 232
2458 232
2459 232
2460 233
2461 233
2462 233
2463 233
2464 233
2465 233
2466 233
2467 233
2468 233
2469 233
2470 234
2471 234
2472 234
2473 234
2474 234
2475 234
2476 234
2477 234
2478 234
2479 234
2480 235
2481 235
2482 235
2483 235
2484 235
2485 235
2486 235
2487 235
2488 235
2489 235
2490 236
2491 236
2492 236
2493 236
2494 236
2495 236
2496 236
2497 236
2498 236
2499 236
2500 237
2501 237
2502 237
2503 237
2504 237
2505 237
2506 237
2507 237
2508 237
2509 237
2510 238
2511 238
2512 238
2513 238
2514 238
2515 238
2516 238
2517 238
2518 238
2519 238
2520 239
2521 239
2522 239
2523 239
2524 239
2525 239
2526 239
2527 239
2528 239
2529 239
2530 240
2531 240
2532 240
2533 240
2534 240
2535 240
2536 240
2537 240
2538 240
2539 240
2540 241
2541 241
2542 241
2543 241
2544 241
2545 241
2546 241
2547 241
2548 241
2549 241
2550 242
2551 242
2552 242
2553 242
2554 242
2555 242
2556 242
2557 242
2558 242
2559 242
2560 243
2561 243
2562 243
2563 243
2564 243
2565 243
2566 243
2567 243
2568 243
2569 243
2570 244
2571 244
2572 244
2573 244
2574 244
2575 244
2576 244
2577 244
2578 244
2579 244
2580 245
2581 245
2582 245
2583 245
2584 245
2585 245
2586 245
2587 245
2588 245
2589 245
2590 246
2591 246
2592 246
2593 246
2594 246
2595 246
2596 246
2597 246
2598 246
2599 246
2600 120
2601 120
2602 120
2603 120
2604 120
2605 120
2606 120
2607 120
2608 120
2609 120
2610 247
2611 247
2612 247
2613 247
2614 247
2615 247
2616 247
2617 247
2618 247
2619 247
2620 248
2621 248
2622 248
2623 248
2624 248
2625 248
2626 248
2627 248
2628 248
2629 248
2630 249
2631 249
2632 249
2633 249
2634 249
2635 249
2636 249
2637 249
2638 249
2639 249
2640 250
2641 250
2642 250
2643 250
2644 250
2645 250
2646 250
2647 250
2648 250
2649 250
2650 251
2651 251
2652 251
2653 251
2654 251
2655 251
2656 251
2657 251
2658 251
2659 251
2660 252
2661 252
2662 252
2663 252
2664 252
2665 252
2666 252
2667 252
2668 252
2669 252
2670 253
2671 253
2672 253
2673 253
2674 253
2675 253
2676 253
2677 253
2678 253
2679 253
2680 254
2681 254
2682 254
2683 254
2684 254
2685 254
2686 254
2687 254
2688 254
2689 254
2690 255
2691 255
2692 255
2693 255
2694 255
2695 255
2696 255
2697 255
2698 255
2699 255
2700 256
2701 256
2702 256
2703 256
2704 256
2705 256
2706 256
2707 256
2708 256
2709 256
2710 257
2711 257
2712 257
2713 257
2714 257
2715 257
2716 257
2717 257
2718 257
2719 257
2720 258
2721 258
2722 258
2723 258
2724 258
2725 258
2726 258
2727 258
2728 258
2729 258
2730 259
2731 259
2732 259
2733 259
2734 259
2735 259
2736 259
2737 259
2738 259
2739 259
2740 260
2741 260
2742 260
2743 260
2744 260
2745 260
2746 260
2747 260
2748 260
2749 260
2750 261
2751 261
2752 261
2753 261
2754 261
2755 261
2756 261
2757 261
2758 261
2759 261
2760 262
2761 262
2762 262
2763 262
2764 262
2765 262
2766 262
2767 262
2768 262
2769 262
2770 263
2771 263
2772 263
2773 263
2774 263
2775 263
2776 263
2777 263
2778 263
2779 263
2780 264
2781 264
2782 264
2783 264
2784 264
2785 264
2786 264
2787 264
2788 264
2789 264
2790 265
2791 265
2792 265
2793 265
2794 265
2795 265
2796 265
2797 265
2798 265
2799 265
2800 266
2801 266
2802 266
2803 266
2804 266
2805 266
2806 266
2807 266
2808 266
2809 266
2810 267
2811 267
2812 267
2813 267
2814 267
2815 267
2816 267
2817 267
2818 267
2819 267
2820 218
2821 218
2822 218
2823 218
2824 218
2825 218
2826 218
2827 218
2828 218
2829 218
2830 268
2831 268
2832 268
2833 268
2834 268
2835 268
2836 268
2837 268
2838 268
2839 268
2840 269
2841 269
2842 269
2843 269
2844 269
2845 269
2846 269
2847 269
2848 269
2849 269
2850 270
2851 270
2852 270
2853 270
2854 270
2855 270
2856 270
2857 270
2858 270
2859 270
2860 271
2861 271
2862 271
2863 271
2864 271
2865 271
2866 271
2867 271
2868 271
2869 271
2870 272
2871 272
2872 272
2873 272
2874 272
2875 272
2876 272
2877 272
2878 272
2879 272
2880 273
2881 273
2882 273
2883 273
2884 273
2885 273
2886 273
2887 273
2888 273
2889 273
2890 274
2891 274
2892 274
2893 274
2894 274
2895 274
2896 274
2897 274
2898 274
2899 274
2900 275
2901 275
2902 275
2903 275
2904 275
2905 275
2906 275
2907 275
2908 275
2909 275
2910 276
2911 276
2912 276
2913 276
2914 276
2915 276
2916 276
2917 276
2918 276
2919 276
2920 277
2921 277
2922 277
2923 277
2924 277
2925 277
2926 277
2927 277
2928 277
2929 277
2930 278
2931 278
2932 278
2933 278
2934 278
2935 278
2936 278
2937 278
2938 278
2939 278
2940 233
2941 233
2942 233
2943 233
2944 233
2945 233
2946 233
2947 233
2948 233
2949 233
2950 279
2951 279
2952 279
2953 279
2954 279
2955 279
2956 279
2957 279
2958 279
2959 279
2960 280
2961 280
2962 280
2963 280
2964 280
2965 280
2966 280
2967 280
2968 280
2969 280
2970 281
2971 281
2972 281
2973 281
2974 281
2975 281
2976 281
2977 281
2978 281
2979 281
2980 282
2981 282
2982 282
2983 282
2984 282
2985 282
2986 282
2987 282
2988 282
2989 282
2990 283
2991 283
2992 283
2993 283
2994 283
2995 283
2996 283
2997 283
2998 283
2999 283
3000 284
3001 284
3002 284
3003 284
3004 284
3005 284
3006 284
3007 284
3008 284
3009 284
3010 285
3011 285
3012 285
3013 285
3014 285
3015 285
3016 285
3017 285
3018 285
3019 285
3020 286
3021 286
3022 286
3023 286
3024 286
3025 286
3026 286
3027 286
3028 286
3029 286
3030 287
3031 287
3032 287
3033 287
3034 287
3035 287
3036 287
3037 287
3038 287
3039 287
3040 288
3041 288
3042 288
3043 288
3044 288
3045 288
3046 288
3047 288
3048 288
3049 288
3050 289
3051 289
3052 289
3053 289
3054 289
3055 289
3056 289
3057 289
3058 289
3059 289
3060 290
3061 290
3062 290
3063 290
3064 290
3065 290
3066 290
3067 290
3068 290
3069 290
3070 291
3071 291
3072 291
3073 291
3074 291
3075 291
3076 291
3077 291
3078 291
3079 291
3080 292
3081 292
3082 292
3083 292
3084 292
3085 292
3086 292
3087 292
3088 292
3089 292
3090 293
3091 293
3092 293
3093 293
3094 293
3095 293
3096 293
3097 293
3098 293
3099 293
3100 294
3101 294
3102 294
3103 294
3104 294
3105 294
3106 294
3107 294
3108 294
3109 294
3110 295
3111 295
3112 295
3113 295
3114 295
3115 295
3116 295
3117 295
3118 295
3119 295
3120 296
3121 296
3122 296
3123 296
3124 296
3125 296
3126 296
3127 296
3128 296
3129 296
3130 297
3131 297
3132 297
3133 297
3134 297
3135 297
3136 297
3137 297
3138 297
3139 297
3140 298
3141 298
3142 298
3143 298
3144 298
3145 298
3146 298
3147 298
3148 298
3149 298
3150 299
3151 299
3152 299
3153 299
3154 299
3155 299
3156 299
3157 299
3158 299
3159 299
3160 300
3161 300
3162 300
3163 300
3164 300
3165 300
3166 300
3167 300
3168 300
3169 300
3170 301
3171 301
3172 301
3173 301
3174 301
3175 301
3176 301
3177 301
3178 301
3179 301
3180 302
3181 302
3182 302
3183 302
3184 302
3185 302
3186 302
3187 302
3188 302
3189 302
3190 303
3191 303
3192 303
3193 303
3194 303
3195 303
3196 303
3197 303
3198 303
3199 303
3200 304
3201 304
3202 304
3203 304
3204 304
3205 304
3206 304
3207 304
3208 304
3209 304
3210 305
3211 305
3212 305
3213 305
3214 305
3215 305
3216 305
3217 305
3218 305
3219 305
3220 12
3221 12
3222 12
3223 12
3224 12
3225 12
3226 12
3227 12
3228 12
3229 12
3230 306
3231 306
3232 306
3233 306
3234 306
3235 306
3236 306
3237 306
3238 306
3239 306
3240 307
3241 307
3242 307
3243 307
3244 307
3245 307
3246 307
3247 307
3248 307
3249 307
3250 308
3251 308
3252 308
3253 308
3254 308
3255 308
3256 308
3257 308
3258 308
3259 308
3260 309
3261 309
3262 309
3263 309
3264 309
3265 309
3266 309
3267 309
3268 309
3269 309
3270 310
3271 310
3272 310
3273 310
3274 310
3275 310
3276 310
3277 310
3278 310
3279 310
3280 208
3281 208
3282 208
3283 208
3284 208
3285 208
3286 208
3287 208
3288 208
3289 208
3290 311
3291 311
3292 311
3293 311
3294 311
3295 311
3296 311
3297 311
3298 311
3299 311
3300 130
3301 130
3302 130
3303 130
3304 130
3305 130
3306 130
3307 130
3308 130
3309 130
3310 58
3311 58
3312 58
3313 58
3314 58
3315 58
3316 58
3317 58
3318 58
3319 58
3320 312
3321 312
3322 312
3323 312
3324 312
3325 312
3326 312
3327 312
3328 312
3329 312
3330 313
3331 313
3332 313
3333 313
3334 313
3335 313
3336 313
3337 313
3338 313
3339 313
3340 314
3341 314
3342 314
3343 314
3344 314
3345 314
3346 314
3347 314
3348 314
3349 314
3350 315
3351 315
3352 315
3353 315
3354 315
3355 315
3356 315
3357 315
3358 315
3359 315
3360 316
3361 316
3362 316
3363 316
3364 316
3365 316
3366 316
3367 316
3368 316
3369 316
3370 317
3371 317
3372 317
3373 317
3374 317
3375 317
3376 317
3377 317
3378 317
3379 317
3380 318
3381 318
3382 318
3383 318
3384 318
3385 318
3386 318
3387 318
3388 318
3389 318
3390 319
3391 319
3392 319
3393 319
3394 319
3395 319
3396 319
3397 319
3398 319
3399 319
3400 320
3401 320
3402 320
3403 320
3404 320
3405 320
3406 320
3407 320
3408 320
3409 320
3410 321
3411 321
3412 321
3413 321
3414 321
3415 321
3416 321
3417 321
3418 321
3419 321
3420 322
3421 322
3422 322
3423 322
3424 322
3425 322
3426 322
3427 322
3428 322
3429 322
3430 323
3431 323
3432 323
3433 323
3434 323
3435 323
3436 323
3437 323
3438 323
3439 323
3440 324
3441 324
3442 324
3443 324
3444 324
3445 324
3446 324
3447 324
3448 324
3449 324
3450 325
3451 325
3452 325
3453 325
3454 325
3455 325
3456 325
3457 325
3458 325
3459 325
3460 326
3461 326
3462 326
3463 326
3464 326
3465 326
3466 326
3467 326
3468 326
3469 326
3470 327
3471 327
3472 327
3473 327
3474 327
3475 327
3476 327
3477 327
3478 327
3479 327
3480 328
3481 328
3482 328
3483 328
3484 328
3485 328
3486 328
3487 328
3488 328
3489 328
3490 329
3491 329
3492 329
3493 329
3494 329
3495 329
3496 329
3497 329
3498 329
3499 329
3500 330
3501 330
3502 330
3503 330
3504 330
3505 330
3506 330
3507 330
3508 330
3509 330
3510 131
3511 131
3512 131
3513 131
3514 131
3515 131
3516 131
3517 131
3518 131
3519 131
3520 331
3521 331
3522 331
3523 331
3524 331
3525 331
3526 331
3527 331
3528 331
3529 331
3530 332
3531 332
3532 332
3533 332
3534 332
3535 332
3536 332
3537 332
3538 332
3539 332
3540 333
3541 333
3542 333
3543 333
3544 333
3545 333
3546 333
3547 333
3548 333
3549 333
3550 334
3551 334
3552 334
3553 334
3554 334
3555 334
3556 334
3557 334
3558 334
3559 334
3560 335
3561 335
3562 335
3563 335
3564 335
3565 335
3566 335
3567 335
3568 335
3569 335
3570 336
3571 336
3572 336
3573 336
3574 336
3575 336
3576 336
3577 336
3578 336
3579 336
3580 337
3581 337
3582 337
3583 337
3584 337
3585 337
3586 337
3587 337
3588 337
3589 337
3590 338
3591 338
3592 338
3593 338
3594 338
3595 338
3596 338
3597 338
3598 338
3599 338
3600 339
3601 339
3602 339
3603 339
3604 339
3605 339
3606 339
3607 339
3608 339
3609 339
3610 340
3611 340
3612 340
3613 340
3614 340
3615 340
3616 340
3617 340
3618 340
3619 340
3620 341
3621 341
3622 341
3623 341
3624 341
3625 341
3626 341
3627 341
3628 341
3629 341
3630 342
3631 342
3632 342
3633 342
3634 342
3635 342
3636 342
3637 342
3638 342
3639 342
3640 163
3641 163
3642 163
3643 163
3644 163
3645 163
3646 163
3647 163
3648 163
3649 163
3650 343
3651 343
3652 343
3653 343
3654 343
3655 343
3656 343
3657 343
3658 343
3659 343
3660 173
3661 173
3662 173
3663 173
3664 173
3665 173
3666 173
3667 173
3668 173
3669 173
3670 344
3671 344
3672 344
3673 344
3674 344
3675 344
3676 344
3677 344
3678 344
3679 344
3680 345
3681 345
3682 345
3683 345
3684 345
3685 345
3686 345
3687 345
3688 345
3689 345
3690 346
3691 346
3692 346
3693 346
3694 346
3695 346
3696 346
3697 346
3698 346
3699 346
3700 347
3701 347
3702 347
3703 347
3704 347
3705 347
3706 347
3707 347
3708 347
3709 347
3710 348
3711 348
3712 348
3713 348
3714 348
3715 348
3716 348
3717 348
3718 348
3719 348
3720 349
3721 349
3722 349
3723 349
3724 349
3725 349
3726 349
3727 349
3728 349
3729 349
3730 350
3731 350
3732 350
3733 350
3734 350
3735 350
3736 350
3737 350
3738 350
3739 350
3740 351
3741 351
3742 351
3743 351
3744 351
3745 351
3746 351
3747 351
3748 351
3749 351
3750 352
3751 352
3752 352
3753 352
3754 352
3755 352
3756 352
3757 352
3758 352
3759 352
3760 353
3761 353
3762 353
3763 353
3764 353
3765 353
3766 353
3767 353
3768 353
3769 353
3770 354
3771 354
3772 354
3773 354
3774 354
3775 354
3776 354
3777 354
3778 354
3779 354
3780 355
3781 355
3782 355
3783 355
3784 355
3785 355
3786 355
3787 355
3788 355
3789 355
3790 356
3791 356
3792 356
3793 356
3794 356
3795 356
3796 356
3797 356
3798 356
3799 356
3800 357
3801 357
3802 357
3803 357
3804 357
3805 357
3806 357
3807 357
3808 357
3809 357
3810 358
3811 358
3812 358
3813 358
3814 358
3815 358
3816 358
3817 358
3818 358
3819 358
3820 359
3821 359
3822 359
3823 359
3824 359
3825 359
3826 359
3827 359
3828 359
3829 359
3830 360
3831 360
3832 360
3833 360
3834 360
3835 360
3836 360
3837 360
3838 360
3839 360
3840 361
3841 361
3842 361
3843 361
3844 361
3845 361
3846 361
3847 361
3848 361
3849 361
3850 362
3851 362
3852 362
3853 362
3854 362
3855 362
3856 362
3857 362
3858 362
3859 362
3860 363
3861 363
3862 363
3863 363
3864 363
3865 363
3866 363
3867 363
3868 363
3869 363
3870 364
3871 364
3872 364
3873 364
3874 364
3875 364
3876 364
3877 364
3878 364
3879 364
3880 365
3881 365
3882 365
3883 365
3884 365
3885 365
3886 365
3887 365
3888 365
3889 365
3890 366
3891 366
3892 366
3893 366
3894 366
3895 366
3896 366
3897 366
3898 366
3899 366
3900 367
3901 367
3902 367
3903 367
3904 367
3905 367
3906 367
3907 367
3908 367
3909 367
3910 368
3911 368
3912 368
3913 368
3914 368
3915 368
3916 368
3917 368
3918 368
3919 368
3920 369
3921 369
3922 369
3923 369
3924 369
3925 369
3926 369
3927 369
3928 369
3929 369
3930 370
3931 370
3932 370
3933 370
3934 370
3935 370
3936 370
3937 370
3938 370
3939 370
3940 371
3941 371
3942 371
3943 371
3944 371
3945 371
3946 371
3947 371
3948 371
3949 371
3950 372
3951 372
3952 372
3953 372
3954 372
3955 372
3956 372
3957 372
3958 372
3959 372
3960 373
3961 373
3962 373
3963 373
3964 373
3965 373
3966 373
3967 373
3968 373
3969 373
3970 374
3971 374
3972 374
3973 374
3974 374
3975 374
3976 374
3977 374
3978 374
3979 374
3980 375
3981 375
3982 375
3983 375
3984 375
3985 375
3986 375
3987 375
3988 375
3989 375
3990 376
3991 376
3992 376
3993 376
3994 376
3995 376
3996 376
3997 376
3998 376
3999 376
4000 377
4001 377
4002 377
4003 377
4004 377
4005 377
4006 377
4007 377
4008 377
4009 377
4010 378
4011 378
4012 378
4013 378
4014 378
4015 378
4016 378
4017 378
4018 378
4019 378
4020 379
4021 379
4022 379
4023 379
4024 379
4025 379
4026 379
4027 379
4028 379
4029 379
4030 380
4031 380
4032 380
4033 380
4034 380
4035 380
4036 380
4037 380
4038 380
4039 380
4040 381
4041 381
4042 381
4043 381
4044 381
4045 381
4046 381
4047 381
4048 381
4049 381
4050 382
4051 382
4052 382
4053 382
4054 382
4055 382
4056 382
4057 382
4058 382
4059 382
4060 383
4061 383
4062 383
4063 383
4064 383
4065 383
4066 383
4067 383
4068 383
4069 383
4070 384
4071 384
4072 384
4073 384
4074 384
4075 384
4076 384
4077 384
4078 384
4079 384
4080 385
4081 385
4082 385
4083 385
4084 385
4085 385
4086 385
4087 385
4088 385
4089 385
4090 386
4091 386
4092 386
4093 386
4094 386
4095 386
4096 386
4097 386
4098 386
4099 386
4100 34
4101 34
4102 34
4103 34
4104 34
4105 34
4106 34
4107 34
4108 34
4109 34
4110 387
4111 387
4112 387
4113 387
4114 387
4115 387
4116 387
4117 387
4118 387
4119 387
4120 388
4121 388
4122 388
4123 388
4124 388
4125 388
4126 388
4127 388
4128 388
4129 388
4130 389
4131 389
4132 389
4133 389
4134 389
4135 389
4136 389
4137 389
4138 389
4139 389
4140 390
4141 390
4142 390
4143 390
4144 390
4145 390
4146 390
4147 390
4148 390
4149 390
4150 391
4151 391
4152 391
4153 391
4154 391
4155 391
4156 391
4157 391
4158 391
4159 391
4160 392
4161 392
4162 392
4163 392
4164 392
4165 392
4166 392
4167 392
4168 392
4169 392
4170 393
4171 393
4172 393
4173 393
4174 393
4175 393
4176 393
4177 393
4178 393
4179 393
4180 394
4181 394
4182 394
4183 394
4184 394
4185 394
4186 394
4187 394
4188 394
4189 394
4190 395
4191 395
4192 395
4193 395
4194 395
4195 395
4196 395
4197 395
4198 395
4199 395
4200 396
4201 396
4202 396
4203 396
4204 396
4205 396
4206 396
4207 396
4208 396
4209 396
4210 397
4211 397
4212 397
4213 397
4214 397
4215 397
4216 397
4217 397
4218 397
4219 397
4220 398
4221 398
4222 398
4223 398
4224 398
4225 398
4226 398
4227 398
4228 398
4229 398
4230 399
4231 399
4232 399
4233 399
4234 399
4235 399
4236 399
4237 399
4238 399
4239 399
4240 1
4241 1
4242 1
4243 1
4244 1
4245 1
4246 1
4247 1
4248 1
4249 1
4250 400
4251 400
4252 400
4253 400
4254 400
4255 400
4256 400
4257 400
4258 400
4259 400
4260 401
4261 401
4262 401
4263 401
4264 401
4265 401
4266 401
4267 401
4268 401
4269 401
4270 402
4271 402
4272 402
4273 402
4274 402
4275 402
4276 402
4277 402
4278 402
4279 402
4280 403
4281 403
4282 403
4283 403
4284 403
4285 403
4286 403
4287 403
4288 403
4289 403
4290 404
4291 404
4292 404
4293 404
4294 404
4295 404
4296 404
4297 404
4298 404
4299 404
4300 405
4301 405
4302 405
4303 405
4304 405
4305 405
4306 405
4307 405
4308 405
4309 405
4310 406
4311 406
4312 406
4313 406
4314 406
4315 406
4316 406
4317 406
4318 406
4319 406
4320 407
4321 407
4322 407
4323 407
4324 407
4325 407
4326 407
4327 407
4328 407
4329 407
4330 408
4331 408
4332 408
4333 408
4334 408
4335 408
4336 408
4337 408
4338 408
4339 408
4340 110
4341 110
4342 110
4343 110
4344 110
4345 110
4346 110
4347 110
4348 110
4349 110
4350 409
4351 409
4352 409
4353 409
4354 409
4355 409
4356 409
4357 409
4358 409
4359 409
4360 410
4361 410
4362 410
4363 410
4364 410
4365 410
4366 410
4367 410
4368 410
4369 410
4370 411
4371 411
4372 411
4373 411
4374 411
4375 411
4376 411
4377 411
4378 411
4379 411
4380 412
4381 412
4382 412
4383 412
4384 412
4385 412
4386 412
4387 412
4388 412
4389 412
4390 413
4391 413
4392 413
4393 413
4394 413
4395 413
4396 413
4397 413
4398 413
4399 413
4400 414
4401 414
4402 414
4403 414
4404 414
4405 414
4406 414
4407 414
4408 414
4409 414
4410 415
4411 415
4412 415
4413 415
4414 415
4415 415
4416 415
4417 415
4418 415
4419 415
4420 416
4421 416
4422 416
4423 416
4424 416
4425 416
4426 416
4427 416
4428 416
4429 416
4430 417
4431 417
4432 417
4433 417
4434 417
4435 417
4436 417
4437 417
4438 417
4439 417
4440 418
4441 418
4442 418
4443 418
4444 418
4445 418
4446 418
4447 418
4448 418
4449 418
4450 419
4451 419
4452 419
4453 419
4454 419
4455 419
4456 419
4457 419
4458 419
4459 419
4460 420
4461 420
4462 420
4463 420
4464 420
4465 420
4466 420
4467 420
4468 420
4469 420
4470 421
4471 421
4472 421
4473 421
4474 421
4475 421
4476 421
4477 421
4478 421
4479 421
4480 422
4481 422
4482 422
4483 422
4484 422
4485 422
4486 422
4487 422
4488 422
4489 422
4490 423
4491 423
4492 423
4493 423
4494 423
4495 423
4496 423
4497 423
4498 423
4499 423
4500 424
4501 424
4502 424
4503 424
4504 424
4505 424
4506 424
4507 424
4508 424
4509 424
4510 425
4511 425
4512 425
4513 425
4514 425
4515 425
4516 425
4517 425
4518 425
4519 425
4520 426
4521 426
4522 426
4523 426
4524 426
4525 426
4526 426
4527 426
4528 426
4529 426
4530 427
4531 427
4532 427
4533 427
4534 427
4535 427
4536 427
4537 427
4538 427
4539 427
4540 428
4541 428
4542 428
4543 428
4544 428
4545 428
4546 428
4547 428
4548 428
4549 428
4550 429
4551 429
4552 429
4553 429
4554 429
4555 429
4556 429
4557 429
4558 429
4559 429
4560 430
4561 430
4562 430
4563 430
4564 430
4565 430
4566 430
4567 430
4568 430
4569 430
4570 431
4571 431
4572 431
4573 431
4574 431
4575 431
4576 431
4577 431
4578 431
4579 431
4580 360
4581 360
4582 360
4583 360
4584 360
4585 360
4586 360
4587 360
4588 360
4589 360
4590 432
4591 432
4592 432
4593 432
4594 432
4595 432
4596 432
4597 432
4598 432
4599 432
4600 433
4601 433
4602 433
4603 433
4604 433
4605 433
4606 433
4607 433
4608 433
4609 433
4610 406
4611 406
4612 406
4613 406
4614 406
4615 406
4616 406
4617 406
4618 406
4619 406
4620 434
4621 434
4622 434
4623 434
4624 434
4625 434
4626 434
4627 434
4628 434
4629 434
4630 435
4631 435
4632 435
4633 435
4634 435
4635 435
4636 435
4637 435
4638 435
4639 435
4640 436
4641 436
4642 436
4643 436
4644 436
4645 436
4646 436
4647 436
4648 436
4649 436
4650 437
4651 437
4652 437
4653 437
4654 437
4655 437
4656 437
4657 437
4658 437
4659 437
4660 438
4661 438
4662 438
4663 438
4664 438
4665 438
4666 438
4667 438
4668 438
4669 438
4670 439
4671 439
4672 439
4673 439
4674 439
4675 439
4676 439
4677 439
4678 439
4679 439
4680 440
4681 440
4682 440
4683 440
4684 440
4685 440
4686 440
4687 440
4688 440
4689 440
4690 441
4691 441
4692 441
4693 441
4694 441
4695 441
4696 441
4697 441
4698 441
4699 441
4700 442
4701 442
4702 442
4703 442
4704 442
4705 442
4706 442
4707 442
4708 442
4709 442
4710 443
4711 443
4712 443
4713 443
4714 443
4715 443
4716 443
4717 443
4718 443
4719 443
4720 444
4721 444
4722 444
4723 444
4724 444
4725 444
4726 444
4727 444
4728 444
4729 444
4730 140
4731 140
4732 140
4733 140
4734 140
4735 140
4736 140
4737 140
4738 140
4739 140
4740 445
4741 445
4742 445
4743 445
4744 445
4745 445
4746 445
4747 445
4748 445
4749 445
4750 446
4751 446
4752 446
4753 446
4754 446
4755 446
4756 446
4757 446
4758 446
4759 446
4760 447
4761 447
4762 447
4763 447
4764 447
4765 447
4766 447
4767 447
4768 447
4769 447
4770 448
4771 448
4772 448
4773 448
4774 448
4775 448
4776 448
4777 448
4778 448
4779 448
4780 449
4781 449
4782 449
4783 449
4784 449
4785 449
4786 449
4787 449
4788 449
4789 449
4790 450
4791 450
4792 450
4793 450
4794 450
4795 450
4796 450
4797 450
4798 450
4799 450
4800 451
4801 451
4802 451
4803 451
4804 451
4805 451
4806 451
4807 451
4808 451
4809 451
4810 452
4811 452
4812 452
4813 452
4814 452
4815 452
4816 452
4817 452
4818 452
4819 452
4820 453
4821 453
4822 453
4823 453
4824 453
4825 453
4826 453
4827 453
4828 453
4829 453
4830 454
4831 454
4832 454
4833 454
4834 454
4835 454
4836 454
4837 454
4838 454
4839 454
4840 455
4841 455
4842 455
4843 455
4844 455
4845 455
4846 455
4847 455
4848 455
4849 455
4850 456
4851 456
4852 456
4853 456
4854 456
4855 456
4856 456
4857 456
4858 456
4859 456
4860 457
4861 457
4862 457
4863 457
4864 457
4865 457
4866 457
4867 457
4868 457
4869 457
4870 458
4871 458
4872 458
4873 458
4874 458
4875 458
4876 458
4877 458
4878 458
4879 458
4880 459
4881 459
4882 459
4883 459
4884 459
4885 459
4886 459
4887 459
4888 459
4889 459
4890 460
4891 460
4892 460
4893 460
4894 460
4895 460
4896 460
4897 460
4898 460
4899 460
4900 461
4901 461
4902 461
4903 461
4904 461
4905 461
4906 461
4907 461
4908 461
4909 461
4910 462
4911 462
4912 462
4913 462
4914 462
4915 462
4916 462
4917 462
4918 462
4919 462
4920 463
4921 463
4922 463
4923 463
4924 463
4925 463
4926 463
4927 463
4928 463
4929 463
4930 464
4931 464
4932 464
4933 464
4934 464
4935 464
4936 464
4937 464
4938 464
4939 464
4940 227
4941 227
4942 227
4943 227
4944 227
4945 227
4946 227
4947 227
4948 227
4949 227
4950 465
4951 465
4952 465
4953 465
4954 465
4955 465
4956 465
4957 465
4958 465
4959 465
4960 466
4961 466
4962 466
4963 466
4964 466
4965 466
4966 466
4967 466
4968 466
4969 466
4970 467
4971 467
4972 467
4973 467
4974 467
4975 467
4976 467
4977 467
4978 467
4979 467
4980 468
4981 468
4982 468
4983 468
4984 468
4985 468
4986 468
4987 468
4988 468
4989 468
4990 469
4991 469
4992 469
4993 469
4994 469
4995 469
4996 469
4997 469
4998 469
4999 469
5000 470
5001 470
5002 470
5003 470
5004 470
5005 470
5006 470
5007 470
5008 470
5009 470
5010 283
5011 283
5012 283
5013 283
5014 283
5015 283
5016 283
5017 283
5018 283
5019 283
5020 471
5021 471
5022 471
5023 471
5024 471
5025 471
5026 471
5027 471
5028 471
5029 471
5030 472
5031 472
5032 472
5033 472
5034 472
5035 472
5036 472
5037 472
5038 472
5039 472
5040 473
5041 473
5042 473
5043 473
5044 473
5045 473
5046 473
5047 473
5048 473
5049 473
5050 474
5051 474
5052 474
5053 474
5054 474
5055 474
5056 474
5057 474
5058 474
5059 474
5060 111
5061 111
5062 111
5063 111
5064 111
5065 111
5066 111
5067 111
5068 111
5069 111
5070 475
5071 475
5072 475
5073 475
5074 475
5075 475
5076 475
5077 475
5078 475
5079 475
5080 476
5081 476
5082 476
5083 476
5084 476
5085 476
5086 476
5087 476
5088 476
5089 476
5090 477
5091 477
5092 477
5093 477
5094 477
5095 477
5096 477
5097 477
5098 477
5099 477
5100 478
5101 478
5102 478
5103 478
5104 478
5105 478
5106 478
5107 478
5108 478
5109 478
5110 479
5111 479
5112 479
5113 479
5114 479
5115 479
5116 479
5117 479
5118 479
5119 479
5120 480
5121 480
5122 480
5123 480
5124 480
5125 480
5126 480
5127 480
5128 480
5129 480
5130 481
5131 481
5132 481
5133 481
5134 481
5135 481
5136 481
5137 481
5138 481
5139 481
5140 482
5141 482
5142 482
5143 482
5144 482
5145 482
5146 482
5147 482
5148 482
5149 482
5150 130
5151 130
5152 130
5153 130
5154 130
5155 130
5156 130
5157 130
5158 130
5159 130
5160 483
5161 483
5162 483
5163 483
5164 483
5165 483
5166 483
5167 483
5168 483
5169 483
5170 484
5171 484
5172 484
5173 484
5174 484
5175 484
5176 484
5177 484
5178 484
5179 484
5180 485
5181 485
5182 485
5183 485
5184 485
5185 485
5186 485
5187 485
5188 485
5189 485
5190 486
5191 486
5192 486
5193 486
5194 486
5195 486
5196 486
5197 486
5198 486
5199 486
5200 487
5201 487
5202 487
5203 487
5204 487
5205 487
5206 487
5207 487
5208 487
5209 487
5210 488
5211 488
5212 488
5213 488
5214 488
5215 488
5216 488
5217 488
5218 488
5219 488
5220 489
5221 489
5222 489
5223 489
5224 489
5225 489
5226 489
5227 489
5228 489
5229 489
5230 490
5231 490
5232 490
5233 490
5234 490
5235 490
5236 490
5237 490
5238 490
5239 490
5240 491
5241 491
5242 491
5243 491
5244 491
5245 491
5246 491
5247 491
5248 491
5249 491
5250 492
5251 492
5252 492
5253 492
5254 492
5255 492
5256 492
5257 492
5258 492
5259 492
5260 493
5261 493
5262 493
5263 493
5264 493
5265 493
5266 493
5267 493
5268 493
5269 493
5270 494
5271 494
5272 494
5273 494
5274 494
5275 494
5276 494
5277 494
5278 494
5279 494
5280 495
5281 495
5282 495
5283 495
5284 495
5285 495
5286 495
5287 495
5288 495
5289 495
5290 496
5291 496
5292 496
5293 496
5294 496
5295 496
5296 496
5297 496
5298 496
5299 496
5300 497
5301 497
5302 497
5303 497
5304 497
5305 497
5306 497
5307 497
5308 497
5309 497
5310 285
5311 285
5312 285
5313 285
5314 285
5315 285
5316 285
5317 285
5318 285
5319 285
5320 498
5321 498
5322 498
5323 498
5324 498
5325 498
5326 498
5327 498
5328 498
5329 498
5330 499
5331 499
5332 499
5333 499
5334 499
5335 499
5336 499
5337 499
5338 499
5339 499
5340 500
5341 500
5342 500
5343 500
5344 500
5345 500
5346 500
5347 500
5348 500
5349 500
5350 501
5351 501
5352 501
5353 501
5354 501
5355 501
5356 501
5357 501
5358 501
5359 501
5360 502
5361 502
5362 502
5363 502
5364 502
5365 502
5366 502
5367 502
5368 502
5369 502
5370 503
5371 503
5372 503
5373 503
5374 503
5375 503
5376 503
5377 503
5378 503
5379 503
5380 504
5381 504
5382 504
5383 504
5384 504
5385 504
5386 504
5387 504
5388 504
5389 504
5390 505
5391 505
5392 505
5393 505
5394 505
5395 505
5396 505
5397 505
5398 505
5399 505
5400 506
5401 506
5402 506
5403 506
5404 506
5405 506
5406 506
5407 506
5408 506
5409 506
5410 507
5411 507
5412 507
5413 507
5414 507
5415 507
5416 507
5417 507
5418 507
5419 507
5420 508
5421 508
5422 508
5423 508
5424 508
5425 508
5426 508
5427 508
5428 508
5429 508
5430 509
5431 509
5432 509
5433 509
5434 509
5435 509
5436 509
5437 509
5438 509
5439 509
5440 510
5441 510
5442 510
5443 510
5444 510
5445 510
5446 510
5447 510
5448 510
5449 510
5450 511
5451 511
5452 511
5453 511
5454 511
5455 511
5456 511
5457 511
5458 511
5459 511
5460 512
5461 512
5462 512
5463 512
5464 512
5465 512
5466 512
5467 512
5468 512
5469 512
5470 513
5471 513
5472 513
5473 513
5474 513
5475 513
5476 513
5477 513
5478 513
5479 513
5480 514
5481 514
5482 514
5483 514
5484 514
5485 514
5486 514
5487 514
5488 514
5489 514
5490 515
5491 515
5492 515
5493 515
5494 515
5495 515
5496 515
5497 515
5498 515
5499 515
5500 516
5501 516
5502 516
5503 516
5504 516
5505 516
5506 516
5507 516
5508 516
5509 516
5510 517
5511 517
5512 517
5513 517
5514 517
5515 517
5516 517
5517 517
5518 517
5519 517
5520 518
5521 518
5522 518
5523 518
5524 518
5525 518
5526 518
5527 518
5528 518
5529 518
5530 519
5531 519
5532 519
5533 519
5534 519
5535 519
5536 519
5537 519
5538 519
5539 519
5540 520
5541 520
5542 520
5543 520
5544 520
5545 520
5546 520
5547 520
5548 520
5549 520
5550 521
5551 521
5552 521
5553 521
5554 521
5555 521
5556 521
5557 521
5558 521
5559 521
5560 522
5561 522
5562 522
5563 522
5564 522
5565 522
5566 522
5567 522
5568 522
5569 522
5570 523
5571 523
5572 523
5573 523
5574 523
5575 523
5576 523
5577 523
5578 523
5579 523
5580 524
5581 524
5582 524
5583 524
5584 524
5585 524
5586 524
5587 524
5588 524
5589 524
5590 525
5591 525
5592 525
5593 525
5594 525
5595 525
5596 525
5597 525
5598 525
5599 525
5600 526
5601 526
5602 526
5603 526
5604 526
5605 526
5606 526
5607 526
5608 526
5609 526
5610 206
5611 206
5612 206
5613 206
5614 206
5615 206
5616 206
5617 206
5618 206
5619 206
5620 527
5621 527
5622 527
5623 527
5624 527
5625 527
5626 527
5627 527
5628 527
5629 527
5630 528
5631 528
5632 528
5633 528
5634 528
5635 528
5636 528
5637 528
5638 528
5639 528
5640 85
5641 85
5642 85
5643 85
5644 85
5645 85
5646 85
5647 85
5648 85
5649 85
5650 529
5651 529
5652 529
5653 529
5654 529
5655 529
5656 529
5657 529
5658 529
5659 529
5660 530
5661 530
5662 530
5663 530
5664 530
5665 530
5666 530
5667 530
5668 530
5669 530
5670 531
5671 531
5672 531
5673 531
5674 531
5675 531
5676 531
5677 531
5678 531
5679 531
5680 532
5681 532
5682 532
5683 532
5684 532
5685 532
5686 532
5687 532
5688 532
5689 532
5690 533
5691 533
5692 533
5693 533
5694 533
5695 533
5696 533
5697 533
5698 533
5699 533
5700 534
5701 534
5702 534
5703 534
5704 534
5705 534
5706 534
5707 534
5708 534
5709 534
5710 535
5711 535
5712 535
5713 535
5714 535
5715 535
5716 535
5717 535
5718 535
5719 535
5720 95
5721 95
5722 95
5723 95
5724 95
5725 95
5726 95
5727 95
5728 95
5729 95
5730 462
5731 462
5732 462
5733 462
5734 462
5735 462
5736 462
5737 462
5738 462
5739 462
5740 536
5741 536
5742 536
5743 536
5744 536
5745 536
5746 536
5747 536
5748 536
5749 536
5750 537
5751 537
5752 537
5753 537
5754 537
5755 537
5756 537
5757 537
5758 537
5759 537
5760 538
5761 538
5762 538
5763 538
5764 538
5765 538
5766 538
5767 538
5768 538
5769 538
5770 539
5771 539
5772 539
5773 539
5774 539
5775 539
5776 539
5777 539
5778 539
5779 539
5780 540
5781 540
5782 540
5783 540
5784 540
5785 540
5786 540
5787 540
5788 540
5789 540
5790 541
5791 541
5792 541
5793 541
5794 541
5795 541
5796 541
5797 541
5798 541
5799 541
5800 542
5801 542
5802 542
5803 542
5804 542
5805 542
5806 542
5807 542
5808 542
5809 542
5810 543
5811 543
5812 543
5813 543
5814 543
5815 543
5816 543
5817 543
5818 543
5819 543
5820 421
5821 421
5822 421
5823 421
5824 421
5825 421
5826 421
5827 421
5828 421
5829 421
5830 544
5831 544
5832 544
5833 544
5834 544
5835 544
5836 544
5837 544
5838 544
5839 544
5840 545
5841 545
5842 545
5843 545
5844 545
5845 545
5846 545
5847 545
5848 545
5849 545
5850 504
5851 504
5852 504
5853 504
5854 504
5855 504
5856 504
5857 504
5858 504
5859 504
5860 546
5861 546
5862 546
5863 546
5864 546
5865 546
5866 546
5867 546
5868 546
5869 546
5870 547
5871 547
5872 547
5873 547
5874 547
5875 547
5876 547
5877 547
5878 547
5879 547
5880 548
5881 548
5882 548
5883 548
5884 548
5885 548
5886 548
5887 548
5888 548
5889 548
5890 549
5891 549
5892 549
5893 549
5894 549
5895 549
5896 549
5897 549
5898 549
5899 549
5900 550
5901 550
5902 550
5903 550
5904 550
5905 550
5906 550
5907 550
5908 550
5909 550
5910 551
5911 551
5912 551
5913 551
5914 551
5915 551
5916 551
5917 551
5918 551
5919 551
5920 552
5921 552
5922 552
5923 552
5924 552
5925 552
5926 552
5927 552
5928 552
5929 552
5930 553
5931 553
5932 553
5933 553
5934 553
5935 553
5936 553
5937 553
5938 553
5939 553
5940 554
5941 554
5942 554
5943 554
5944 554
5945 554
5946 554
5947 554
5948 554
5949 554
5950 555
5951 555
5952 555
5953 555
5954 555
5955 555
5956 555
5957 555
5958 555
5959 555
5960 556
5961 556
5962 556
5963 556
5964 556
5965 556
5966 556
5967 556
5968 556
5969 556
5970 557
5971 557
5972 557
5973 557
5974 557
5975 557
5976 557
5977 557
5978 557
5979 557
5980 558
5981 558
5982 558
5983 558
5984 558
5985 558
5986 558
5987 558
5988 558
5989 558
5990 559
5991 559
5992 559
5993 559
5994 559
5995 559
5996 559
5997 559
5998 559
5999 559
6000 560
6001 560
6002 560
6003 560
6004 560
6005 560
6006 560
6007 560
6008 560
6009 560
6010 561
6011 561
6012 561
6013 561
6014 561
6015 561
6016 561
6017 561
6018 561
6019 561
6020 562
6021 562
6022 562
6023 562
6024 562
6025 562
6026 562
6027 562
6028 562
6029 562
6030 563
6031 563
6032 563
6033 563
6034 563
6035 563
6036 563
6037 563
6038 563
6039 563
6040 564
6041 564
6042 564
6043 564
6044 564
6045 564
6046 564
6047 564
6048 564
6049 564
6050 126
6051 126
6052 126
6053 126
6054 126
6055 126
6056 126
6057 126
6058 126
6059 126
6060 565
6061 565
6062 565
6063 565
6064 565
6065 565
6066 565
6067 565
6068 565
6069 565
6070 566
6071 566
6072 566
6073 566
6074 566
6075 566
6076 566
6077 566
6078 566
6079 566
6080 268
6081 268
6082 268
6083 268
6084 268
6085 268
6086 268
6087 268
6088 268
6089 268
6090 567
6091 567
6092 567
6093 567
6094 567
6095 567
6096 567
6097 567
6098 567
6099 567
6100 568
6101 568
6102 568
6103 568
6104 568
6105 568
6106 568
6107 568
6108 568
6109 568
6110 569
6111 569
6112 569
6113 569
6114 569
6115 569
6116 569
6117 569
6118 569
6119 569
6120 511
6121 511
6122 511
6123 511
6124 511
6125 511
6126 511
6127 511
6128 511
6129 511
6130 570
6131 570
6132 570
6133 570
6134 570
6135 570
6136 570
6137 570
6138 570
6139 570
6140 571
6141 571
6142 571
6143 571
6144 571
6145 571
6146 571
6147 571
6148 571
6149 571
6150 572
6151 572
6152 572
6153 572
6154 572
6155 572
6156 572
6157 572
6158 572
6159 572
6160 573
6161 573
6162 573
6163 573
6164 573
6165 573
6166 573
6167 573
6168 573
6169 573
6170 574
6171 574
6172 574
6173 574
6174 574
6175 574
6176 574
6177 574
6178 574
6179 574
6180 575
6181 575
6182 575
6183 575
6184 575
6185 575
6186 575
6187 575
6188 575
6189 575
6190 576
6191 576
6192 576
6193 576
6194 576
6195 576
6196 576
6197 576
6198 576
6199 576
6200 577
6201 577
6202 577
6203 577
6204 577
6205 577
6206 577
6207 577
6208 577
6209 577
6210 578
6211 578
6212 578
6213 578
6214 578
6215 578
6216 578
6217 578
6218 578
6219 578
6220 579
6221 579
6222 579
6223 579
6224 579
6225 579
6226 579
6227 579
6228 579
6229 579
6230 271
6231 271
6232 271
6233 271
6234 271
6235 271
6236 271
6237 271
6238 271
6239 271
6240 580
6241 580
6242 580
6243 580
6244 580
6245 580
6246 580
6247 580
6248 580
6249 580
6250 581
6251 581
6252 581
6253 581
6254 581
6255 581
6256 581
6257 581
6258 581
6259 581
6260 582
6261 582
6262 582
6263 582
6264 582
6265 582
6266 582
6267 582
6268 582
6269 582
6270 583
6271 583
6272 583
6273 583
6274 583
6275 583
6276 583
6277 583
6278 583
6279 583
6280 584
6281 584
6282 584
6283 584
6284 584
6285 584
6286 584
6287 584
6288 584
6289 584
6290 585
6291 585
6292 585
6293 585
6294 585
6295 585
6296 585
6297 585
6298 585
6299 585
6300 586
6301 586
6302 586
6303 586
6304 586
6305 586
6306 586
6307 586
6308 586
6309 586
6310 587
6311 587
6312 587
6313 587
6314 587
6315 587
6316 587
6317 587
6318 587
6319 587
6320 588
6321 588
6322 588
6323 588
6324 588
6325 588
6326 588
6327 588
6328 588
6329 588
6330 532
6331 532
6332 532
6333 532
6334 532
6335 532
6336 532
6337 532
6338 532
6339 532
6340 589
6341 589
6342 589
6343 589
6344 589
6345 589
6346 589
6347 589
6348 589
6349 589
6350 590
6351 590
6352 590
6353 590
6354 590
6355 590
6356 590
6357 590
6358 590
6359 590
6360 290
6361 290
6362 290
6363 290
6364 290
6365 290
6366 290
6367 290
6368 290
6369 290
6370 591
6371 591
6372 591
6373 591
6374 591
6375 591
6376 591
6377 591
6378 591
6379 591
6380 592
6381 592
6382 592
6383 592
6384 592
6385 592
6386 592
6387 592
6388 592
6389 592
6390 593
6391 593
6392 593
6393 593
6394 593
6395 593
6396 593
6397 593
6398 593
6399 593
6400 122
6401 122
6402 122
6403 122
6404 122
6405 122
6406 122
6407 122
6408 122
6409 122
6410 594
6411 594
6412 594
6413 594
6414 594
6415 594
6416 594
6417 594
6418 594
6419 594
6420 595
6421 595
6422 595
6423 595
6424 595
6425 595
6426 595
6427 595
6428 595
6429 595
6430 118
6431 118
6432 118
6433 118
6434 118
6435 118
6436 118
6437 118
6438 118
6439 118
6440 4
6441 4
6442 4
6443 4
6444 4
6445 4
6446 4
6447 4
6448 4
6449 4
6450 596
6451 596
6452 596
6453 596
6454 596
6455 596
6456 596
6457 596
6458 596
6459 596
6460 597
6461 597
6462 597
6463 597
6464 597
6465 597
6466 597
6467 597
6468 597
6469 597
6470 598
6471 598
6472 598
6473 598
6474 598
6475 598
6476 598
6477 598
6478 598
6479 598
6480 599
6481 599
6482 599
6483 599
6484 599
6485 599
6486 599
6487 599
6488 599
6489 599
6490 600
6491 600
6492 600
6493 600
6494 600
6495 600
6496 600
6497 600
6498 600
6499 600
6500 601
6501 601
6502 601
6503 601
6504 601
6505 601
6506 601
6507 601
6508 601
6509 601
6510 602
6511 602
6512 602
6513 602
6514 602
6515 602
6516 602
6517 602
6518 602
6519 602
6520 603
6521 603
6522 603
6523 603
6524 603
6525 603
6526 603
6527 603
6528 603
6529 603
6530 604
6531 604
6532 604
6533 604
6534 604
6535 604
6536 604
6537 604
6538 604
6539 604
6540 111
6541 111
6542 111
6543 111
6544 111
6545 111
6546 111
6547 111
6548 111
6549 111
6550 324
6551 324
6552 324
6553 324
6554 324
6555 324
6556 324
6557 324
6558 324
6559 324
6560 605
6561 605
6562 605
6563 605
6564 605
6565 605
6566 605
6567 605
6568 605
6569 605
6570 606
6571 606
6572 606
6573 606
6574 606
6575 606
6576 606
6577 606
6578 606
6579 606
6580 607
6581 607
6582 607
6583 607
6584 607
6585 607
6586 607
6587 607
6588 607
6589 607
6590 608
6591 608
6592 608
6593 608
6594 608
6595 608
6596 608
6597 608
6598 608
6599 608
6600 609
6601 609
6602 609
6603 609
6604 609
6605 609
6606 609
6607 609
6608 609
6609 609
6610 610
6611 610
6612 610
6613 610
6614 610
6615 610
6616 610
6617 610
6618 610
6619 610
6620 611
6621 611
6622 611
6623 611
6624 611
6625 611
6626 611
6627 611
6628 611
6629 611
6630 612
6631 612
6632 612
6633 612
6634 612
6635 612
6636 612
6637 612
6638 612
6639 612
6640 582
6641 582
6642 582
6643 582
6644 582
6645 582
6646 582
6647 582
6648 582
6649 582
6650 613
6651 613
6652 613
6653 613
6654 613
6655 613
6656 613
6657 613
6658 613
6659 613
6660 614
6661 614
6662 614
6663 614
6664 614
6665 614
6666 614
6667 614
6668 614
6669 614
6670 615
6671 615
6672 615
6673 615
6674 615
6675 615
6676 615
6677 615
6678 615
6679 615
6680 616
6681 616
6682 616
6683 616
6684 616
6685 616
6686 616
6687 616
6688 616
6689 616
6690 617
6691 617
6692 617
6693 617
6694 617
6695 617
6696 617
6697 617
6698 617
6699 617
6700 618
6701 618
6702 618
6703 618
6704 618
6705 618
6706 618
6707 618
6708 618
6709 618
6710 460
6711 460
6712 460
6713 460
6714 460
6715 460
6716 460
6717 460
6718 460
6719 460
6720 619
6721 619
6722 619
6723 619
6724 619
6725 619
6726 619
6727 619
6728 619
6729 619
6730 620
6731 620
6732 620
6733 620
6734 620
6735 620
6736 620
6737 620
6738 620
6739 620
6740 621
6741 621
6742 621
6743 621
6744 621
6745 621
6746 621
6747 621
6748 621
6749 621
6750 622
6751 622
6752 622
6753 622
6754 622
6755 622
6756 622
6757 622
6758 622
6759 622
6760 623
6761 623
6762 623
6763 623
6764 623
6765 623
6766 623
6767 623
6768 623
6769 623
6770 624
6771 624
6772 624
6773 624
6774 624
6775 624
6776 624
6777 624
6778 624
6779 624
6780 625
6781 625
6782 625
6783 625
6784 625
6785 625
6786 625
6787 625
6788 625
6789 625
6790 626
6791 626
6792 626
6793 626
6794 626
6795 626
6796 626
6797 626
6798 626
6799 626
6800 627
6801 627
6802 627
6803 627
6804 627
6805 627
6806 627
6807 627
6808 627
6809 627
6810 628
6811 628
6812 628
6813 628
6814 628
6815 628
6816 628
6817 628
6818 628
6819 628
6820 629
6821 629
6822 629
6823 629
6824 629
6825 629
6826 629
6827 629
6828 629
6829 629
6830 319
6831 319
6832 319
6833 319
6834 319
6835 319
6836 319
6837 319
6838 319
6839 319
6840 630
6841 630
6842 630
6843 630
6844 630
6845 630
6846 630
6847 630
6848 630
6849 630
6850 631
6851 631
6852 631
6853 631
6854 631
6855 631
6856 631
6857 631
6858 631
6859 631
6860 632
6861 632
6862 632
6863 632
6864 632
6865 632
6866 632
6867 632
6868 632
6869 632
6870 633
6871 633
6872 633
6873 633
6874 633
6875 633
6876 633
6877 633
6878 633
6879 633
6880 634
6881 634
6882 634
6883 634
6884 634
6885 634
6886 634
6887 634
6888 634
6889 634
6890 228
6891 228
6892 228
6893 228
6894 228
6895 228
6896 228
6897 228
6898 228
6899 228
6900 635
6901 635
6902 635
6903 635
6904 635
6905 635
6906 635
6907 635
6908 635
6909 635
6910 636
6911 636
6912 636
6913 636
6914 636
6915 636
6916 636
6917 636
6918 636
6919 636
6920 637
6921 637
6922 637
6923 637
6924 637
6925 637
6926 637
6927 637
6928 637
6929 637
6930 638
6931 638
6932 638
6933 638
6934 638
6935 638
6936 638
6937 638
6938 638
6939 638
6940 639
6941 639
6942 639
6943 639
6944 639
6945 639
6946 639
6947 639
6948 639
6949 639
6950 640
6951 640
6952 640
6953 640
6954 640
6955 640
6956 640
6957 640
6958 640
6959 640
6960 509
6961 509
6962 509
6963 509
6964 509
6965 509
6966 509
6967 509
6968 509
6969 509
6970 641
6971 641
6972 641
6973 641
6974 641
6975 641
6976 641
6977 641
6978 641
6979 641
6980 259
6981 259
6982 259
6983 259
6984 259
6985 259
6986 259
6987 259
6988 259
6989 259
6990 642
6991 642
6992 642
6993 642
6994 642
6995 642
6996 642
6997 642
6998 642
6999 642
7000 230
7001 230
7002 230
7003 230
7004 230
7005 230
7006 230
7007 230
7008 230
7009 230
7010 643
7011 643
7012 643
7013 643
7014 643
7015 643
7016 643
7017 643
7018 643
7019 643
7020 644
7021 644
7022 644
7023 644
7024 644
7025 644
7026 644
7027 644
7028 644
7029 644
7030 345
7031 345
7032 345
7033 345
7034 345
7035 345
7036 345
7037 345
7038 345
7039 345
7040 392
7041 392
7042 392
7043 392
7044 392
7045 392
7046 392
7047 392
7048 392
7049 392
7050 645
7051 645
7052 645
7053 645
7054 645
7055 645
7056 645
7057 645
7058 645
7059 645
7060 507
7061 507
7062 507
7063 507
7064 507
7065 507
7066 507
7067 507
7068 507
7069 507
7070 646
7071 646
7072 646
7073 646
7074 646
7075 646
7076 646
7077 646
7078 646
7079 646
7080 647
7081 647
7082 647
7083 647
7084 647
7085 647
7086 647
7087 647
7088 647
7089 647
7090 648
7091 648
7092 648
7093 648
7094 648
7095 648
7096 648
7097 648
7098 648
7099 648
7100 649
7101 649
7102 649
7103 649
7104 649
7105 649
7106 649
7107 649
7108 649
7109 649
7110 650
7111 650
7112 650
7113 650
7114 650
7115 650
7116 650
7117 650
7118 650
7119 650
7120 437
7121 437
7122 437
7123 437
7124 437
7125 437
7126 437
7127 437
7128 437
7129 437
7130 651
7131 651
7132 651
7133 651
7134 651
7135 651
7136 651
7137 651
7138 651
7139 651
7140 652
7141 652
7142 652
7143 652
7144 652
7145 652
7146 652
7147 652
7148 652
7149 652
7150 653
7151 653
7152 653
7153 653
7154 653
7155 653
7156 653
7157 653
7158 653
7159 653
7160 654
7161 654
7162 654
7163 654
7164 654
7165 654
7166 654
7167 654
7168 654
7169 654
7170 655
7171 655
7172 655
7173 655
7174 655
7175 655
7176 655
7177 655
7178 655
7179 655
7180 656
7181 656
7182 656
7183 656
7184 656
7185 656
7186 656
7187 656
7188 656
7189 656
7190 657
7191 657
7192 657
7193 657
7194 657
7195 657
7196 657
7197 657
7198 657
7199 657
7200 658
7201 658
7202 658
7203 658
7204 658
7205 658
7206 658
7207 658
7208 658
7209 658
7210 659
7211 659
7212 659
7213 659
7214 659
7215 659
7216 659
7217 659
7218 659
7219 659
7220 660
7221 660
7222 660
7223 660
7224 660
7225 660
7226 660
7227 660
7228 660
7229 660
7230 661
7231 661
7232 661
7233 661
7234 661
7235 661
7236 661
7237 661
7238 661
7239 661
7240 662
7241 662
7242 662
7243 662
7244 662
7245 662
7246 662
7247 662
7248 662
7249 662
7250 136
7251 136
7252 136
7253 136
7254 136
7255 136
7256 136
7257 136
7258 136
7259 136
7260 663
7261 663
7262 663
7263 663
7264 663
7265 663
7266 663
7267 663
7268 663
7269 663
7270 664
7271 664
7272 664
7273 664
7274 664
7275 664
7276 664
7277 664
7278 664
7279 664
7280 90
7281 90
7282 90
7283 90
7284 90
7285 90
7286 90
7287 90
7288 90
7289 90
7290 665
7291 665
7292 665
7293 665
7294 665
7295 665
7296 665
7297 665
7298 665
7299 665
7300 666
7301 666
7302 666
7303 666
7304 666
7305 666
7306 666
7307 666
7308 666
7309 666
7310 667
7311 667
7312 667
7313 667
7314 667
7315 667
7316 667
7317 667
7318 667
7319 667
7320 328
7321 328
7322 328
7323 328
7324 328
7325 328
7326 328
7327 328
7328 328
7329 328
7330 668
7331 668
7332 668
7333 668
7334 668
7335 668
7336 668
7337 668
7338 668
7339 668
7340 669
7341 669
7342 669
7343 669
7344 669
7345 669
7346 669
7347 669
7348 669
7349 669
7350 670
7351 670
7352 670
7353 670
7354 670
7355 670
7356 670
7357 670
7358 670
7359 670
7360 137
7361 137
7362 137
7363 137
7364 137
7365 137
7366 137
7367 137
7368 137
7369 137
7370 671
7371 671
7372 671
7373 671
7374 671
7375 671
7376 671
7377 671
7378 671
7379 671
7380 672
7381 672
7382 672
7383 672
7384 672
7385 672
7386 672
7387 672
7388 672
7389 672
7390 673
7391 673
7392 673
7393 673
7394 673
7395 673
7396 673
7397 673
7398 673
7399 673
7400 674
7401 674
7402 674
7403 674
7404 674
7405 674
7406 674
7407 674
7408 674
7409 674
7410 675
7411 675
7412 675
7413 675
7414 675
7415 675
7416 675
7417 675
7418 675
7419 675
7420 386
7421 386
7422 386
7423 386
7424 386
7425 386
7426 386
7427 386
7428 386
7429 386
7430 676
7431 676
7432 676
7433 676
7434 676
7435 676
7436 676
7437 676
7438 676
7439 676
7440 677
7441 677
7442 677
7443 677
7444 677
7445 677
7446 677
7447 677
7448 677
7449 677
7450 565
7451 565
7452 565
7453 565
7454 565
7455 565
7456 565
7457 565
7458 565
7459 565
7460 678
7461 678
7462 678
7463 678
7464 678
7465 678
7466 678
7467 678
7468 678
7469 678
7470 679
7471 679
7472 679
7473 679
7474 679
7475 679
7476 679
7477 679
7478 679
7479 679
7480 25
7481 25
7482 25
7483 25
7484 25
7485 25
7486 25
7487 25
7488 25
7489 25
7490 680
7491 680
7492 680
7493 680
7494 680
7495 680
7496 680
7497 680
7498 680
7499 680
7500 138
7501 138
7502 138
7503 138
7504 138
7505 138
7506 138
7507 138
7508 138
7509 138
7510 681
7511 681
7512 681
7513 681
7514 681
7515 681
7516 681
7517 681
7518 681
7519 681
7520 600
7521 600
7522 600
7523 600
7524 600
7525 600
7526 600
7527 600
7528 600
7529 600
7530 594
7531 594
7532 594
7533 594
7534 594
7535 594
7536 594
7537 594
7538 594
7539 594
7540 682
7541 682
7542 682
7543 682
7544 682
7545 682
7546 682
7547 682
7548 682
7549 682
7550 683
7551 683
7552 683
7553 683
7554 683
7555 683
7556 683
7557 683
7558 683
7559 683
7560 684
7561 684
7562 684
7563 684
7564 684
7565 684
7566 684
7567 684
7568 684
7569 684
7570 685
7571 685
7572 685
7573 685
7574 685
7575 685
7576 685
7577 685
7578 685
7579 685
7580 645
7581 645
7582 645
7583 645
7584 645
7585 645
7586 645
7587 645
7588 645
7589 645
7590 686
7591 686
7592 686
7593 686
7594 686
7595 686
7596 686
7597 686
7598 686
7599 686
7600 687
7601 687
7602 687
7603 687
7604 687
7605 687
7606 687
7607 687
7608 687
7609 687
7610 688
7611 688
7612 688
7613 688
7614 688
7615 688
7616 688
7617 688
7618 688
7619 688
7620 689
7621 689
7622 689
7623 689
7624 689
7625 689
7626 689
7627 689
7628 689
7629 689
7630 690
7631 690
7632 690
7633 690
7634 690
7635 690
7636 690
7637 690
7638 690
7639 690
7640 691
7641 691
7642 691
7643 691
7644 691
7645 691
7646 691
7647 691
7648 691
7649 691
7650 692
7651 692
7652 692
7653 692
7654 692
7655 692
7656 692
7657 692
7658 692
7659 692
7660 426
7661 426
7662 426
7663 426
7664 426
7665 426
7666 426
7667 426
7668 426
7669 426
7670 392
7671 392
7672 392
7673 392
7674 392
7675 392
7676 392
7677 392
7678 392
7679 392
7680 693
7681 693
7682 693
7683 693
7684 693
7685 693
7686 693
7687 693
7688 693
7689 693
7690 694
7691 694
7692 694
7693 694
7694 694
7695 694
7696 694
7697 694
7698 694
7699 694
7700 695
7701 695
7702 695
7703 695
7704 695
7705 695
7706 695
7707 695
7708 695
7709 695
7710 696
7711 696
7712 696
7713 696
7714 696
7715 696
7716 696
7717 696
7718 696
7719 696
7720 697
7721 697
7722 697
7723 697
7724 697
7725 697
7726 697
7727 697
7728 697
7729 697
7730 340
7731 340
7732 340
7733 340
7734 340
7735 340
7736 340
7737 340
7738 340
7739 340
7740 698
7741 698
7742 698
7743 698
7744 698
7745 698
7746 698
7747 698
7748 698
7749 698
7750 699
7751 699
7752 699
7753 699
7754 699
7755 699
7756 699
7757 699
7758 699
7759 699
7760 700
7761 700
7762 700
7763 700
7764 700
7765 700
7766 700
7767 700
7768 700
7769 700
7770 701
7771 701
7772 701
7773 701
7774 701
7775 701
7776 701
7777 701
7778 701
7779 701
7780 702
7781 702
7782 702
7783 702
7784 702
7785 702
7786 702
7787 702
7788 702
7789 702
7790 703
7791 703
7792 703
7793 703
7794 703
7795 703
7796 703
7797 703
7798 703
7799 703
7800 704
7801 704
7802 704
7803 704
7804 704
7805 704
7806 704
7807 704
7808 704
7809 704
7810 705
7811 705
7812 705
7813 705
7814 705
7815 705
7816 705
7817 705
7818 705
7819 705
7820 706
7821 706
7822 706
7823 706
7824 706
7825 706
7826 706
7827 706
7828 706
7829 706
7830 707
7831 707
7832 707
7833 707
7834 707
7835 707
7836 707
7837 707
7838 707
7839 707
7840 623
7841 623
7842 623
7843 623
7844 623
7845 623
7846 623
7847 623
7848 623
7849 623
7850 708
7851 708
7852 708
7853 708
7854 708
7855 708
7856 708
7857 708
7858 708
7859 708
7860 709
7861 709
7862 709
7863 709
7864 709
7865 709
7866 709
7867 709
7868 709
7869 709
7870 710
7871 710
7872 710
7873 710
7874 710
7875 710
7876 710
7877 710
7878 710
7879 710
7880 711
7881 711
7882 711
7883 711
7884 711
7885 711
7886 711
7887 711
7888 711
7889 711
7890 712
7891 712
7892 712
7893 712
7894 712
7895 712
7896 712
7897 712
7898 712
7899 712
7900 713
7901 713
7902 713
7903 713
7904 713
7905 713
7906 713
7907 713
7908 713
7909 713
7910 410
7911 410
7912 410
7913 410
7914 410
7915 410
7916 410
7917 410
7918 410
7919 410
7920 714
7921 714
7922 714
7923 714
7924 714
7925 714
7926 714
7927 714
7928 714
7929 714
7930 715
7931 715
7932 715
7933 715
7934 715
7935 715
7936 715
7937 715
7938 715
7939 715
7940 246
7941 246
7942 246
7943 246
7944 246
7945 246
7946 246
7947 246
7948 246
7949 246
7950 716
7951 716
7952 716
7953 716
7954 716
7955 716
7956 716
7957 716
7958 716
7959 716
7960 717
7961 717
7962 717
7963 717
7964 717
7965 717
7966 717
7967 717
7968 717
7969 717
7970 718
7971 718
7972 718
7973 718
7974 718
7975 718
7976 718
7977 718
7978 718
7979 718
7980 719
7981 719
7982 719
7983 719
7984 719
7985 719
7986 719
7987 719
7988 719
7989 719
7990 720
7991 720
7992 720
7993 720
7994 720
7995 720
7996 720
7997 720
7998 720
7999 720
8000 119
8001 119
8002 119
8003 119
8004 119
8005 119
8006 119
8007 119
8008 119
8009 119
8010 721
8011 721
8012 721
8013 721
8014 721
8015 721
8016 721
8017 721
8018 721
8019 721
8020 329
8021 329
8022 329
8023 329
8024 329
8025 329
8026 329
8027 329
8028 329
8029 329
8030 722
8031 722
8032 722
8033 722
8034 722
8035 722
8036 722
8037 722
8038 722
8039 722
8040 723
8041 723
8042 723
8043 723
8044 723
8045 723
8046 723
8047 723
8048 723
8049 723
8050 724
8051 724
8052 724
8053 724
8054 724
8055 724
8056 724
8057 724
8058 724
8059 724
8060 725
8061 725
8062 725
8063 725
8064 725
8065 725
8066 725
8067 725
8068 725
8069 725
8070 726
8071 726
8072 726
8073 726
8074 726
8075 726
8076 726
8077 726
8078 726
8079 726
8080 727
8081 727
8082 727
8083 727
8084 727
8085 727
8086 727
8087 727
8088 727
8089 727
8090 728
8091 728
8092 728
8093 728
8094 728
8095 728
8096 728
8097 728
8098 728
8099 728
8100 729
8101 729
8102 729
8103 729
8104 729
8105 729
8106 729
8107 729
8108 729
8109 729
8110 730
8111 730
8112 730
8113 730
8114 730
8115 730
8116 730
8117 730
8118 730
8119 730
8120 731
8121 731
8122 731
8123 731
8124 731
8125 731
8126 731
8127 731
8128 731
8129 731
8130 356
8131 356
8132 356
8133 356
8134 356
8135 356
8136 356
8137 356
8138 356
8139 356
8140 732
8141 732
8142 732
8143 732
8144 732
8145 732
8146 732
8147 732
8148 732
8149 732
8150 733
8151 733
8152 733
8153 733
8154 733
8155 733
8156 733
8157 733
8158 733
8159 733
8160 734
8161 734
8162 734
8163 734
8164 734
8165 734
8166 734
8167 734
8168 734
8169 734
8170 735
8171 735
8172 735
8173 735
8174 735
8175 735
8176 735
8177 735
8178 735
8179 735
8180 659
8181 659
8182 659
8183 659
8184 659
8185 659
8186 659
8187 659
8188 659
8189 659
8190 591
8191 591
8192 591
8193 591
8194 591
8195 591
8196 591
8197 591
8198 591
8199 591
8200 736
8201 736
8202 736
8203 736
8204 736
8205 736
8206 736
8207 736
8208 736
8209 736
8210 737
8211 737
8212 737
8213 737
8214 737
8215 737
8216 737
8217 737
8218 737
8219 737
8220 738
8221 738
8222 738
8223 738
8224 738
8225 738
8226 738
8227 738
8228 738
8229 738
8230 99
8231 99
8232 99
8233 99
8234 99
8235 99
8236 99
8237 99
8238 99
8239 99
8240 739
8241 739
8242 739
8243 739
8244 739
8245 739
8246 739
8247 739
8248 739
8249 739
8250 740
8251 740
8252 740
8253 740
8254 740
8255 740
8256 740
8257 740
8258 740
8259 740
8260 741
8261 741
8262 741
8263 741
8264 741
8265 741
8266 741
8267 741
8268 741
8269 741
8270 742
8271 742
8272 742
8273 742
8274 742
8275 742
8276 742
8277 742
8278 742
8279 742
8280 743
8281 743
8282 743
8283 743
8284 743
8285 743
8286 743
8287 743
8288 743
8289 743
8290 744
8291 744
8292 744
8293 744
8294 744
8295 744
8296 744
8297 744
8298 744
8299 744
8300 745
8301 745
8302 745
8303 745
8304 745
8305 745
8306 745
8307 745
8308 745
8309 745
8310 50
8311 50
8312 50
8313 50
8314 50
8315 50
8316 50
8317 50
8318 50
8319 50
8320 746
8321 746
8322 746
8323 746
8324 746
8325 746
8326 746
8327 746
8328 746
8329 746
8330 489
8331 489
8332 489
8333 489
8334 489
8335 489
8336 489
8337 489
8338 489
8339 489
8340 747
8341 747
8342 747
8343 747
8344 747
8345 747
8346 747
8347 747
8348 747
8349 747
8350 748
8351 748
8352 748
8353 748
8354 748
8355 748
8356 748
8357 748
8358 748
8359 748
8360 749
8361 749
8362 749
8363 749
8364 749
8365 749
8366 749
8367 749
8368 749
8369 749
8370 750
8371 750
8372 750
8373 750
8374 750
8375 750
8376 750
8377 750
8378 750
8379 750
8380 171
8381 171
8382 171
8383 171
8384 171
8385 171
8386 171
8387 171
8388 171
8389 171
8390 751
8391 751
8392 751
8393 751
8394 751
8395 751
8396 751
8397 751
8398 751
8399 751
8400 161
8401 161
8402 161
8403 161
8404 161
8405 161
8406 161
8407 161
8408 161
8409 161
8410 752
8411 752
8412 752
8413 752
8414 752
8415 752
8416 752
8417 752
8418 752
8419 752
8420 753
8421 753
8422 753
8423 753
8424 753
8425 753
8426 753
8427 753
8428 753
8429 753
8430 754
8431 754
8432 754
8433 754
8434 754
8435 754
8436 754
8437 754
8438 754
8439 754
8440 755
8441 755
8442 755
8443 755
8444 755
8445 755
8446 755
8447 755
8448 755
8449 755
8450 379
8451 379
8452 379
8453 379
8454 379
8455 379
8456 379
8457 379
8458 379
8459 379
8460 73
8461 73
8462 73
8463 73
8464 73
8465 73
8466 73
8467 73
8468 73
8469 73
8470 756
8471 756
8472 756
8473 756
8474 756
8475 756
8476 756
8477 756
8478 756
8479 756
8480 698
8481 698
8482 698
8483 698
8484 698
8485 698
8486 698
8487 698
8488 698
8489 698
8490 97
8491 97
8492 97
8493 97
8494 97
8495 97
8496 97
8497 97
8498 97
8499 97
8500 757
8501 757
8502 757
8503 757
8504 757
8505 757
8506 757
8507 757
8508 757
8509 757
8510 758
8511 758
8512 758
8513 758
8514 758
8515 758
8516 758
8517 758
8518 758
8519 758
8520 759
8521 759
8522 759
8523 759
8524 759
8525 759
8526 759
8527 759
8528 759
8529 759
8530 760
8531 760
8532 760
8533 760
8534 760
8535 760
8536 760
8537 760
8538 760
8539 760
8540 761
8541 761
8542 761
8543 761
8544 761
8545 761
8546 761
8547 761
8548 761
8549 761
8550 762
8551 762
8552 762
8553 762
8554 762
8555 762
8556 762
8557 762
8558 762
8559 762
8560 615
8561 615
8562 615
8563 615
8564 615
8565 615
8566 615
8567 615
8568 615
8569 615
8570 623
8571 623
8572 623
8573 623
8574 623
8575 623
8576 623
8577 623
8578 623
8579 623
8580 763
8581 763
8582 763
8583 763
8584 763
8585 763
8586 763
8587 763
8588 763
8589 763
8590 609
8591 609
8592 609
8593 609
8594 609
8595 609
8596 609
8597 609
8598 609
8599 609
8600 663
8601 663
8602 663
8603 663
8604 663
8605 663
8606 663
8607 663
8608 663
8609 663
8610 764
8611 764
8612 764
8613 764
8614 764
8615 764
8616 764
8617 764
8618 764
8619 764
8620 765
8621 765
8622 765
8623 765
8624 765
8625 765
8626 765
8627 765
8628 765
8629 765
8630 766
8631 766
8632 766
8633 766
8634 766
8635 766
8636 766
8637 766
8638 766
8639 766
8640 767
8641 767
8642 767
8643 767
8644 767
8645 767
8646 767
8647 767
8648 767
8649 767
8650 768
8651 768
8652 768
8653 768
8654 768
8655 768
8656 768
8657 768
8658 768
8659 768
8660 769
8661 769
8662 769
8663 769
8664 769
8665 769
8666 769
8667 769
8668 769
8669 769
8670 770
8671 770
8672 770
8673 770
8674 770
8675 770
8676 770
8677 770
8678 770
8679 770
8680 771
8681 771
8682 771
8683 771
8684 771
8685 771
8686 771
8687 771
8688 771
8689 771
8690 535
8691 535
8692 535
8693 535
8694 535
8695 535
8696 535
8697 535
8698 535
8699 535
8700 772
8701 772
8702 772
8703 772
8704 772
8705 772
8706 772
8707 772
8708 772
8709 772
8710 773
8711 773
8712 773
8713 773
8714 773
8715 773
8716 773
8717 773
8718 773
8719 773
8720 240
8721 240
8722 240
8723 240
8724 240
8725 240
8726 240
8727 240
8728 240
8729 240
8730 774
8731 774
8732 774
8733 774
8734 774
8735 774
8736 774
8737 774
8738 774
8739 774
8740 775
8741 775
8742 775
8743 775
8744 775
8745 775
8746 775
8747 775
8748 775
8749 775
8750 776
8751 776
8752 776
8753 776
8754 776
8755 776
8756 776
8757 776
8758 776
8759 776
8760 777
8761 777
8762 777
8763 777
8764 777
8765 777
8766 777
8767 777
8768 777
8769 777
8770 778
8771 778
8772 778
8773 778
8774 778
8775 778
8776 778
8777 778
8778 778
8779 778
8780 779
8781 779
8782 779
8783 779
8784 779
8785 779
8786 779
8787 779
8788 779
8789 779
8790 780
8791 780
8792 780
8793 780
8794 780
8795 780
8796 780
8797 780
8798 780
8799 780
8800 781
8801 781
8802 781
8803 781
8804 781
8805 781
8806 781
8807 781
8808 781
8809 781
8810 782
8811 782
8812 782
8813 782
8814 782
8815 782
8816 782
8817 782
8818 782
8819 782
8820 783
8821 783
8822 783
8823 783
8824 783
8825 783
8826 783
8827 783
8828 783
8829 783
8830 784
8831 784
8832 784
8833 784
8834 784
8835 784
8836 784
8837 784
8838 784
8839 784
8840 785
8841 785
8842 785
8843 785
8844 785
8845 785
8846 785
8847 785
8848 785
8849 785
8850 403
8851 403
8852 403
8853 403
8854 403
8855 403
8856 403
8857 403
8858 403
8859 403
8860 786
8861 786
8862 786
8863 786
8864 786
8865 786
8866 786
8867 786
8868 786
8869 786
8870 692
8871 692
8872 692
8873 692
8874 692
8875 692
8876 692
8877 692
8878 692
8879 692
8880 787
8881 787
8882 787
8883 787
8884 787
8885 787
8886 787
8887 787
8888 787
8889 787
8890 788
8891 788
8892 788
8893 788
8894 788
8895 788
8896 788
8897 788
8898 788
8899 788
8900 530
8901 530
8902 530
8903 530
8904 530
8905 530
8906 530
8907 530
8908 530
8909 530
8910 114
8911 114
8912 114
8913 114
8914 114
8915 114
8916 114
8917 114
8918 114
8919 114
8920 789
8921 789
8922 789
8923 789
8924 789
8925 789
8926 789
8927 789
8928 789
8929 789
8930 790
8931 790
8932 790
8933 790
8934 790
8935 790
8936 790
8937 790
8938 790
8939 790
8940 791
8941 791
8942 791
8943 791
8944 791
8945 791
8946 791
8947 791
8948 791
8949 791
8950 792
8951 792
8952 792
8953 792
8954 792
8955 792
8956 792
8957 792
8958 792
8959 792
8960 793
8961 793
8962 793
8963 793
8964 793
8965 793
8966 793
8967 793
8968 793
8969 793
8970 737
8971 737
8972 737
8973 737
8974 737
8975 737
8976 737
8977 737
8978 737
8979 737
8980 794
8981 794
8982 794
8983 794
8984 794
8985 794
8986 794
8987 794
8988 794
8989 794
8990 795
8991 795
8992 795
8993 795
8994 795
8995 795
8996 795
8997 795
8998 795
8999 795
9000 796
9001 796
9002 796
9003 796
9004 796
9005 796
9006 796
9007 796
9008 796
9009 796
9010 797
9011 797
9012 797
9013 797
9014 797
9015 797
9016 797
9017 797
9018 797
9019 797
9020 798
9021 798
9022 798
9023 798
9024 798
9025 798
9026 798
9027 798
9028 798
9029 798
9030 133
9031 133
9032 133
9033 133
9034 133
9035 133
9036 133
9037 133
9038 133
9039 133
9040 799
9041 799
9042 799
9043 799
9044 799
9045 799
9046 799
9047 799
9048 799
9049 799
9050 800
9051 800
9052 800
9053 800
9054 800
9055 800
9056 800
9057 800
9058 800
9059 800
9060 801
9061 801
9062 801
9063 801
9064 801
9065 801
9066 801
9067 801
9068 801
9069 801
9070 802
9071 802
9072 802
9073 802
9074 802
9075 802
9076 802
9077 802
9078 802
9079 802
9080 803
9081 803
9082 803
9083 803
9084 803
9085 803
9086 803
9087 803
9088 803
9089 803
9090 804
9091 804
9092 804
9093 804
9094 804
9095 804
9096 804
9097 804
9098 804
9099 804
9100 805
9101 805
9102 805
9103 805
9104 805
9105 805
9106 805
9107 805
9108 805
9109 805
9110 601
9111 601
9112 601
9113 601
9114 601
9115 601
9116 601
9117 601
9118 601
9119 601
9120 806
9121 806
9122 806
9123 806
9124 806
9125 806
9126 806
9127 806
9128 806
9129 806
9130 807
9131 807
9132 807
9133 807
9134 807
9135 807
9136 807
9137 807
9138 807
9139 807
9140 808
9141 808
9142 808
9143 808
9144 808
9145 808
9146 808
9147 808
9148 808
9149 808
9150 809
9151 809
9152 809
9153 809
9154 809
9155 809
9156 809
9157 809
9158 809
9159 809
9160 810
9161 810
9162 810
9163 810
9164 810
9165 810
9166 810
9167 810
9168 810
9169 810
9170 811
9171 811
9172 811
9173 811
9174 811
9175 811
9176 811
9177 811
9178 811
9179 811
9180 812
9181 812
9182 812
9183 812
9184 812
9185 812
9186 812
9187 812
9188 812
9189 812
9190 813
9191 813
9192 813
9193 813
9194 813
9195 813
9196 813
9197 813
9198 813
9199 813
9200 387
9201 387
9202 387
9203 387
9204 387
9205 387
9206 387
9207 387
9208 387
9209 387
9210 814
9211 814
9212 814
9213 814
9214 814
9215 814
9216 814
9217 814
9218 814
9219 814
9220 561
9221 561
9222 561
9223 561
9224 561
9225 561
9226 561
9227 561
9228 561
9229 561
9230 815
9231 815
9232 815
9233 815
9234 815
9235 815
9236 815
9237 815
9238 815
9239 815
9240 80
9241 80
9242 80
9243 80
9244 80
9245 80
9246 80
9247 80
9248 80
9249 80
9250 816
9251 816
9252 816
9253 816
9254 816
9255 816
9256 816
9257 816
9258 816
9259 816
9260 817
9261 817
9262 817
9263 817
9264 817
9265 817
9266 817
9267 817
9268 817
9269 817
9270 500
9271 500
9272 500
9273 500
9274 500
9275 500
9276 500
9277 500
9278 500
9279 500
9280 818
9281 818
9282 818
9283 818
9284 818
9285 818
9286 818
9287 818
9288 818
9289 818
9290 766
9291 766
9292 766
9293 766
9294 766
9295 766
9296 766
9297 766
9298 766
9299 766
9300 142
9301 142
9302 142
9303 142
9304 142
9305 142
9306 142
9307 142
9308 142
9309 142
9310 588
9311 588
9312 588
9313 588
9314 588
9315 588
9316 588
9317 588
9318 588
9319 588
9320 447
9321 447
9322 447
9323 447
9324 447
9325 447
9326 447
9327 447
9328 447
9329 447
9330 35
9331 35
9332 35
9333 35
9334 35
9335 35
9336 35
9337 35
9338 35
9339 35
9340 819
9341 819
9342 819
9343 819
9344 819
9345 819
9346 819
9347 819
9348 819
9349 819
9350 820
9351 820
9352 820
9353 820
9354 820
9355 820
9356 820
9357 820
9358 820
9359 820
9360 821
9361 821
9362 821
9363 821
9364 821
9365 821
9366 821
9367 821
9368 821
9369 821
9370 822
9371 822
9372 822
9373 822
9374 822
9375 822
9376 822
9377 822
9378 822
9379 822
9380 166
9381 166
9382 166
9383 166
9384 166
9385 166
9386 166
9387 166
9388 166
9389 166
9390 823
9391 823
9392 823
9393 823
9394 823
9395 823
9396 823
9397 823
9398 823
9399 823
9400 824
9401 824
9402 824
9403 824
9404 824
9405 824
9406 824
9407 824
9408 824
9409 824
9410 343
9411 343
9412 343
9413 343
9414 343
9415 343
9416 343
9417 343
9418 343
9419 343
9420 825
9421 825
9422 825
9423 825
9424 825
9425 825
9426 825
9427 825
9428 825
9429 825
9430 826
9431 826
9432 826
9433 826
9434 826
9435 826
9436 826
9437 826
9438 826
9439 826
9440 827
9441 827
9442 827
9443 827
9444 827
9445 827
9446 827
9447 827
9448 827
9449 827
9450 828
9451 828
9452 828
9453 828
9454 828
9455 828
9456 828
9457 828
9458 828
9459 828
9460 829
9461 829
9462 829
9463 829
9464 829
9465 829
9466 829
9467 829
9468 829
9469 829
9470 830
9471 830
9472 830
9473 830
9474 830
9475 830
9476 830
9477 830
9478 830
9479 830
9480 831
9481 831
9482 831
9483 831
9484 831
9485 831
9486 831
9487 831
9488 831
9489 831
9490 832
9491 832
9492 832
9493 832
9494 832
9495 832
9496 832
9497 832
9498 832
9499 832
9500 833
9501 833
9502 833
9503 833
9504 833
9505 833
9506 833
9507 833
9508 833
9509 833
9510 834
9511 834
9512 834
9513 834
9514 834
9515 834
9516 834
9517 834
9518 834
9519 834
9520 835
9521 835
9522 835
9523 835
9524 835
9525 835
9526 835
9527 835
9528 835
9529 835
9530 836
9531 836
9532 836
9533 836
9534 836
9535 836
9536 836
9537 836
9538 836
9539 836
9540 764
9541 764
9542 764
9543 764
9544 764
9545 764
9546 764
9547 764
9548 764
9549 764
9550 837
9551 837
9552 837
9553 837
9554 837
9555 837
9556 837
9557 837
9558 837
9559 837
9560 838
9561 838
9562 838
9563 838
9564 838
9565 838
9566 838
9567 838
9568 838
9569 838
9570 512
9571 512
9572 512
9573 512
9574 512
9575 512
9576 512
9577 512
9578 512
9579 512
9580 839
9581 839
9582 839
9583 839
9584 839
9585 839
9586 839
9587 839
9588 839
9589 839
9590 400
9591 400
9592 400
9593 400
9594 400
9595 400
9596 400
9597 400
9598 400
9599 400
9600 840
9601 840
9602 840
9603 840
9604 840
9605 840
9606 840
9607 840
9608 840
9609 840
9610 841
9611 841
9612 841
9613 841
9614 841
9615 841
9616 841
9617 841
9618 841
9619 841
9620 638
9621 638
9622 638
9623 638
9624 638
9625 638
9626 638
9627 638
9628 638
9629 638
9630 842
9631 842
9632 842
9633 842
9634 842
9635 842
9636 842
9637 842
9638 842
9639 842
9640 843
9641 843
9642 843
9643 843
9644 843
9645 843
9646 843
9647 843
9648 843
9649 843
9650 844
9651 844
9652 844
9653 844
9654 844
9655 844
9656 844
9657 844
9658 844
9659 844
9660 412
9661 412
9662 412
9663 412
9664 412
9665 412
9666 412
9667 412
9668 412
9669 412
9670 82
9671 82
9672 82
9673 82
9674 82
9675 82
9676 82
9677 82
9678 82
9679 82
9680 744
9681 744
9682 744
9683 744
9684 744
9685 744
9686 744
9687 744
9688 744
9689 744
9690 845
9691 845
9692 845
9693 845
9694 845
9695 845
9696 845
9697 845
9698 845
9699 845
9700 846
9701 846
9702 846
9703 846
9704 846
9705 846
9706 846
9707 846
9708 846
9709 846
9710 596
9711 596
9712 596
9713 596
9714 596
9715 596
9716 596
9717 596
9718 596
9719 596
9720 463
9721 463
9722 463
9723 463
9724 463
9725 463
9726 463
9727 463
9728 463
9729 463
9730 847
9731 847
9732 847
9733 847
9734 847
9735 847
9736 847
9737 847
9738 847
9739 847
9740 848
9741 848
9742 848
9743 848
9744 848
9745 848
9746 848
9747 848
9748 848
9749 848
9750 849
9751 849
9752 849
9753 849
9754 849
9755 849
9756 849
9757 849
9758 849
9759 849
9760 850
9761 850
9762 850
9763 850
9764 850
9765 850
9766 850
9767 850
9768 850
9769 850
9770 851
9771 851
9772 851
9773 851
9774 851
9775 851
9776 851
9777 851
9778 851
9779 851
9780 852
9781 852
9782 852
9783 852
9784 852
9785 852
9786 852
9787 852
9788 852
9789 852
9790 853
9791 853
9792 853
9793 853
9794 853
9795 853
9796 853
9797 853
9798 853
9799 853
9800 854
9801 854
9802 854
9803 854
9804 854
9805 854
9806 854
9807 854
9808 854
9809 854
9810 548
9811 548
9812 548
9813 548
9814 548
9815 548
9816 548
9817 548
9818 548
9819 548
9820 855
9821 855
9822 855
9823 855
9824 855
9825 855
9826 855
9827 855
9828 855
9829 855
9830 856
9831 856
9832 856
9833 856
9834 856
9835 856
9836 856
9837 856
9838 856
9839 856
9840 857
9841 857
9842 857
9843 857
9844 857
9845 857
9846 857
9847 857
9848 857
9849 857
9850 858
9851 858
9852 858
9853 858
9854 858
9855 858
9856 858
9857 858
9858 858
9859 858
9860 462
9861 462
9862 462
9863 462
9864 462
9865 462
9866 462
9867 462
9868 462
9869 462
9870 434
9871 434
9872 434
9873 434
9874 434
9875 434
9876 434
9877 434
9878 434
9879 434
9880 859
9881 859
9882 859
9883 859
9884 859
9885 859
9886 859
9887 859
9888 859
9889 859
9890 860
9891 860
9892 860
9893 860
9894 860
9895 860
9896 860
9897 860
9898 860
9899 860
9900 224
9901 224
9902 224
9903 224
9904 224
9905 224
9906 224
9907 224
9908 224
9909 224
9910 861
9911 861
9912 861
9913 861
9914 861
9915 861
9916 861
9917 861
9918 861
9919 861
9920 862
9921 862
9922 862
9923 862
9924 862
9925 862
9926 862
9927 862
9928 862
9929 862
9930 598
9931 598
9932 598
9933 598
9934 598
9935 598
9936 598
9937 598
9938 598
9939 598
9940 205
9941 205
9942 205
9943 205
9944 205
9945 205
9946 205
9947 205
9948 205
9949 205
9950 863
9951 863
9952 863
9953 863
9954 863
9955 863
9956 863
9957 863
9958 863
9959 863
9960 292
9961 292
9962 292
9963 292
9964 292
9965 292
9966 292
9967 292
9968 292
9969 292
9970 864
9971 864
9972 864
9973 864
9974 864
9975 864
9976 864
9977 864
9978 864
9979 864
9980 865
9981 865
9982 865
9983 865
9984 865
9985 865
9986 865
9987 865
9988 865
9989 865
9990 866
9991 866
9992 866
9993 866
9994 866
9995 866
9996 866
9997 866
9998 866
9999 866
10000 867
10001 867
10002 867
10003 867
10004 867
10005 867
10006 867
10007 867
10008 867
10009 867
10010 654
10011 654
10012 654
10013 654
10014 654
10015 654
10016 654
10017 654
10018 654
10019 654
10020 534
10021 534
10022 534
10023 534
10024 534
10025 534
10026 534
10027 534
10028 534
10029 534
10030 868
10031 868
10032 868
10033 868
10034 868
10035 868
10036 868
10037 868
10038 868
10039 868
10040 869
10041 869
10042 869
10043 869
10044 869
10045 869
10046 869
10047 869
10048 869
10049 869
10050 870
10051 870
10052 870
10053 870
10054 870
10055 870
10056 870
10057 870
10058 870
10059 870
10060 258
10061 258
10062 258
10063 258
10064 258
10065 258
10066 258
10067 258
10068 258
10069 258
10070 871
10071 871
10072 871
10073 871
10074 871
10075 871
10076 871
10077 871
10078 871
10079 871
10080 872
10081 872
10082 872
10083 872
10084 872
10085 872
10086 872
10087 872
10088 872
10089 872
10090 873
10091 873
10092 873
10093 873
10094 873
10095 873
10096 873
10097 873
10098 873
10099 873
10100 874
10101 874
10102 874
10103 874
10104 874
10105 874
10106 874
10107 874
10108 874
10109 874
10110 451
10111 451
10112 451
10113 451
10114 451
10115 451
10116 451
10117 451
10118 451
10119 451
10120 875
10121 875
10122 875
10123 875
10124 875
10125 875
10126 875
10127 875
10128 875
10129 875
10130 876
10131 876
10132 876
10133 876
10134 876
10135 876
10136 876
10137 876
10138 876
10139 876
10140 357
10141 357
10142 357
10143 357
10144 357
10145 357
10146 357
10147 357
10148 357
10149 357
10150 877
10151 877
10152 877
10153 877
10154 877
10155 877
10156 877
10157 877
10158 877
10159 877
10160 878
10161 878
10162 878
10163 878
10164 878
10165 878
10166 878
10167 878
10168 878
10169 878
10170 879
10171 879
10172 879
10173 879
10174 879
10175 879
10176 879
10177 879
10178 879
10179 879
10180 880
10181 880
10182 880
10183 880
10184 880
10185 880
10186 880
10187 880
10188 880
10189 880
10190 881
10191 881
10192 881
10193 881
10194 881
10195 881
10196 881
10197 881
10198 881
10199 881
10200 589
10201 589
10202 589
10203 589
10204 589
10205 589
10206 589
10207 589
10208 589
10209 589
10210 882
10211 882
10212 882
10213 882
10214 882
10215 882
10216 882
10217 882
10218 882
10219 882
10220 883
10221 883
10222 883
10223 883
10224 883
10225 883
10226 883
10227 883
10228 883
10229 883
10230 332
10231 332
10232 332
10233 332
10234 332
10235 332
10236 332
10237 332
10238 332
10239 332
10240 884
10241 884
10242 884
10243 884
10244 884
10245 884
10246 884
10247 884
10248 884
10249 884
10250 885
10251 885
10252 885
10253 885
10254 885
10255 885
10256 885
10257 885
10258 885
10259 885
10260 853
10261 853
10262 853
10263 853
10264 853
10265 853
10266 853
10267 853
10268 853
10269 853
10270 886
10271 886
10272 886
10273 886
10274 886
10275 886
10276 886
10277 886
10278 886
10279 886
10280 887
10281 887
10282 887
10283 887
10284 887
10285 887
10286 887
10287 887
10288 887
10289 887
10290 682
10291 682
10292 682
10293 682
10294 682
10295 682
10296 682
10297 682
10298 682
10299 682
10300 888
10301 888
10302 888
10303 888
10304 888
10305 888
10306 888
10307 888
10308 888
10309 888
10310 297
10311 297
10312 297
10313 297
10314 297
10315 297
10316 297
10317 297
10318 297
10319 297
10320 889
10321 889
10322 889
10323 889
10324 889
10325 889
10326 889
10327 889
10328 889
10329 889
10330 127
10331 127
10332 127
10333 127
10334 127
10335 127
10336 127
10337 127
10338 127
10339 127
10340 890
10341 890
10342 890
10343 890
10344 890
10345 890
10346 890
10347 890
10348 890
10349 890
10350 891
10351 891
10352 891
10353 891
10354 891
10355 891
10356 891
10357 891
10358 891
10359 891
10360 892
10361 892
10362 892
10363 892
10364 892
10365 892
10366 892
10367 892
10368 892
10369 892
10370 852
10371 852
10372 852
10373 852
10374 852
10375 852
10376 852
10377 852
10378 852
10379 852
10380 893
10381 893
10382 893
10383 893
10384 893
10385 893
10386 893
10387 893
10388 893
10389 893
10390 727
10391 727
10392 727
10393 727
10394 727
10395 727
10396 727
10397 727
10398 727
10399 727
10400 894
10401 894
10402 894
10403 894
10404 894
10405 894
10406 894
10407 894
10408 894
10409 894
10410 895
10411 895
10412 895
10413 895
10414 895
10415 895
10416 895
10417 895
10418 895
10419 895
10420 896
10421 896
10422 896
10423 896
10424 896
10425 896
10426 896
10427 896
10428 896
10429 896
10430 897
10431 897
10432 897
10433 897
10434 897
10435 897
10436 897
10437 897
10438 897
10439 897
10440 639
10441 639
10442 639
10443 639
10444 639
10445 639
10446 639
10447 639
10448 639
10449 639
10450 734
10451 734
10452 734
10453 734
10454 734
10455 734
10456 734
10457 734
10458 734
10459 734
10460 898
10461 898
10462 898
10463 898
10464 898
10465 898
10466 898
10467 898
10468 898
10469 898
10470 871
10471 871
10472 871
10473 871
10474 871
10475 871
10476 871
10477 871
10478 871
10479 871
10480 899
10481 899
10482 899
10483 899
10484 899
10485 899
10486 899
10487 899
10488 899
10489 899
10490 900
10491 900
10492 900
10493 900
10494 900
10495 900
10496 900
10497 900
10498 900
10499 900
10500 901
10501 901
10502 901
10503 901
10504 901
10505 901
10506 901
10507 901
10508 901
10509 901
10510 902
10511 902
10512 902
10513 902
10514 902
10515 902
10516 902
10517 902
10518 902
10519 902
10520 903
10521 903
10522 903
10523 903
10524 903
10525 903
10526 903
10527 903
10528 903
10529 903
10530 904
10531 904
10532 904
10533 904
10534 904
10535 904
10536 904
10537 904
10538 904
10539 904
10540 905
10541 905
10542 905
10543 905
10544 905
10545 905
10546 905
10547 905
10548 905
10549 905
10550 305
10551 305
10552 305
10553 305
10554 305
10555 305
10556 305
10557 305
10558 305
10559 305
10560 906
10561 906
10562 906
10563 906
10564 906
10565 906
10566 906
10567 906
10568 906
10569 906
10570 907
10571 907
10572 907
10573 907
10574 907
10575 907
10576 907
10577 907
10578 907
10579 907
10580 908
10581 908
10582 908
10583 908
10584 908
10585 908
10586 908
10587 908
10588 908
10589 908
10590 193
10591 193
10592 193
10593 193
10594 193
10595 193
10596 193
10597 193
10598 193
10599 193
10600 909
10601 909
10602 909
10603 909
10604 909
10605 909
10606 909
10607 909
10608 909
10609 909
10610 121
10611 121
10612 121
10613 121
10614 121
10615 121
10616 121
10617 121
10618 121
10619 121
10620 910
10621 910
10622 910
10623 910
10624 910
10625 910
10626 910
10627 910
10628 910
10629 910
10630 911
10631 911
10632 911
10633 911
10634 911
10635 911
10636 911
10637 911
10638 911
10639 911
10640 790
10641 790
10642 790
10643 790
10644 790
10645 790
10646 790
10647 790
10648 790
10649 790
10650 316
10651 316
10652 316
10653 316
10654 316
10655 316
10656 316
10657 316
10658 316
10659 316
10660 607
10661 607
10662 607
10663 607
10664 607
10665 607
10666 607
10667 607
10668 607
10669 607
10670 912
10671 912
10672 912
10673 912
10674 912
10675 912
10676 912
10677 912
10678 912
10679 912
10680 913
10681 913
10682 913
10683 913
10684 913
10685 913
10686 913
10687 913
10688 913
10689 913
10690 914
10691 914
10692 914
10693 914
10694 914
10695 914
10696 914
10697 914
10698 914
10699 914
10700 915
10701 915
10702 915
10703 915
10704 915
10705 915
10706 915
10707 915
10708 915
10709 915
10710 916
10711 916
10712 916
10713 916
10714 916
10715 916
10716 916
10717 916
10718 916
10719 916
10720 917
10721 917
10722 917
10723 917
10724 917
10725 917
10726 917
10727 917
10728 917
10729 917
10730 269
10731 269
10732 269
10733 269
10734 269
10735 269
10736 269
10737 269
10738 269
10739 269
10740 918
10741 918
10742 918
10743 918
10744 918
10745 918
10746 918
10747 918
10748 918
10749 918
10750 919
10751 919
10752 919
10753 919
10754 919
10755 919
10756 919
10757 919
10758 919
10759 919
10760 151
10761 151
10762 151
10763 151
10764 151
10765 151
10766 151
10767 151
10768 151
10769 151
10770 920
10771 920
10772 920
10773 920
10774 920
10775 920
10776 920
10777 920
10778 920
10779 920
10780 921
10781 921
10782 921
10783 921
10784 921
10785 921
10786 921
10787 921
10788 921
10789 921
10790 476
10791 476
10792 476
10793 476
10794 476
10795 476
10796 476
10797 476
10798 476
10799 476
10800 543
10801 543
10802 543
10803 543
10804 543
10805 543
10806 543
10807 543
10808 543
10809 543
10810 922
10811 922
10812 922
10813 922
10814 922
10815 922
10816 922
10817 922
10818 922
10819 922
10820 923
10821 923
10822 923
10823 923
10824 923
10825 923
10826 923
10827 923
10828 923
10829 923
10830 790
10831 790
10832 790
10833 790
10834 790
10835 790
10836 790
10837 790
10838 790
10839 790
10840 878
10841 878
10842 878
10843 878
10844 878
10845 878
10846 878
10847 878
10848 878
10849 878
10850 721
10851 721
10852 721
10853 721
10854 721
10855 721
10856 721
10857 721
10858 721
10859 721
10860 924
10861 924
10862 924
10863 924
10864 924
10865 924
10866 924
10867 924
10868 924
10869 924
10870 925
10871 925
10872 925
10873 925
10874 925
10875 925
10876 925
10877 925
10878 925
10879 925
10880 926
10881 926
10882 926
10883 926
10884 926
10885 926
10886 926
10887 926
10888 926
10889 926
10890 927
10891 927
10892 927
10893 927
10894 927
10895 927
10896 927
10897 927
10898 927
10899 927
10900 928
10901 928
10902 928
10903 928
10904 928
10905 928
10906 928
10907 928
10908 928
10909 928
10910 929
10911 929
10912 929
10913 929
10914 929
10915 929
10916 929
10917 929
10918 929
10919 929
10920 786
10921 786
10922 786
10923 786
10924 786
10925 786
10926 786
10927 786
10928 786
10929 786
10930 930
10931 930
10932 930
10933 930
10934 930
10935 930
10936 930
10937 930
10938 930
10939 930
10940 431
10941 431
10942 431
10943 431
10944 431
10945 431
10946 431
10947 431
10948 431
10949 431
10950 931
10951 931
10952 931
10953 931
10954 931
10955 931
10956 931
10957 931
10958 931
10959 931
10960 474
10961 474
10962 474
10963 474
10964 474
10965 474
10966 474
10967 474
10968 474
10969 474
10970 932
10971 932
10972 932
10973 932
10974 932
10975 932
10976 932
10977 932
10978 932
10979 932
10980 933
10981 933
10982 933
10983 933
10984 933
10985 933
10986 933
10987 933
10988 933
10989 933
10990 353
10991 353
10992 353
10993 353
10994 353
10995 353
10996 353
10997 353
10998 353
10999 353
11000 934
11001 934
11002 934
11003 934
11004 934
11005 934
11006 934
11007 934
11008 934
11009 934
11010 935
11011 935
11012 935
11013 935
11014 935
11015 935
11016 935
11017 935
11018 935
11019 935
11020 691
11021 691
11022 691
11023 691
11024 691
11025 691
11026 691
11027 691
11028 691
11029 691
11030 936
11031 936
11032 936
11033 936
11034 936
11035 936
11036 936
11037 936
11038 936
11039 936
11040 570
11041 570
11042 570
11043 570
11044 570
11045 570
11046 570
11047 570
11048 570
11049 570
11050 937
11051 937
11052 937
11053 937
11054 937
11055 937
11056 937
11057 937
11058 937
11059 937
11060 312
11061 312
11062 312
11063 312
11064 312
11065 312
11066 312
11067 312
11068 312
11069 312
11070 242
11071 242
11072 242
11073 242
11074 242
11075 242
11076 242
11077 242
11078 242
11079 242
11080 938
11081 938
11082 938
11083 938
11084 938
11085 938
11086 938
11087 938
11088 938
11089 938
11090 939
11091 939
11092 939
11093 939
11094 939
11095 939
11096 939
11097 939
11098 939
11099 939
11100 772
11101 772
11102 772
11103 772
11104 772
11105 772
11106 772
11107 772
11108 772
11109 772
11110 940
11111 940
11112 940
11113 940
11114 940
11115 940
11116 940
11117 940
11118 940
11119 940
11120 544
11121 544
11122 544
11123 544
11124 544
11125 544
11126 544
11127 544
11128 544
11129 544
11130 941
11131 941
11132 941
11133 941
11134 941
11135 941
11136 941
11137 941
11138 941
11139 941
11140 376
11141 376
11142 376
11143 376
11144 376
11145 376
11146 376
11147 376
11148 376
11149 376
11150 942
11151 942
11152 942
11153 942
11154 942
11155 942
11156 942
11157 942
11158 942
11159 942
11160 943
11161 943
11162 943
11163 943
11164 943
11165 943
11166 943
11167 943
11168 943
11169 943
11170 944
11171 944
11172 944
11173 944
11174 944
11175 944
11176 944
11177 944
11178 944
11179 944
11180 945
11181 945
11182 945
11183 945
11184 945
11185 945
11186 945
11187 945
11188 945
11189 945
11190 946
11191 946
11192 946
11193 946
11194 946
11195 946
11196 946
11197 946
11198 946
11199 946
11200 29
11201 29
11202 29
11203 29
11204 29
11205 29
11206 29
11207 29
11208 29
11209 29
11210 947
11211 947
11212 947
11213 947
11214 947
11215 947
11216 947
11217 947
11218 947
11219 947
11220 948
11221 948
11222 948
11223 948
11224 948
11225 948
11226 948
11227 948
11228 948
11229 948
11230 949
11231 949
11232 949
11233 949
11234 949
11235 949
11236 949
11237 949
11238 949
11239 949
11240 302
11241 302
11242 302
11243 302
11244 302
11245 302
11246 302
11247 302
11248 302
11249 302
11250 950
11251 950
11252 950
11253 950
11254 950
11255 950
11256 950
11257 950
11258 950
11259 950
11260 951
11261 951
11262 951
11263 951
11264 951
11265 951
11266 951
11267 951
11268 951
11269 951
11270 581
11271 581
11272 581
11273 581
11274 581
11275 581
11276 581
11277 581
11278 581
11279 581
11280 442
11281 442
11282 442
11283 442
11284 442
11285 442
11286 442
11287 442
11288 442
11289 442
11290 952
11291 952
11292 952
11293 952
11294 952
11295 952
11296 952
11297 952
11298 952
11299 952
11300 743
11301 743
11302 743
11303 743
11304 743
11305 743
11306 743
11307 743
11308 743
11309 743
11310 953
11311 953
11312 953
11313 953
11314 953
11315 953
11316 953
11317 953
11318 953
11319 953
11320 777
11321 777
11322 777
11323 777
11324 777
11325 777
11326 777
11327 777
11328 777
11329 777
11330 954
11331 954
11332 954
11333 954
11334 954
11335 954
11336 954
11337 954
11338 954
11339 954
11340 955
11341 955
11342 955
11343 955
11344 955
11345 955
11346 955
11347 955
11348 955
11349 955
11350 956
11351 956
11352 956
11353 956
11354 956
11355 956
11356 956
11357 956
11358 956
11359 956
11360 957
11361 957
11362 957
11363 957
11364 957
11365 957
11366 957
11367 957
11368 957
11369 957
11370 958
11371 958
11372 958
11373 958
11374 958
11375 958
11376 958
11377 958
11378 958
11379 958
11380 959
11381 959
11382 959
11383 959
11384 959
11385 959
11386 959
11387 959
11388 959
11389 959
11390 960
11391 960
11392 960
11393 960
11394 960
11395 960
11396 960
11397 960
11398 960
11399 960
11400 892
11401 892
11402 892
11403 892
11404 892
11405 892
11406 892
11407 892
11408 892
11409 892
11410 961
11411 961
11412 961
11413 961
11414 961
11415 961
11416 961
11417 961
11418 961
11419 961
11420 962
11421 962
11422 962
11423 962
11424 962
11425 962
11426 962
11427 962
11428 962
11429 962
11430 692
11431 692
11432 692
11433 692
11434 692
11435 692
11436 692
11437 692
11438 692
11439 692
11440 963
11441 963
11442 963
11443 963
11444 963
11445 963
11446 963
11447 963
11448 963
11449 963
11450 390
11451 390
11452 390
11453 390
11454 390
11455 390
11456 390
11457 390
11458 390
11459 390
11460 22
11461 22
11462 22
11463 22
11464 22
11465 22
11466 22
11467 22
11468 22
11469 22
11470 749
11471 749
11472 749
11473 749
11474 749
11475 749
11476 749
11477 749
11478 749
11479 749
11480 964
11481 964
11482 964
11483 964
11484 964
11485 964
11486 964
11487 964
11488 964
11489 964
11490 965
11491 965
11492 965
11493 965
11494 965
11495 965
11496 965
11497 965
11498 965
11499 965
11500 966
11501 966
11502 966
11503 966
11504 966
11505 966
11506 966
11507 966
11508 966
11509 966
11510 967
11511 967
11512 967
11513 967
11514 967
11515 967
11516 967
11517 967
11518 967
11519 967
11520 968
11521 968
11522 968
11523 968
11524 968
11525 968
11526 968
11527 968
11528 968
11529 968
11530 969
11531 969
11532 969
11533 969
11534 969
11535 969
11536 969
11537 969
11538 969
11539 969
11540 729
11541 729
11542 729
11543 729
11544 729
11545 729
11546 729
11547 729
11548 729
11549 729
11550 970
11551 970
11552 970
11553 970
11554 970
11555 970
11556 970
11557 970
11558 970
11559 970
11560 971
11561 971
11562 971
11563 971
11564 971
11565 971
11566 971
11567 971
11568 971
11569 971
11570 972
11571 972
11572 972
11573 972
11574 972
11575 972
11576 972
11577 972
11578 972
11579 972
11580 253
11581 253
11582 253
11583 253
11584 253
11585 253
11586 253
11587 253
11588 253
11589 253
11590 902
11591 902
11592 902
11593 902
11594 902
11595 902
11596 902
11597 902
11598 902
11599 902
11600 94
11601 94
11602 94
11603 94
11604 94
11605 94
11606 94
11607 94
11608 94
11609 94
11610 973
11611 973
11612 973
11613 973
11614 973
11615 973
11616 973
11617 973
11618 973
11619 973
11620 974
11621 974
11622 974
11623 974
11624 974
11625 974
11626 974
11627 974
11628 974
11629 974
11630 975
11631 975
11632 975
11633 975
11634 975
11635 975
11636 975
11637 975
11638 975
11639 975
11640 976
11641 976
11642 976
11643 976
11644 976
11645 976
11646 976
11647 976
11648 976
11649 976
11650 977
11651 977
11652 977
11653 977
11654 977
11655 977
11656 977
11657 977
11658 977
11659 977
11660 978
11661 978
11662 978
11663 978
11664 978
11665 978
11666 978
11667 978
11668 978
11669 978
11670 979
11671 979
11672 979
11673 979
11674 979
11675 979
11676 979
11677 979
11678 979
11679 979
11680 980
11681 980
11682 980
11683 980
11684 980
11685 980
11686 980
11687 980
11688 980
11689 980
11690 895
11691 895
11692 895
11693 895
11694 895
11695 895
11696 895
11697 895
11698 895
11699 895
11700 891
11701 891
11702 891
11703 891
11704 891
11705 891
11706 891
11707 891
11708 891
11709 891
11710 153
11711 153
11712 153
11713 153
11714 153
11715 153
11716 153
11717 153
11718 153
11719 153
11720 485
11721 485
11722 485
11723 485
11724 485
11725 485
11726 485
11727 485
11728 485
11729 485
11730 981
11731 981
11732 981
11733 981
11734 981
11735 981
11736 981
11737 981
11738 981
11739 981
11740 982
11741 982
11742 982
11743 982
11744 982
11745 982
11746 982
11747 982
11748 982
11749 982
11750 983
11751 983
11752 983
11753 983
11754 983
11755 983
11756 983
11757 983
11758 983
11759 983
11760 984
11761 984
11762 984
11763 984
11764 984
11765 984
11766 984
11767 984
11768 984
11769 984
11770 455
11771 455
11772 455
11773 455
11774 455
11775 455
11776 455
11777 455
11778 455
11779 455
11780 956
11781 956
11782 956
11783 956
11784 956
11785 956
11786 956
11787 956
11788 956
11789 956
11790 985
11791 985
11792 985
11793 985
11794 985
11795 985
11796 985
11797 985
11798 985
11799 985
11800 986
11801 986
11802 986
11803 986
11804 986
11805 986
11806 986
11807 986
11808 986
11809 986
11810 987
11811 987
11812 987
11813 987
11814 987
11815 987
11816 987
11817 987
11818 987
11819 987
11820 307
11821 307
11822 307
11823 307
11824 307
11825 307
11826 307
11827 307
11828 307
11829 307
11830 988
11831 988
11832 988
11833 988
11834 988
11835 988
11836 988
11837 988
11838 988
11839 988
11840 989
11841 989
11842 989
11843 989
11844 989
11845 989
11846 989
11847 989
11848 989
11849 989
11850 854
11851 854
11852 854
11853 854
11854 854
11855 854
11856 854
11857 854
11858 854
11859 854
11860 990
11861 990
11862 990
11863 990
11864 990
11865 990
11866 990
11867 990
11868 990
11869 990
11870 991
11871 991
11872 991
11873 991
11874 991
11875 991
11876 991
11877 991
11878 991
11879 991
11880 522
11881 522
11882 522
11883 522
11884 522
11885 522
11886 522
11887 522
11888 522
11889 522
11890 992
11891 992
11892 992
11893 992
11894 992
11895 992
11896 992
11897 992
11898 992
11899 992
11900 758
11901 758
11902 758
11903 758
11904 758
11905 758
11906 758
11907 758
11908 758
11909 758
11910 993
11911 993
11912 993
11913 993
11914 993
11915 993
11916 993
11917 993
11918 993
11919 993
11920 194
11921 194
11922 194
11923 194
11924 194
11925 194
11926 194
11927 194
11928 194
11929 194
11930 994
11931 994
11932 994
11933 994
11934 994
11935 994
11936 994
11937 994
11938 994
11939 994
11940 995
11941 995
11942 995
11943 995
11944 995
11945 995
11946 995
11947 995
11948 995
11949 995
11950 996
11951 996
11952 996
11953 996
11954 996
11955 996
11956 996
11957 996
11958 996
11959 996
11960 997
11961 997
11962 997
11963 997
11964 997
11965 997
11966 997
11967 997
11968 997
11969 997
11970 998
11971 998
11972 998
11973 998
11974 998
11975 998
11976 998
11977 998
11978 998
11979 998
11980 999
11981 999
11982 999
11983 999
11984 999
11985 999
11986 999
11987 999
11988 999
11989 999
11990 725
11991 725
11992 725
11993 725
11994 725
11995 725
11996 725
11997 725
11998 725
11999 725
12000 1000
12001 1000
12002 1000
12003 1000
12004 1000
12005 1000
12006 1000
12007 1000
12008 1000
12009 1000
12010 304
12011 304
12012 304
12013 304
12014 304
12015 304
12016 304
12017 304
12018 304
12019 304
12020 81
12021 81
12022 81
12023 81
12024 81
12025 81
12026 81
12027 81
12028 81
12029 81
12030 566
12031 566
12032 566
12033 566
12034 566
12035 566
12036 566
12037 566
12038 566
12039 566
12040 439
12041 439
12042 439
12043 439
12044 439
12045 439
12046 439
