0 0
1 1
2 2
3 3
4 4
5 5
6 6
7 7
8 8
9 9
10 10
11 11
12 12
13 13
14 14
15 15
16 16
17 17
18 18
19 19
20 20
21 21
22 22
23 23
24 24
25 25
26 26
27 27
28 28
29 29
30 30
31 31
32 32
33 33
34 34
35 35
36 36
37 24
38 37
39 38
40 39
41 40
42 41
43 42
44 43
45 44
46 45
47 24
48 46
49 47
50 48
51 49
52 50
53 51
54 52
55 53
56 54
57 55
58 56
59 57
60 58
61 59
62 60
63 61
64 62
65 63
66 64
67 65
68 66
69 67
70 68
71 69
72 70
73 71
74 72
75 73
76 74
77 75
78 76
79 77
80 46
81 31
82 78
83 79
84 80
85 81
86 82
87 83
88 84
89 85
90 86
91 87
92 88
93 89
94 90
95 91
96 20
97 92
98 93
99 94
100 95
101 96
102 97
103 98
104 99
105 58
106 100
107 101
108 4
109 102
110 103
111 104
112 105
113 106
114 107
115 108
116 109
117 110
118 111
119 1
120 112
121 113
122 114
123 115
124 116
125 117
126 118
127 119
128 120
129 121
130 122
131 123
132 20
133 98
134 124
135 125
136 126
137 127
138 128
139 129
140 130
141 131
142 132
143 133
144 134
145 135
146 14
147 128
148 136
149 137
150 138
151 3
152 99
153 139
154 29
155 140
156 141
157 1
158 142
159 143
160 144
161 145
162 146
163 147
164 148
165 4
166 50
167 149
168 38
169 150
170 151
171 152
172 153
173 63
174 154
175 155
176 156
177 133
178 153
179 157
180 158
181 159
182 160
183 161
184 162
185 163
186 22
187 164
188 24
189 165
190 166
191 167
192 168
193 40
194 169
195 86
196 170
197 171
198 172
199 112
200 110
201 173
202 174
203 175
204 176
205 177
206 178
207 179
208 4
209 90
210 180
211 181
212 182
213 23
214 183
215 184
216 185
217 186
218 187
219 61
220 188
221 189
222 190
223 191
224 192
225 193
226 194
227 6
228 195
229 196
230 67
231 126
232 197
233 198
234 194
235 199
236 200
237 109
238 201
239 202
240 203
241 204
242 205
243 110
244 206
245 207
246 28
247 12
248 208
249 209
250 210
251 211
252 212
253 213
254 214
255 76
256 86
257 201
258 215
259 216
260 202
261 138
262 178
263 128
264 217
265 218
266 32
267 219
268 156
269 68
270 220
271 221
272 222
273 223
274 134
275 224
276 225
277 226
278 227
279 228
280 229
281 230
282 231
283 232
284 64
285 233
286 166
287 234
288 88
289 200
290 81
291 235
292 236
293 99
294 237
295 238
296 239
297 240
298 241
299 14
300 242
301 41
302 242
303 243
304 33
305 244
306 243
307 135
308 245
309 246
310 247
311 248
312 178
313 173
314 249
315 250
316 225
317 93
318 54
319 242
320 251
321 18
322 205
323 252
324 135
325 253
326 254
327 255
328 256
329 52
330 44
331 117
332 257
333 195
334 63
335 66
336 258
337 259
338 31
339 260
340 261
341 262
342 231
343 263
344 264
345 265
346 266
347 74
348 267
349 1
350 268
351 269
352 261
353 270
354 271
355 272
356 52
357 59
358 54
359 269
360 273
361 274
362 254
363 1
364 206
365 192
366 193
367 275
368 160
369 260
370 276
371 23
372 249
373 277
374 205
375 30
376 37
377 278
378 279
379 3
380 280
381 226
382 13
383 7
384 2
385 44
386 281
387 282
388 55
389 200
390 283
391 40
392 263
393 284
394 51
395 285
396 171
397 286
398 251
399 287
400 15
401 208
402 155
403 288
404 289
405 200
406 174
407 290
408 291
409 55
410 279
411 250
412 292
413 293
414 2
415 294
416 50
417 93
418 198
419 295
420 221
421 296
422 297
423 298
424 299
425 285
426 193
427 118
428 300
429 301
430 302
431 303
432 178
433 304
434 305
435 44
436 279
437 171
438 306
439 307
440 308
441 195
442 309
443 195
444 310
445 65
446 311
447 280
448 312
449 193
450 133
451 44
452 65
453 313
454 256
455 255
456 186
457 314
458 315
459 316
460 317
461 318
462 194
463 84
464 319
465 13
466 320
467 307
468 191
469 289
470 321
471 214
472 205
473 103
474 322
475 21
476 308
477 89
478 83
479 323
480 324
481 325
482 146
483 326
484 327
485 191
486 328
487 18
488 329
489 128
490 70
491 330
492 198
493 331
494 134
495 329
496 332
497 333
498 146
499 149
500 55
501 23
502 156
503 196
504 18
505 334
506 271
507 335
508 336
509 303
510 337
511 338
512 147
513 225
514 339
515 340
516 204
517 341
518 342
519 343
520 344
521 345
522 346
523 18
524 347
525 4
526 272
527 1
528 211
529 111
530 283
531 286
532 102
533 25
534 348
535 349
536 276
537 198
538 350
539 277
540 337
541 234
542 295
543 259
544 272
545 45
546 136
547 351
548 182
549 56
550 352
551 240
552 3
553 128
554 353
555 354
556 355
557 27
558 356
559 357
560 358
561 135
562 359
563 28
564 246
565 360
566 361
567 101
568 222
569 61
570 108
571 60
572 186
573 362
574 68
575 3
576 133
577 90
578 363
579 346
580 364
581 263
582 365
583 366
584 367
585 131
586 368
587 369
588 370
589 24
590 371
591 79
592 129
593 50
594 216
595 363
596 112
597 182
598 66
599 218
600 114
601 247
602 206
603 289
604 222
605 143
606 372
607 304
608 1
609 373
610 215
611 71
612 300
613 171
614 11
615 130
616 374
617 280
618 357
619 375
620 160
621 68
622 73
623 240
624 266
625 376
626 336
627 229
628 327
629 266
630 259
631 362
632 377
633 378
634 379
635 303
636 347
637 54
638 289
639 291
640 380
641 381
642 61
643 382
644 383
645 384
646 56
647 73
648 238
649 248
650 225
651 5
652 379
653 376
654 372
655 110
656 319
657 385
658 386
659 101
660 387
661 388
662 389
663 390
664 54
665 185
666 391
667 392
668 288
669 98
670 336
671 393
672 394
673 201
674 22
675 331
676 361
677 305
678 56
679 395
680 229
681 293
682 73
683 396
684 397
685 143
686 261
687 101
688 398
689 399
690 303
691 183
692 162
693 295
694 400
695 401
696 225
697 129
698 110
699 402
700 76
701 403
702 88
703 346
704 144
705 232
706 133
707 313
708 404
709 284
710 405
711 163
712 76
713 406
714 22
715 350
716 4
717 67
718 290
719 59
720 30
721 270
722 407
723 371
724 31
725 408
726 345
727 55
728 44
729 327
730 179
731 409
732 410
733 248
734 247
735 140
736 67
737 222
738 411
739 412
740 413
741 362
742 188
743 337
744 47
745 41
746 254
747 351
748 414
749 415
750 412
751 394
752 170
753 416
754 289
755 167
756 400
757 158
758 412
759 417
760 331
761 418
762 122
763 239
764 419
765 420
766 421
767 329
768 366
769 292
770 293
771 217
772 344
773 39
774 422
775 230
776 205
777 4
778 423
779 10
780 22
781 221
782 424
783 425
784 56
785 426
786 45
787 174
788 165
789 220
790 416
791 427
792 350
793 13
794 286
795 291
796 408
797 428
798 208
799 120
800 429
801 422
802 46
803 282
804 278
805 276
806 94
807 430
808 294
809 93
810 168
811 431
812 218
813 249
814 408
815 432
816 281
817 433
818 434
819 435
820 122
821 436
822 95
823 396
824 381
825 155
826 437
827 118
828 438
829 294
830 439
831 144
832 90
833 296
834 440
835 164
836 355
837 441
838 411
839 259
840 234
841 348
842 442
843 305
844 443
845 59
846 183
847 444
848 336
849 442
850 81
851 306
852 245
853 211
854 7
855 157
856 357
857 319
858 105
859 22
860 82
861 445
862 410
863 446
864 447
865 280
866 448
867 98
868 146
869 449
870 185
871 148
872 215
873 420
874 450
875 364
876 146
877 265
878 408
879 119
880 262
881 337
882 244
883 451
884 452
885 78
886 331
887 388
888 453
889 239
890 112
891 331
892 3
893 454
894 204
895 427
896 370
897 436
898 349
899 296
900 132
901 213
902 433
903 158
904 328
905 441
906 453
907 164
908 261
909 59
910 55
911 420
912 21
913 455
914 219
915 456
916 457
917 95
918 3
919 283
920 34
921 290
922 382
923 389
924 458
925 158
926 23
927 447
928 459
929 460
930 420
931 112
932 225
933 226
934 296
935 461
936 78
937 462
938 441
939 335
940 256
941 313
942 239
943 89
944 423
945 60
946 463
947 194
948 328
949 127
950 56
951 464
952 465
953 366
954 300
955 358
956 386
957 466
958 413
959 242
960 461
961 91
962 169
963 221
964 201
965 290
966 247
967 343
968 467
969 468
970 79
971 375
972 293
973 225
974 122
975 51
976 469
977 108
978 470
979 290
980 354
981 471
982 305
983 289
984 217
985 285
986 453
987 397
988 283
989 142
990 134
991 472
992 368
993 70
994 260
995 73
996 363
997 374
998 473
999 204
1000 17
1001 363
1002 4
1003 73
1004 459
1005 337
1006 469
1007 474
1008 265
1009 341
1010 475
1011 281
1012 413
1013 169
1014 423
1015 476
1016 204
1017 477
1018 385
1019 155
1020 146
1021 157
1022 463
1023 182
1024 169
1025 248
1026 350
1027 207
1028 4
1029 283
1030 478
1031 479
1032 411
1033 108
1034 466
1035 45
1036 5
1037 63
1038 420
1039 388
1040 480
1041 481
1042 346
1043 4
1044 482
1045 479
1046 483
1047 364
1048 79
1049 313
1050 186
1051 58
1052 83
1053 484
1054 326
1055 331
1056 417
1057 451
1058 122
1059 130
1060 204
1061 295
1062 58
1063 223
1064 228
1065 1
1066 436
1067 3
1068 151
1069 222
1070 232
1071 477
1072 140
1073 117
1074 375
1075 324
1076 354
1077 249
1078 248
1079 485
1080 381
1081 17
1082 403
1083 85
1084 13
1085 322
1086 36
1087 486
1088 330
1089 424
1090 471
1091 32
1092 2
1093 353
1094 362
1095 473
1096 197
1097 476
1098 236
1099 487
1100 23
1101 23
1102 60
1103 131
1104 265
1105 259
1106 426
1107 160
1108 54
1109 232
1110 488
1111 111
1112 489
1113 194
1114 295
1115 204
1116 437
1117 408
1118 131
1119 143
1120 412
1121 248
1122 353
1123 470
1124 90
1125 56
1126 366
1127 389
1128 190
1129 13
1130 283
1131 458
1132 313
1133 74
1134 174
1135 196
1136 363
1137 411
1138 90
1139 408
1140 490
1141 99
1142 491
1143 192
1144 492
1145 402
1146 437
1147 165
1148 426
1149 381
1150 153
1151 411
1152 82
1153 234
1154 229
1155 493
1156 218
1157 370
1158 332
1159 444
1160 241
1161 314
1162 229
1163 190
1164 95
1165 168
1166 254
1167 494
1168 51
1169 348
1170 20
1171 489
1172 374
1173 391
1174 5
1175 52
1176 201
1177 204
1178 140
1179 495
1180 432
1181 34
1182 464
1183 262
1184 445
1185 63
1186 52
1187 229
1188 326
1189 481
1190 60
1191 284
1192 203
1193 416
1194 436
1195 131
1196 496
1197 265
1198 98
1199 497
1200 498
1201 63
1202 209
1203 436
1204 290
1205 499
1206 255
1207 391
1208 335
1209 500
1210 303
1211 334
1212 207
1213 146
1214 193
1215 150
1216 259
1217 218
1218 260
1219 282
1220 309
1221 455
1222 354
1223 437
1224 379
1225 18
1226 86
1227 305
1228 501
1229 81
1230 216
1231 423
1232 123
1233 479
1234 161
1235 303
1236 137
1237 160
1238 445
1239 111
1240 502
1241 98
1242 503
1243 221
1244 112
1245 445
1246 344
1247 133
1248 255
1249 464
1250 256
1251 313
1252 201
1253 43
1254 504
1255 207
1256 67
1257 124
1258 505
1259 312
1260 354
1261 6
1262 228
1263 500
1264 431
1265 488
1266 413
1267 506
1268 413
1269 445
1270 144
1271 396
1272 507
1273 19
1274 260
1275 501
1276 445
1277 287
1278 290
1279 315
1280 110
1281 265
1282 296
1283 508
1284 324
1285 94
1286 173
1287 243
1288 420
1289 46
1290 509
1291 473
1292 205
1293 510
1294 356
1295 226
1296 165
1297 130
1298 236
1299 216
1300 104
1301 426
1302 207
1303 393
1304 441
1305 304
1306 511
1307 485
1308 382
1309 262
1310 49
1311 127
1312 468
1313 512
1314 484
1315 104
1316 102
1317 94
1318 492
1319 229
1320 228
1321 434
1322 165
1323 379
1324 426
1325 55
1326 286
1327 183
1328 513
1329 396
1330 410
1331 306
1332 326
1333 323
1334 382
1335 494
1336 327
1337 399
1338 327
1339 375
1340 51
1341 349
1342 282
1343 19
1344 355
1345 254
1346 31
1347 296
1348 21
1349 309
1350 240
1351 410
1352 454
1353 295
1354 347
1355 127
1356 171
1357 200
1358 467
1359 6
1360 160
1361 48
1362 304
1363 294
1364 366
1365 305
1366 193
1367 448
1368 418
1369 123
1370 514
1371 81
1372 401
1373 56
1374 44
1375 33
1376 113
1377 507
1378 50
1379 355
1380 347
1381 82
1382 266
1383 206
1384 162
1385 190
1386 125
1387 174
1388 97
1389 173
1390 147
1391 414
1392 91
1393 41
1394 346
1395 226
1396 350
1397 72
1398 243
1399 331
1400 417
1401 440
1402 205
1403 73
1404 500
1405 30
1406 238
1407 210
1408 241
1409 466
1410 210
1411 186
1412 125
1413 279
1414 411
1415 2
1416 257
1417 294
1418 293
1419 90
1420 396
1421 140
1422 103
1423 349
1424 413
1425 308
1426 283
1427 306
1428 363
1429 73
1430 270
1431 304
1432 127
1433 480
1434 309
1435 352
1436 348
1437 313
1438 193
1439 49
1440 151
1441 33
1442 216
1443 347
1444 426
1445 322
1446 344
1447 19
1448 265
1449 296
1450 161
1451 179
1452 451
1453 247
1454 23
1455 484
1456 283
1457 220
1458 309
1459 130
1460 276
1461 408
1462 206
1463 309
1464 226
1465 31
1466 303
1467 515
1468 36
1469 10
1470 265
1471 33
1472 413
1473 516
1474 97
1475 232
1476 49
1477 517
1478 414
1479 346
1480 229
1481 308
1482 518
1483 353
1484 413
1485 275
1486 93
1487 104
1488 368
1489 336
1490 271
1491 394
1492 427
1493 170
1494 396
1495 84
1496 411
1497 370
1498 349
1499 366
1500 67
1501 397
1502 363
1503 231
1504 56
1505 114
1506 225
1507 140
1508 319
1509 519
1510 247
1511 464
1512 326
1513 200
1514 347
1515 307
1516 520
1517 476
1518 331
1519 430
1520 201
1521 394
1522 99
1523 521
1524 181
1525 507
1526 41
1527 262
1528 494
1529 331
1530 248
1531 59
1532 494
1533 111
1534 188
1535 436
1536 371
1537 337
1538 522
1539 319
1540 441
1541 506
1542 237
1543 156
1544 260
1545 523
1546 404
1547 42
1548 337
1549 524
1550 283
1551 98
1552 525
1553 345
1554 91
1555 83
1556 249
1557 353
1558 93
1559 444
1560 64
1561 56
1562 426
1563 319
1564 326
1565 26
1566 517
1567 473
1568 350
1569 23
1570 234
1571 174
1572 54
1573 73
1574 80
1575 229
1576 522
1577 151
1578 276
1579 526
1580 319
1581 1
1582 285
1583 527
1584 225
1585 256
1586 13
1587 203
1588 248
1589 182
1590 31
1591 93
1592 64
1593 508
1594 221
1595 358
1596 496
1597 158
1598 378
1599 528
1600 291
1601 529
1602 71
1603 200
1604 493
1605 22
1606 254
1607 279
1608 79
1609 215
1610 51
1611 118
1612 19
1613 530
1614 336
1615 73
1616 531
1617 80
1618 285
1619 78
1620 22
1621 532
1622 33
1623 241
1624 517
1625 471
1626 137
1627 447
1628 68
1629 336
1630 206
1631 353
1632 521
1633 186
1634 23
1635 16
1636 203
1637 312
1638 182
1639 222
1640 371
1641 61
1642 302
1643 190
1644 209
1645 264
1646 445
1647 293
1648 402
1649 45
1650 127
1651 225
1652 296
1653 82
1654 526
1655 442
1656 44
1657 219
1658 321
1659 326
1660 22
1661 43
1662 95
1663 345
1664 342
1665 55
1666 164
1667 533
1668 232
1669 45
1670 97
1671 272
1672 57
1673 445
1674 385
1675 534
1676 304
1677 0
1678 174
1679 78
1680 127
1681 363
1682 535
1683 500
1684 331
1685 470
1686 437
1687 536
1688 55
1689 537
1690 158
1691 526
1692 362
1693 517
1694 500
1695 157
1696 344
1697 99
1698 420
1699 416
1700 86
1701 538
1702 366
1703 86
1704 162
1705 55
1706 266
1707 232
1708 153
1709 504
1710 305
1711 244
1712 400
1713 91
1714 134
1715 347
1716 86
1717 259
1718 2
1719 155
1720 434
1721 539
1722 22
1723 204
1724 145
1725 13
1726 415
1727 41
1728 271
1729 417
1730 132
1731 540
1732 209
1733 541
1734 514
1735 400
1736 155
1737 223
1738 94
1739 374
1740 319
1741 60
1742 245
1743 448
1744 542
1745 534
1746 181
1747 537
1748 322
1749 31
1750 483
1751 543
1752 530
1753 95
1754 200
1755 270
1756 374
1757 335
1758 443
1759 296
1760 421
1761 150
1762 73
1763 144
1764 426
1765 443
1766 508
1767 249
1768 544
1769 93
1770 352
1771 196
1772 264
1773 517
1774 478
1775 100
1776 310
1777 22
1778 329
1779 439
1780 127
1781 171
1782 95
1783 447
1784 545
1785 310
1786 130
1787 14
1788 90
1789 473
1790 111
1791 307
1792 39
1793 190
1794 82
1795 307
1796 335
1797 326
1798 546
1799 59
1800 356
1801 420
1802 54
1803 212
1804 294
1805 229
1806 433
1807 79
1808 6
1809 173
1810 284
1811 436
1812 77
1813 121
1814 547
1815 408
1816 548
1817 89
1818 80
1819 249
1820 356
1821 273
1822 53
1823 34
1824 229
1825 374
1826 306
1827 375
1828 158
1829 326
1830 460
1831 549
1832 262
1833 536
1834 464
1835 400
1836 550
1837 342
1838 55
1839 65
1840 353
1841 306
1842 366
1843 386
1844 153
1845 371
1846 225
1847 275
1848 413
1849 436
1850 174
1851 19
1852 54
1853 337
1854 368
1855 120
1856 19
1857 3
1858 199
1859 515
1860 355
1861 551
1862 219
1863 363
1864 378
1865 420
1866 51
1867 133
1868 507
1869 357
1870 61
1871 410
1872 288
1873 534
1874 385
1875 409
1876 396
1877 132
1878 412
1879 146
1880 364
1881 548
1882 108
1883 552
1884 294
1885 178
1886 375
1887 95
1888 260
1889 60
1890 364
1891 135
1892 553
1893 156
1894 335
1895 554
1896 224
1897 503
1898 262
1899 2
1900 514
1901 146
1902 362
1903 450
1904 91
1905 167
1906 206
1907 473
1908 26
1909 371
1910 403
1911 470
1912 331
1913 555
1914 148
1915 209
1916 167
1917 39
1918 122
1919 391
1920 409
1921 513
1922 421
1923 319
1924 80
1925 465
1926 82
1927 86
1928 73
1929 228
1930 318
1931 349
1932 150
1933 122
1934 133
1935 87
1936 54
1937 270
1938 150
1939 471
1940 36
1941 498
1942 158
1943 366
1944 30
1945 289
1946 314
1947 414
1948 206
1949 112
1950 219
1951 146
1952 556
1953 349
1954 375
1955 25
1956 248
1957 335
1958 86
1959 248
1960 364
1961 138
1962 241
1963 122
1964 99
1965 108
1966 331
1967 322
1968 206
1969 413
1970 463
1971 169
1972 215
1973 130
1974 304
1975 127
1976 55
1977 529
1978 467
1979 307
1980 361
1981 557
1982 558
1983 348
1984 22
1985 209
1986 355
1987 289
1988 70
1989 17
1990 559
1991 505
1992 372
1993 385
1994 136
1995 485
1996 249
1997 154
1998 229
1999 560
2000 203
2001 467
2002 355
2003 219
2004 225
2005 112
2006 331
2007 150
2008 322
2009 206
2010 288
2011 55
2012 56
2013 434
2014 286
2015 18
2016 125
2017 8
2018 561
2019 432
2020 17
2021 83
2022 314
2023 375
2024 458
2025 154
2026 424
2027 34
2028 154
2029 411
2030 295
2031 332
2032 308
2033 90
2034 206
2035 112
2036 53
2037 307
2038 54
2039 284
2040 542
2041 203
2042 327
2043 526
2044 321
2045 156
2046 309
2047 26
2048 221
2049 334
2050 93
2051 432
2052 131
2053 282
2054 350
2055 518
2056 183
2057 83
2058 308
2059 271
2060 374
2061 192
2062 562
2063 563
2064 493
2065 304
2066 105
2067 34
2068 542
2069 79
2070 269
2071 201
2072 82
2073 271
2074 146
2075 196
2076 146
2077 31
2078 13
2079 417
2080 543
2081 526
2082 337
2083 130
2084 441
2085 80
2086 206
2087 15
2088 55
2089 158
2090 34
2091 470
2092 30
2093 28
2094 73
2095 11
2096 307
2097 306
2098 167
2099 309
2100 420
2101 392
2102 125
2103 514
2104 271
2105 171
2106 455
2107 492
2108 447
2109 564
2110 304
2111 71
2112 271
2113 203
2114 485
2115 321
2116 326
2117 207
2118 49
2119 207
2120 449
2121 421
2122 156
2123 526
2124 31
2125 484
2126 565
2127 552
2128 30
2129 27
2130 111
2131 346
2132 395
2133 411
2134 416
2135 308
2136 240
2137 26
2138 314
2139 423
2140 28
2141 331
2142 364
2143 291
2144 60
2145 439
2146 451
2147 547
2148 542
2149 147
2150 428
2151 248
2152 82
2153 430
2154 249
2155 436
2156 401
2157 186
2158 238
2159 193
2160 84
2161 150
2162 417
2163 467
2164 566
2165 152
2166 314
2167 248
2168 282
2169 411
2170 174
2171 375
2172 567
2173 36
2174 108
2175 492
2176 41
2177 208
2178 128
2179 568
2180 191
2181 57
2182 190
2183 207
2184 530
2185 213
2186 249
2187 193
2188 53
2189 358
2190 353
2191 82
2192 165
2193 489
2194 392
2195 30
2196 70
2197 255
2198 177
2199 434
2200 116
2201 225
2202 434
2203 341
2204 331
2205 296
2206 201
2207 443
2208 295
2209 308
2210 569
2211 90
2212 467
2213 41
2214 242
2215 376
2216 255
2217 82
2218 327
2219 108
2220 171
2221 406
2222 127
2223 451
2224 55
2225 13
2226 366
2227 195
2228 2
2229 370
2230 49
2231 505
2232 426
2233 249
2234 451
2235 160
2236 437
2237 80
2238 63
2239 417
2240 313
2241 312
2242 31
2243 65
2244 388
2245 554
2246 140
2247 97
2248 441
2249 570
2250 219
2251 551
2252 82
2253 240
2254 144
2255 41
2256 457
2257 476
2258 76
2259 200
2260 526
2261 41
2262 128
2263 199
2264 308
2265 245
2266 55
2267 194
2268 285
2269 206
2270 86
2271 323
2272 568
2273 423
2274 424
2275 45
2276 508
2277 370
2278 174
2279 337
2280 154
2281 272
2282 372
2283 353
2284 329
2285 412
2286 547
2287 249
2288 169
2289 255
2290 191
2291 259
2292 571
2293 93
2294 504
2295 476
2296 93
2297 204
2298 112
2299 562
2300 492
2301 233
2302 131
2303 128
2304 307
2305 44
2306 522
2307 359
2308 62
2309 122
2310 346
2311 236
2312 572
2313 86
2314 243
2315 572
2316 464
2317 381
2318 554
2319 241
2320 52
2321 67
2322 206
2323 23
2324 434
2325 573
2326 528
2327 33
2328 128
2329 393
2330 519
2331 164
2332 530
2333 530
2334 192
2335 514
2336 200
2337 186
2338 432
2339 160
2340 111
2341 445
2342 289
2343 447
2344 142
2345 45
2346 249
2347 574
2348 307
2349 240
2350 496
2351 133
2352 353
2353 54
2354 486
2355 354
2356 56
2357 207
2358 329
2359 146
2360 477
2361 55
2362 206
2363 203
2364 559
2365 248
2366 453
2367 526
2368 374
2369 292
2370 410
2371 441
2372 347
2373 108
2374 153
2375 470
2376 575
2377 223
2378 470
2379 55
2380 498
2381 450
2382 303
2383 230
2384 85
2385 112
2386 458
2387 193
2388 447
2389 45
2390 513
2391 182
2392 405
2393 113
2394 112
2395 206
2396 306
2397 108
2398 514
2399 492
2400 383
2401 476
2402 519
2403 207
2404 576
2405 314
2406 248
2407 160
2408 271
2409 91
2410 569
2411 80
2412 105
2413 577
2414 84
2415 183
2416 18
2417 517
2418 199
2419 160
2420 434
2421 250
2422 168
2423 578
2424 43
2425 292
2426 209
2427 374
2428 83
2429 191
2430 468
2431 426
2432 441
2433 133
2434 539
2435 69
2436 222
2437 76
2438 202
2439 150
2440 549
2441 225
2442 116
2443 228
2444 195
2445 283
2446 240
2447 39
2448 578
2449 566
2450 70
2451 338
2452 471
2453 499
2454 353
2455 195
2456 112
2457 285
2458 167
2459 335
2460 437
2461 294
2462 447
2463 370
2464 247
2465 308
2466 84
2467 484
2468 13
2469 324
2470 306
2471 529
2472 101
2473 225
2474 160
2475 223
2476 426
2477 41
2478 476
2479 414
2480 241
2481 332
2482 52
2483 579
2484 3
2485 327
2486 417
2487 18
2488 528
2489 63
2490 192
2491 216
2492 502
2493 286
2494 346
2495 91
2496 165
2497 451
2498 464
2499 426
2500 234
2501 22
2502 63
2503 105
2504 508
2505 30
2506 381
2507 305
2508 146
2509 52
2510 283
2511 110
2512 452
2513 413
2514 87
2515 128
2516 484
2517 295
2518 526
2519 146
2520 1
2521 389
2522 335
2523 19
2524 222
2525 112
2526 406
2527 441
2528 478
2529 43
2530 409
2531 56
2532 306
2533 146
2534 289
2535 232
2536 414
2537 48
2538 31
2539 362
2540 263
2541 26
2542 503
2543 525
2544 197
2545 277
2546 521
2547 307
2548 426
2549 370
2550 265
2551 256
2552 99
2553 30
2554 545
2555 44
2556 559
2557 429
2558 522
2559 234
2560 10
2561 483
2562 193
2563 488
2564 455
2565 427
2566 413
2567 114
2568 104
2569 49
2570 398
2571 529
2572 146
2573 88
2574 293
2575 99
2576 289
2577 203
2578 106
2579 413
2580 522
2581 55
2582 23
2583 342
2584 277
2585 146
2586 17
2587 157
2588 146
2589 186
2590 455
2591 366
2592 343
2593 185
2594 129
2595 229
2596 476
2597 495
2598 548
2599 1
2600 554
2601 152
2602 289
2603 233
2604 458
2605 102
2606 362
2607 308
2608 354
2609 484
2610 127
2611 20
2612 514
2613 4
2614 160
2615 146
2616 420
2617 315
2618 353
2619 327
2620 355
2621 513
2622 18
2623 441
2624 393
2625 580
2626 207
2627 581
2628 99
2629 434
2630 344
2631 481
2632 319
2633 13
2634 129
2635 529
2636 443
2637 474
2638 4
2639 71
2640 350
2641 280
2642 582
2643 439
2644 43
2645 90
2646 19
2647 346
2648 58
2649 345
2650 421
2651 307
2652 289
2653 203
2654 137
2655 276
2656 54
2657 477
2658 583
2659 413
2660 315
2661 293
2662 228
2663 471
2664 353
2665 530
2666 265
2667 169
2668 164
2669 207
2670 362
2671 574
2672 437
2673 306
2674 97
2675 479
2676 158
2677 361
2678 210
2679 78
2680 408
2681 326
2682 413
2683 112
2684 234
2685 584
2686 308
2687 248
2688 13
2689 408
2690 108
2691 530
2692 92
2693 228
2694 125
2695 348
2696 459
2697 33
2698 421
2699 534
2700 223
2701 374
2702 234
2703 397
2704 327
2705 3
2706 146
2707 171
2708 153
2709 289
2710 57
2711 73
2712 144
2713 185
2714 346
2715 59
2716 13
2717 524
2718 479
2719 585
2720 375
2721 296
2722 346
2723 586
2724 201
2725 153
2726 83
2727 441
2728 544
2729 312
2730 396
2731 118
2732 548
2733 473
2734 312
2735 344
2736 125
2737 40
2738 426
2739 121
2740 558
2741 19
2742 69
2743 27
2744 331
2745 250
2746 313
2747 52
2748 587
2749 243
2750 185
2751 413
2752 546
2753 350
2754 219
2755 272
2756 297
2757 60
2758 504
2759 293
2760 260
2761 45
2762 519
2763 430
2764 183
2765 93
2766 543
2767 562
2768 411
2769 144
2770 247
2771 221
2772 434
2773 416
2774 247
2775 252
2776 335
2777 555
2778 54
2779 581
2780 3
2781 456
2782 172
2783 44
2784 293
2785 355
2786 112
2787 390
2788 368
2789 375
2790 507
2791 128
2792 171
2793 473
2794 381
2795 194
2796 370
2797 586
2798 112
2799 172
2800 507
2801 232
2802 160
2803 197
2804 207
2805 588
2806 561
2807 384
2808 467
2809 517
2810 208
2811 83
2812 95
2813 52
2814 156
2815 529
2816 259
2817 201
2818 105
2819 189
2820 11
2821 589
2822 443
2823 209
2824 19
2825 259
2826 331
2827 157
2828 155
2829 190
2830 385
2831 202
2832 70
2833 239
2834 7
2835 586
2836 371
2837 186
2838 60
2839 529
2840 42
2841 66
2842 567
2843 123
2844 434
2845 268
2846 549
2847 434
2848 229
2849 323
2850 385
2851 3
2852 93
2853 590
2854 350
2855 310
2856 308
2857 188
2858 344
2859 396
2860 196
2861 69
2862 442
2863 388
2864 345
2865 158
2866 554
2867 44
2868 503
2869 390
2870 110
2871 549
2872 248
2873 2
2874 470
2875 90
2876 591
2877 591
2878 130
2879 246
2880 79
2881 409
2882 353
2883 587
2884 592
2885 464
2886 366
2887 454
2888 464
2889 421
2890 307
2891 374
2892 413
2893 201
2894 593
2895 113
2896 155
2897 458
2898 160
2899 83
2900 545
2901 129
2902 127
2903 23
2904 54
2905 514
2906 56
2907 455
2908 470
2909 26
2910 158
2911 453
2912 191
2913 207
2914 466
2915 248
2916 67
2917 507
2918 118
2919 468
2920 128
2921 93
2922 475
2923 256
2924 349
2925 594
2926 262
2927 437
2928 228
2929 23
2930 335
2931 293
2932 349
2933 529
2934 365
2935 332
2936 247
2937 176
2938 256
2939 517
2940 113
2941 54
2942 131
2943 206
2944 27
2945 149
2946 327
2947 415
2948 230
2949 218
2950 111
2951 373
2952 232
2953 255
2954 470
2955 372
2956 318
2957 58
2958 16
2959 295
2960 333
2961 396
2962 476
2963 595
2964 500
2965 70
2966 381
2967 507
2968 353
2969 165
2970 289
2971 596
2972 433
2973 247
2974 60
2975 434
2976 597
2977 598
2978 146
2979 155
2980 507
2981 424
2982 287
2983 494
2984 599
2985 600
2986 232
2987 437
2988 284
2989 413
2990 288
2991 542
2992 467
2993 341
2994 353
2995 91
2996 59
2997 362
2998 127
2999 194
3000 310
3001 341
3002 31
3003 54
3004 255
3005 235
3006 501
3007 256
3008 144
3009 529
3010 442
3011 160
3012 84
3013 104
3014 348
3015 397
3016 432
3017 85
3018 296
3019 121
3020 56
3021 125
3022 280
3023 370
3024 413
3025 52
3026 164
3027 127
3028 90
3029 517
3030 60
3031 284
3032 158
3033 32
3034 601
3035 470
3036 456
3037 549
3038 246
3039 296
3040 122
3041 109
3042 122
3043 355
3044 326
3045 4
3046 134
3047 343
3048 484
3049 260
3050 209
3051 206
3052 602
3053 455
3054 491
3055 1
3056 389
3057 63
3058 445
3059 603
3060 130
3061 3
3062 140
3063 344
3064 49
3065 270
3066 564
3067 60
3068 184
3069 24
3070 190
3071 341
3072 2
3073 573
3074 417
3075 256
3076 252
3077 41
3078 52
3079 82
3080 262
3081 299
3082 182
3083 468
3084 256
3085 517
3086 2
3087 404
3088 228
3089 289
3090 191
3091 412
3092 468
3093 140
3094 133
3095 133
3096 27
3097 201
3098 423
3099 500
3100 500
3101 218
3102 417
3103 186
3104 195
3105 178
3106 349
3107 467
3108 262
3109 375
3110 127
3111 433
3112 93
3113 341
3114 1
3115 30
3116 586
3117 171
3118 73
3119 517
3120 164
3121 195
3122 192
3123 216
3124 295
3125 174
3126 326
3127 144
3128 204
3129 312
3130 331
3131 271
3132 505
3133 86
3134 205
3135 265
3136 37
3137 499
3138 517
3139 373
3140 140
3141 500
3142 355
3143 79
3144 426
3145 52
3146 482
3147 473
3148 196
3149 158
3150 167
3151 313
3152 282
3153 259
3154 500
3155 348
3156 190
3157 404
3158 392
3159 348
3160 441
3161 108
3162 125
3163 58
3164 529
3165 118
3166 489
3167 285
3168 144
3169 445
3170 313
3171 447
3172 265
3173 104
3174 154
3175 476
3176 192
3177 473
3178 97
3179 163
3180 222
3181 56
3182 303
3183 316
3184 83
3185 78
3186 207
3187 60
3188 85
3189 542
3190 412
3191 60
3192 405
3193 182
3194 309
3195 120
3196 492
3197 111
3198 132
3199 383
3200 303
3201 128
3202 260
3203 348
3204 307
3205 66
3206 222
3207 260
3208 408
3209 86
3210 30
3211 192
3212 566
3213 216
3214 423
3215 10
3216 248
3217 80
3218 135
3219 199
3220 355
3221 19
3222 289
3223 144
3224 353
3225 392
3226 34
3227 110
3228 559
3229 381
3230 146
3231 458
3232 492
3233 182
3234 160
3235 296
3236 240
3237 341
3238 331
3239 85
3240 353
3241 22
3242 345
3243 183
3244 473
3245 23
3246 154
3247 311
3248 78
3249 428
3250 114
3251 341
3252 344
3253 500
3254 426
3255 152
3256 200
3257 554
3258 262
3259 4
3260 309
3261 296
3262 402
3263 219
3264 529
3265 284
3266 534
3267 473
3268 104
3269 299
3270 141
3271 63
3272 150
3273 356
3274 84
3275 229
3276 439
3277 413
3278 420
3279 192
3280 250
3281 130
3282 604
3283 190
3284 155
3285 335
3286 494
3287 63
3288 87
3289 293
3290 470
3291 290
3292 73
3293 392
3294 186
3295 350
3296 304
3297 329
3298 142
3299 129
3300 11
3301 219
3302 146
3303 66
3304 283
3305 128
3306 350
3307 45
3308 158
3309 204
3310 132
3311 422
3312 345
3313 494
3314 518
3315 283
3316 137
3317 441
3318 72
3319 539
3320 186
3321 310
3322 133
3323 23
3324 426
3325 179
3326 526
3327 400
3328 52
3329 232
3330 283
3331 205
3332 582
3333 489
3334 314
3335 304
3336 289
3337 368
3338 137
3339 250
3340 22
3341 341
3342 218
3343 341
3344 388
3345 529
3346 427
3347 229
3348 149
3349 403
3350 30
3351 218
3352 160
3353 476
3354 258
3355 59
3356 216
3357 371
3358 413
3359 445
3360 260
3361 605
3362 242
3363 247
3364 467
3365 370
3366 190
3367 567
3368 364
3369 146
3370 164
3371 11
3372 193
3373 371
3374 158
3375 358
3376 514
3377 507
3378 18
3379 353
3380 45
3381 437
3382 82
3383 153
3384 374
3385 15
3386 267
3387 289
3388 121
3389 23
3390 529
3391 206
3392 164
3393 260
3394 222
3395 479
3396 542
3397 43
3398 130
3399 350
3400 209
3401 10
3402 63
3403 470
3404 55
3405 382
3406 336
3407 510
3408 241
3409 133
3410 190
3411 582
3412 146
3413 606
3414 256
3415 226
3416 90
3417 604
3418 98
3419 451
3420 0
3421 155
3422 350
3423 439
3424 449
3425 353
3426 223
3427 604
3428 135
3429 193
3430 607
3431 461
3432 200
3433 152
3434 437
3435 226
3436 381
3437 125
3438 91
3439 296
3440 171
3441 436
3442 250
3443 164
3444 441
3445 22
3446 153
3447 331
3448 517
3449 349
3450 30
3451 517
3452 547
3453 515
3454 128
3455 200
3456 348
3457 148
3458 514
3459 22
3460 567
3461 296
3462 65
3463 152
3464 441
3465 128
3466 78
3467 210
3468 553
3469 295
3470 353
3471 371
3472 125
3473 464
3474 99
3475 283
3476 15
3477 153
3478 238
3479 59
3480 190
3481 44
3482 436
3483 56
3484 289
3485 262
3486 56
3487 441
3488 165
3489 455
3490 296
3491 453
3492 347
3493 103
3494 441
3495 28
3496 52
3497 156
3498 100
3499 54
3500 283
3501 608
3502 281
3503 354
3504 445
3505 108
3506 576
3507 154
3508 85
3509 437
3510 84
3511 588
3512 127
3513 436
3514 50
3515 41
3516 500
3517 34
3518 262
3519 526
3520 262
3521 411
3522 76
3523 364
3524 349
3525 43
3526 405
3527 444
3528 336
3529 99
3530 331
3531 408
3532 93
3533 225
3534 609
3535 445
3536 473
3537 559
3538 262
3539 174
3540 182
3541 146
3542 80
3543 410
3544 41
3545 306
3546 306
3547 526
3548 190
3549 34
3550 104
3551 294
3552 240
3553 156
3554 140
3555 55
3556 470
3557 144
3558 218
3559 80
3560 362
3561 270
3562 351
3563 349
3564 307
3565 438
3566 127
3567 248
3568 394
3569 308
3570 451
3571 284
3572 426
3573 190
3574 130
3575 444
3576 308
3577 349
3578 293
3579 41
3580 362
3581 150
3582 432
3583 306
3584 111
3585 260
3586 352
3587 214
3588 89
3589 112
3590 187
3591 54
3592 231
3593 23
3594 610
3595 408
3596 436
3597 259
3598 611
3599 130
3600 500
3601 612
3602 481
3603 355
3604 337
3605 526
3606 75
3607 178
3608 499
3609 107
3610 20
3611 54
3612 293
3613 613
3614 232
3615 456
3616 18
3617 388
3618 388
3619 192
3620 85
3621 375
3622 455
3623 474
3624 510
3625 419
3626 106
3627 293
3628 225
3629 200
3630 444
3631 10
3632 112
3633 205
3634 381
3635 80
3636 296
3637 348
3638 205
3639 265
3640 59
3641 272
3642 146
3643 108
3644 222
3645 382
3646 437
3647 43
3648 73
3649 57
3650 366
3651 223
3652 87
3653 342
3654 354
3655 260
3656 49
3657 293
3658 52
3659 186
3660 308
3661 86
3662 353
3663 44
3664 453
3665 203
3666 408
3667 305
3668 189
3669 552
3670 167
3671 346
3672 430
3673 508
3674 166
3675 51
3676 331
3677 55
3678 370
3679 504
3680 93
3681 470
3682 112
3683 438
3684 350
3685 269
3686 79
3687 389
3688 503
3689 190
3690 569
3691 509
3692 130
3693 152
3694 78
3695 525
3696 517
3697 560
3698 284
3699 408
3700 19
3701 444
3702 240
3703 400
3704 437
3705 614
3706 526
3707 398
3708 366
3709 308
3710 131
3711 132
3712 494
3713 615
3714 150
3715 127
3716 158
3717 554
3718 616
3719 385
3720 411
3721 314
3722 167
3723 303
3724 218
3725 86
3726 502
3727 99
3728 552
3729 153
3730 99
3731 389
3732 82
3733 271
3734 128
3735 145
3736 439
3737 349
3738 280
3739 77
3740 322
3741 262
3742 264
3743 167
3744 190
3745 164
3746 190
3747 65
3748 374
3749 183
3750 128
3751 200
3752 443
3753 545
3754 4
3755 526
3756 99
3757 362
3758 491
3759 304
3760 366
3761 268
3762 313
3763 364
3764 422
3765 153
3766 302
3767 72
3768 588
3769 52
3770 183
3771 312
3772 61
3773 441
3774 335
3775 206
3776 31
3777 445
3778 312
3779 331
3780 607
3781 241
3782 153
3783 288
3784 416
3785 527
3786 298
3787 33
3788 494
3789 164
3790 212
3791 31
3792 296
3793 556
3794 381
3795 353
3796 617
3797 436
3798 32
3799 424
3800 464
3801 79
3802 203
3803 205
3804 93
3805 345
3806 555
3807 235
3808 362
3809 571
3810 200
3811 13
3812 79
3813 394
3814 229
3815 214
3816 284
3817 79
3818 313
3819 80
3820 91
3821 132
3822 266
3823 235
3824 58
3825 618
3826 86
3827 312
3828 411
3829 396
3830 20
3831 158
3832 183
3833 37
3834 152
3835 284
3836 23
3837 272
3838 530
3839 127
3840 451
3841 392
3842 434
3843 131
3844 306
3845 127
3846 275
3847 349
3848 531
3849 606
3850 233
3851 289
3852 108
3853 441
3854 138
3855 88
3856 427
3857 307
3858 186
3859 106
3860 195
3861 406
3862 416
3863 424
3864 317
3865 451
3866 167
3867 500
3868 619
3869 259
3870 555
3871 80
3872 455
3873 73
3874 447
3875 385
3876 200
3877 90
3878 367
3879 415
3880 79
3881 434
3882 305
3883 336
3884 464
3885 327
3886 340
3887 350
3888 620
3889 239
3890 308
3891 67
3892 83
3893 365
3894 4
3895 420
3896 335
3897 282
3898 464
3899 261
3900 542
3901 476
3902 155
3903 105
3904 186
3905 301
3906 480
3907 464
3908 191
3909 305
3910 94
3911 331
3912 248
3913 530
3914 431
3915 225
3916 79
3917 304
3918 342
3919 329
3920 176
3921 158
3922 458
3923 25
3924 44
3925 80
3926 356
3927 8
3928 572
3929 479
3930 115
3931 158
3932 380
3933 273
3934 130
3935 228
3936 50
3937 3
3938 54
3939 308
3940 248
3941 517
3942 564
3943 112
3944 356
3945 326
3946 262
3947 129
3948 229
3949 412
3950 54
3951 248
3952 190
3953 14
3954 279
3955 424
3956 93
3957 443
3958 204
3959 254
3960 412
3961 70
3962 356
3963 366
3964 219
3965 314
3966 158
3967 242
3968 357
3969 546
3970 434
3971 366
3972 346
3973 286
3974 254
3975 307
3976 377
3977 70
3978 588
3979 290
3980 307
3981 424
3982 308
3983 365
3984 467
3985 223
3986 295
3987 93
3988 23
3989 421
3990 464
3991 342
3992 4
3993 455
3994 290
3995 25
3996 438
3997 514
3998 467
3999 517
4000 295
4001 102
4002 282
4003 296
4004 3
4005 172
4006 421
4007 327
4008 48
4009 121
4010 223
4011 178
4012 191
4013 353
4014 54
4015 72
4016 327
4017 190
4018 201
4019 293
4020 322
4021 70
4022 526
4023 335
4024 554
4025 34
4026 243
4027 16
4028 30
4029 476
4030 359
4031 455
4032 459
4033 49
4034 378
4035 562
4036 0
4037 314
4038 501
4039 23
4040 212
4041 469
4042 526
4043 447
4044 374
4045 207
4046 353
4047 348
4048 561
4049 351
4050 127
4051 296
4052 13
4053 335
4054 375
4055 409
4056 374
4057 464
4058 241
4059 55
4060 206
4061 542
4062 413
4063 546
4064 467
4065 381
4066 99
4067 200
4068 158
4069 294
4070 150
4071 88
4072 256
4073 514
4074 330
4075 266
4076 481
4077 574
4078 79
4079 221
4080 203
4081 374
4082 150
4083 434
4084 84
4085 4
4086 353
4087 290
4088 191
4089 93
4090 207
4091 427
4092 467
4093 59
4094 484
4095 404
4096 2
4097 314
4098 167
4099 599
4100 266
4101 262
4102 472
4103 77
4104 289
4105 66
4106 222
4107 468
4108 323
4109 453
4110 494
4111 621
4112 78
4113 203
4114 494
4115 206
4116 125
4117 80
4118 458
4119 441
4120 622
4121 206
4122 17
4123 554
4124 436
4125 242
4126 512
4127 63
4128 394
4129 392
4130 455
4131 83
4132 241
4133 441
4134 205
4135 295
4136 302
4137 96
4138 354
4139 314
4140 455
4141 623
4142 355
4143 79
4144 203
4145 526
4146 392
4147 215
4148 424
4149 138
4150 200
4151 329
4152 146
4153 458
4154 286
4155 265
4156 346
4157 201
4158 61
4159 435
4160 129
4161 183
4162 76
4163 191
4164 104
4165 601
4166 111
4167 79
4168 165
4169 70
4170 363
4171 256
4172 34
4173 195
4174 304
4175 484
4176 249
4177 374
4178 149
4179 200
4180 93
4181 346
4182 455
4183 125
4184 391
4185 174
4186 461
4187 78
4188 426
4189 481
4190 314
4191 100
4192 23
4193 455
4194 434
4195 193
4196 424
4197 541
4198 79
4199 576
4200 263
4201 31
4202 195
4203 349
4204 624
4205 164
4206 301
4207 288
4208 171
4209 353
4210 122
4211 83
4212 391
4213 411
4214 625
4215 193
4216 353
4217 255
4218 296
4219 415
4220 167
4221 221
4222 542
4223 455
4224 467
4225 559
4226 171
4227 270
4228 80
4229 375
4230 195
4231 174
4232 327
4233 60
4234 303
4235 79
4236 3
4237 464
4238 190
4239 308
4240 67
4241 281
4242 364
4243 89
4244 168
4245 79
4246 536
4247 41
4248 249
4249 227
4250 339
4251 355
4252 181
4253 201
4254 81
4255 191
4256 545
4257 83
4258 530
4259 18
4260 362
4261 484
4262 375
4263 84
4264 284
4265 273
4266 76
4267 204
4268 168
4269 346
4270 167
4271 108
4272 426
4273 83
4274 408
4275 110
4276 391
4277 63
4278 154
4279 56
4280 150
4281 391
4282 476
4283 131
4284 22
4285 238
4286 441
4287 128
4288 203
4289 392
4290 390
4291 514
4292 534
4293 208
4294 353
4295 626
4296 353
4297 434
4298 193
4299 261
4300 353
4301 627
4302 560
4303 468
4304 451
4305 424
4306 207
4307 318
4308 204
4309 354
4310 80
4311 603
4312 337
4313 93
4314 59
4315 223
4316 221
4317 79
4318 140
4319 429
4320 162
4321 412
4322 19
4323 193
4324 23
4325 3
4326 353
4327 628
4328 202
4329 439
4330 256
4331 526
4332 109
4333 426
4334 164
4335 171
4336 240
4337 225
4338 424
4339 375
4340 426
4341 31
4342 370
4343 32
4344 353
4345 206
4346 168
4347 255
4348 192
4349 421
4350 201
4351 531
4352 229
4353 468
4354 306
4355 33
4356 193
4357 79
4358 70
4359 440
4360 388
4361 174
4362 4
4363 401
4364 289
4365 44
4366 492
4367 142
4368 464
4369 108
4370 356
4371 439
4372 86
4373 335
4374 388
4375 112
4376 69
4377 413
4378 186
4379 473
4380 293
4381 374
4382 327
4383 414
4384 303
4385 254
4386 417
4387 93
4388 382
4389 413
4390 401
4391 458
4392 375
4393 23
4394 336
4395 229
4396 289
4397 625
4398 370
4399 203
4400 167
4401 410
4402 129
4403 455
4404 140
4405 289
4406 327
4407 164
4408 226
4409 284
4410 84
4411 52
4412 249
4413 133
4414 370
4415 60
4416 18
4417 218
4418 424
4419 267
4420 314
4421 81
4422 108
4423 81
4424 535
4425 434
4426 153
4427 470
4428 403
4429 84
4430 56
4431 386
4432 269
4433 185
4434 142
4435 186
4436 130
4437 540
4438 346
4439 289
4440 393
4441 55
4442 365
4443 495
4444 76
4445 85
4446 514
4447 190
4448 278
4449 385
4450 55
4451 374
4452 193
4453 451
4454 140
4455 140
4456 31
4457 3
4458 335
4459 467
4460 537
4461 303
4462 608
4463 209
4464 360
4465 353
4466 0
4467 477
4468 346
4469 16
4470 210
4471 98
4472 28
4473 20
4474 345
4475 336
4476 529
4477 409
4478 370
4479 347
4480 370
4481 555
4482 307
4483 150
4484 212
4485 4
4486 247
4487 303
4488 396
4489 492
4490 155
4491 299
4492 191
4493 623
4494 221
4495 125
4496 441
4497 201
4498 307
4499 330
4500 463
4501 308
4502 370
4503 381
4504 612
4505 306
4506 225
4507 443
4508 350
4509 271
4510 236
4511 307
4512 127
4513 314
4514 479
4515 186
4516 389
4517 524
4518 168
4519 146
4520 342
4521 164
4522 514
4523 560
4524 370
4525 289
4526 517
4527 411
4528 388
4529 222
4530 79
4531 429
4532 165
4533 79
4534 530
4535 476
4536 160
4537 424
4538 18
4539 410
4540 434
4541 45
4542 305
4543 282
4544 508
4545 168
4546 505
4547 559
4548 181
4549 100
4550 517
4551 186
4552 569
4553 108
4554 112
4555 398
4556 443
4557 234
4558 424
4559 55
4560 156
4561 331
4562 225
4563 505
4564 150
4565 304
4566 109
4567 501
4568 107
4569 260
4570 487
4571 69
4572 112
4573 45
4574 139
4575 207
4576 529
4577 55
4578 144
4579 214
4580 141
4581 225
4582 49
4583 171
4584 121
4585 4
4586 531
4587 470
4588 71
4589 381
4590 434
4591 16
4592 91
4593 601
4594 308
4595 514
4596 6
4597 414
4598 59
4599 441
4600 492
4601 180
4602 318
4603 19
4604 550
4605 234
4606 4
4607 404
4608 207
4609 362
4610 388
4611 73
4612 480
4613 148
4614 400
4615 430
4616 280
4617 27
4618 195
4619 237
4620 91
4621 344
4622 427
4623 140
4624 134
4625 85
4626 500
4627 14
4628 374
4629 30
4630 125
4631 547
4632 568
4633 90
4634 192
4635 26
4636 13
4637 585
4638 18
4639 49
4640 421
4641 149
4642 363
4643 346
4644 529
4645 344
4646 531
4647 345
4648 294
4649 63
4650 600
4651 52
4652 99
4653 366
4654 164
4655 586
4656 410
4657 424
4658 143
4659 484
4660 225
4661 20
4662 501
4663 240
4664 79
4665 249
4666 361
4667 200
4668 480
4669 55
4670 389
4671 283
4672 243
4673 104
4674 240
4675 414
4676 73
4677 45
4678 294
4679 344
4680 19
4681 562
4682 449
4683 552
4684 4
4685 155
4686 33
4687 144
4688 207
4689 336
4690 19
4691 216
4692 366
4693 263
4694 183
4695 79
4696 520
4697 226
4698 573
4699 582
4700 30
4701 439
4702 63
4703 418
4704 571
4705 554
4706 105
4707 145
4708 80
4709 421
4710 128
4711 284
4712 182
4713 486
4714 13
4715 146
4716 30
4717 323
4718 346
4719 248
4720 272
4721 178
4722 451
4723 335
4724 358
4725 589
4726 167
4727 86
4728 20
4729 99
4730 54
4731 140
4732 4
4733 42
4734 90
4735 411
4736 78
4737 526
4738 86
4739 222
4740 451
4741 440
4742 430
4743 53
4744 284
4745 348
4746 108
4747 517
4748 583
4749 629
4750 248
4751 252
4752 56
4753 156
4754 223
4755 517
4756 421
4757 327
4758 517
4759 318
4760 312
4761 60
4762 204
4763 78
4764 56
4765 114
4766 233
4767 94
4768 305
4769 86
4770 473
4771 207
4772 146
4773 221
4774 156
4775 234
4776 207
4777 407
4778 229
4779 216
4780 79
4781 33
4782 415
4783 470
4784 350
4785 229
4786 542
4787 369
4788 509
4789 527
4790 259
4791 314
4792 437
4793 191
4794 422
4795 288
4796 555
4797 327
4798 342
4799 353
4800 372
4801 256
4802 313
4803 473
4804 374
4805 51
4806 127
4807 622
4808 64
4809 630
4810 237
4811 409
4812 355
4813 160
4814 386
4815 90
4816 347
4817 255
4818 229
4819 95
4820 517
4821 146
4822 212
4823 444
4824 198
4825 612
4826 235
4827 402
4828 201
4829 170
4830 265
4831 234
4832 200
4833 311
4834 555
4835 441
4836 13
4837 218
4838 91
4839 351
4840 132
4841 95
4842 408
4843 455
4844 83
4845 314
4846 127
4847 175
4848 310
4849 86
4850 300
4851 467
4852 413
4853 549
4854 179
4855 218
4856 371
4857 389
4858 79
4859 447
4860 434
4861 296
4862 91
4863 131
4864 158
4865 379
4866 56
4867 411
4868 207
4869 464
4870 194
4871 290
4872 445
4873 503
4874 413
4875 90
4876 408
4877 455
4878 426
4879 218
4880 207
4881 363
4882 112
4883 283
4884 356
4885 282
4886 247
4887 363
4888 333
4889 402
4890 81
4891 255
4892 290
4893 312
4894 434
4895 476
4896 59
4897 140
4898 584
4899 459
4900 542
4901 441
4902 408
4903 402
4904 160
4905 471
4906 455
4907 259
4908 191
4909 293
4910 341
4911 144
4912 131
4913 23
4914 90
4915 18
4916 301
4917 99
4918 131
4919 301
4920 145
4921 79
4922 153
4923 247
4924 176
4925 480
4926 235
4927 90
4928 631
4929 350
4930 464
4931 437
4932 132
4933 122
4934 239
4935 344
4936 143
4937 464
4938 516
4939 122
4940 34
4941 75
4942 445
4943 273
4944 419
4945 140
4946 227
4947 162
4948 440
4949 382
4950 357
4951 262
4952 60
4953 371
4954 447
4955 293
4956 461
4957 426
4958 416
4959 396
4960 411
4961 545
4962 156
4963 38
4964 318
4965 54
4966 122
4967 95
4968 23
4969 286
4970 283
4971 229
4972 307
4973 283
4974 507
4975 290
4976 467
4977 206
4978 318
4979 542
4980 140
4981 295
4982 90
4983 78
4984 313
4985 173
4986 312
4987 186
4988 279
4989 3
4990 436
4991 290
4992 535
4993 476
4994 74
4995 411
4996 229
4997 403
4998 381
4999 476
5000 295
5001 111
5002 396
5003 289
5004 473
5005 223
5006 164
5007 248
5008 91
5009 169
5010 173
5011 209
5012 52
5013 470
5014 326
5015 127
5016 374
5017 468
5018 16
5019 255
5020 83
5021 31
5022 457
5023 420
5024 255
5025 309
5026 118
5027 229
5028 381
5029 364
5030 600
5031 371
5032 542
5033 260
5034 34
5035 2
5036 54
5037 374
5038 14
5039 514
5040 414
5041 464
5042 413
5043 73
5044 52
5045 219
5046 464
5047 630
5048 565
5049 79
5050 341
5051 140
5052 295
5053 283
5054 470
5055 348
5056 259
5057 215
5058 13
5059 158
5060 277
5061 309
5062 424
5063 352
5064 246
5065 424
5066 282
5067 296
5068 314
5069 632
5070 160
5071 117
5072 277
5073 192
5074 408
5075 64
5076 335
5077 23
5078 458
5079 293
5080 95
5081 84
5082 73
5083 247
5084 325
5085 569
5086 197
5087 284
5088 295
5089 542
5090 85
5091 622
5092 160
5093 80
5094 354
5095 174
5096 452
5097 529
5098 164
5099 423
5100 466
5101 155
5102 414
5103 293
5104 617
5105 288
5106 1
5107 549
5108 186
5109 83
5110 437
5111 258
5112 395
5113 85
5114 553
5115 150
5116 238
5117 364
5118 375
5119 443
5120 52
5121 342
5122 192
5123 186
5124 327
5125 63
5126 349
5127 155
5128 284
5129 127
5130 313
5131 314
5132 370
5133 91
5134 378
5135 179
5136 349
5137 19
5138 396
5139 351
5140 385
5141 458
5142 153
5143 437
5144 171
5145 529
5146 56
5147 207
5148 18
5149 421
5150 492
5151 96
5152 146
5153 160
5154 292
5155 183
5156 607
5157 341
5158 96
5159 366
5160 262
5161 396
5162 191
5163 391
5164 335
5165 470
5166 175
5167 396
5168 468
5169 229
5170 85
5171 470
5172 464
5173 267
5174 61
5175 193
5176 500
5177 463
5178 204
5179 396
5180 349
5181 517
5182 122
5183 542
5184 391
5185 302
5186 259
5187 441
5188 420
5189 321
5190 93
5191 1
5192 342
5193 341
5194 256
5195 13
5196 206
5197 492
5198 426
5199 160
5200 132
5201 127
5202 351
5203 283
5204 248
5205 411
5206 167
5207 303
5208 350
5209 490
5210 68
5211 271
5212 76
5213 423
5214 350
5215 592
5216 623
5217 411
5218 521
5219 438
5220 476
5221 90
5222 335
5223 82
5224 297
5225 421
5226 174
5227 428
5228 500
5229 8
5230 451
5231 57
5232 219
5233 293
5234 207
5235 215
5236 207
5237 470
5238 303
5239 445
5240 82
5241 192
5242 33
5243 262
5244 80
5245 381
5246 33
5247 426
5248 500
5249 284
5250 247
5251 436
5252 408
5253 81
5254 308
5255 26
5256 90
5257 344
5258 468
5259 263
5260 527
5261 158
5262 130
5263 307
5264 204
5265 108
5266 77
5267 211
5268 160
5269 339
5270 19
5271 129
5272 7
5273 30
5274 451
5275 58
5276 82
5277 375
5278 352
5279 341
5280 473
5281 200
5282 260
5283 437
5284 499
5285 376
5286 99
5287 508
5288 19
5289 284
5290 363
5291 31
5292 144
5293 205
5294 238
5295 255
5296 22
5297 420
5298 523
5299 526
5300 366
5301 476
5302 31
5303 534
5304 470
5305 2
5306 457
5307 518
5308 91
5309 355
5310 500
5311 210
5312 180
5313 331
5314 220
5315 396
5316 232
5317 370
5318 218
5319 262
5320 618
5321 331
5322 282
5323 450
5324 329
5325 371
5326 303
5327 360
5328 99
5329 219
5330 146
5331 540
5332 127
5333 436
5334 349
5335 331
5336 411
5337 175
5338 222
5339 150
5340 200
5341 153
5342 85
5343 13
5344 263
5345 73
5346 127
5347 44
5348 173
5349 82
5350 362
5351 150
5352 222
5353 346
5354 235
5355 191
5356 413
5357 421
5358 44
5359 54
5360 411
5361 427
5362 530
5363 392
5364 92
5365 284
5366 307
5367 366
5368 438
5369 427
5370 248
5371 538
5372 530
5373 489
5374 70
5375 33
5376 256
5377 478
5378 256
5379 364
5380 225
5381 294
5382 70
5383 415
5384 222
5385 441
5386 93
5387 19
5388 375
5389 473
5390 284
5391 229
5392 505
5393 218
5394 229
5395 619
5396 451
5397 45
5398 31
5399 467
5400 356
5401 191
5402 414
5403 104
5404 63
5405 632
5406 508
5407 464
5408 130
5409 341
5410 296
5411 155
5412 248
5413 431
5414 452
5415 289
5416 581
5417 341
5418 164
5419 133
5420 78
5421 127
5422 31
5423 248
5424 171
5425 347
5426 348
5427 500
5428 445
5429 441
5430 353
5431 200
5432 494
5433 54
5434 186
5435 445
5436 70
5437 23
5438 256
5439 248
5440 225
5441 193
5442 346
5443 60
5444 260
5445 110
5446 60
5447 306
5448 130
5449 628
5450 404
5451 307
5452 127
5453 441
5454 371
5455 214
5456 260
5457 118
5458 364
5459 464
5460 529
5461 26
5462 470
5463 294
5464 265
5465 50
5466 350
5467 500
5468 226
5469 248
5470 193
5471 176
5472 184
5473 155
5474 623
5475 422
5476 401
5477 228
5478 193
5479 355
5480 521
5481 203
5482 302
5483 633
5484 178
5485 262
5486 239
5487 130
5488 271
5489 351
5490 470
5491 144
5492 341
5493 93
5494 453
5495 444
5496 201
5497 18
5498 331
5499 34
5500 137
5501 445
5502 211
5503 23
5504 98
5505 528
5506 431
5507 366
5508 219
5509 130
5510 33
5511 362
5512 437
5513 411
5514 2
5515 504
5516 130
5517 80
5518 125
5519 408
5520 290
5521 437
5522 410
5523 200
5524 501
5525 390
5526 473
5527 56
5528 255
5529 353
5530 506
5531 433
5532 304
5533 78
5534 516
5535 229
5536 546
5537 293
5538 450
5539 31
5540 210
5541 91
5542 355
5543 290
5544 512
5545 216
5546 465
5547 349
5548 335
5549 441
5550 634
5551 392
5552 262
5553 312
5554 305
5555 270
5556 76
5557 353
5558 31
5559 600
5560 307
5561 366
5562 22
5563 101
5564 392
5565 326
5566 216
5567 167
5568 294
5569 33
5570 216
5571 396
5572 248
5573 621
5574 43
5575 494
5576 356
5577 94
5578 147
5579 112
5580 283
5581 308
5582 206
5583 308
5584 190
5585 392
5586 153
5587 417
5588 268
5589 253
5590 228
5591 232
5592 578
5593 292
5594 108
5595 49
5596 326
5597 91
5598 127
5599 329
5600 214
5601 248
5602 43
5603 155
5604 270
5605 216
5606 60
5607 459
5608 295
5609 489
5610 312
5611 500
5612 154
5613 451
5614 350
5615 167
5616 437
5617 31
5618 336
5619 71
5620 216
5621 100
5622 219
5623 99
5624 303
5625 407
5626 99
5627 620
5628 144
5629 193
5630 48
5631 517
5632 271
5633 529
5634 381
5635 455
5636 351
5637 248
5638 60
5639 419
5640 158
5641 85
5642 302
5643 474
5644 464
5645 306
5646 500
5647 428
5648 112
5649 203
5650 447
5651 162
5652 345
5653 108
5654 218
5655 130
5656 87
5657 262
5658 262
5659 261
5660 46
5661 112
5662 498
5663 45
5664 441
5665 60
5666 284
5667 108
5668 78
5669 260
5670 259
5671 436
5672 4
5673 54
5674 529
5675 450
5676 198
5677 164
5678 5
5679 464
5680 223
5681 249
5682 554
5683 31
5684 621
5685 393
5686 86
5687 248
5688 331
5689 203
5690 232
5691 93
5692 185
5693 306
5694 385
5695 114
5696 54
5697 260
5698 429
5699 289
5700 76
5701 112
5702 78
5703 31
5704 411
5705 133
5706 468
5707 336
5708 336
5709 342
5710 441
5711 196
5712 108
5713 468
5714 116
5715 278
5716 216
5717 346
5718 216
5719 529
5720 33
5721 154
5722 130
5723 281
5724 97
5725 70
5726 116
5727 264
5728 495
5729 146
5730 34
5731 248
5732 408
5733 271
5734 470
5735 152
5736 203
5737 255
5738 225
5739 130
5740 428
5741 285
5742 439
5743 218
5744 255
5745 416
5746 168
5747 388
5748 222
5749 342
5750 441
5751 293
5752 536
5753 23
5754 150
5755 353
5756 272
5757 461
5758 219
5759 396
5760 248
5761 313
5762 585
5763 420
5764 49
5765 134
5766 108
5767 464
5768 351
5769 470
5770 147
5771 206
5772 4
5773 468
5774 305
5775 304
5776 76
5777 9
5778 492
5779 78
5780 254
5781 259
5782 219
5783 441
5784 494
5785 283
5786 183
5787 375
5788 426
5789 313
5790 455
5791 60
5792 349
5793 34
5794 478
5795 479
5796 438
5797 79
5798 307
5799 350
5800 167
5801 451
5802 302
5803 347
5804 275
5805 55
5806 500
5807 144
5808 364
5809 73
5810 342
5811 307
5812 243
5813 410
5814 332
5815 290
5816 203
5817 357
5818 441
5819 323
5820 223
5821 397
5822 229
5823 360
5824 514
5825 82
5826 371
5827 424
5828 219
5829 155
5830 335
5831 131
5832 67
5833 592
5834 469
5835 494
5836 170
5837 542
5838 130
5839 158
5840 194
5841 272
5842 57
5843 403
5844 312
5845 107
5846 88
5847 451
5848 200
5849 512
5850 179
5851 116
5852 218
5853 133
5854 78
5855 223
5856 206
5857 354
5858 443
5859 409
5860 542
5861 471
5862 635
5863 229
5864 202
5865 507
5866 175
5867 468
5868 573
5869 470
5870 415
5871 410
5872 555
5873 443
5874 153
5875 97
5876 284
5877 601
5878 153
5879 281
5880 312
5881 319
5882 283
5883 86
5884 35
5885 4
5886 436
5887 119
5888 346
5889 200
5890 86
5891 427
5892 108
5893 529
5894 346
5895 428
5896 207
5897 223
5898 617
5899 119
5900 331
5901 282
5902 385
5903 351
5904 9
5905 158
5906 112
5907 479
5908 209
5909 372
5910 223
5911 248
5912 3
5913 433
5914 471
5915 289
5916 79
5917 542
5918 238
5919 305
5920 308
5921 441
5922 470
5923 450
5924 66
5925 86
5926 296
5927 414
5928 31
5929 104
5930 144
5931 4
5932 253
5933 368
5934 90
5935 375
5936 244
5937 4
5938 214
5939 93
5940 518
5941 364
5942 219
5943 85
5944 99
5945 221
5946 208
5947 80
5948 526
5949 293
5950 60
5951 530
5952 403
5953 133
5954 518
5955 289
5956 197
5957 51
5958 383
5959 90
5960 293
5961 429
5962 130
5963 455
5964 31
5965 318
5966 146
5967 308
5968 200
5969 112
5970 463
5971 119
5972 339
5973 243
5974 549
5975 462
5976 236
5977 225
5978 73
5979 451
5980 31
5981 289
5982 228
5983 267
5984 606
5985 162
5986 442
5987 580
5988 101
5989 192
5990 351
5991 209
5992 248
5993 467
5994 193
5995 421
5996 54
5997 280
5998 339
5999 388
6000 4
6001 455
6002 636
6003 190
6004 455
6005 464
6006 455
6007 373
6008 203
6009 122
6010 350
6011 420
6012 122
6013 82
6014 133
6015 202
6016 637
6017 295
6018 276
6019 230
6020 411
6021 451
6022 270
6023 248
6024 19
6025 307
6026 370
6027 396
6028 529
6029 249
6030 54
6031 419
6032 350
6033 150
6034 306
6035 3
6036 31
6037 326
6038 2
6039 443
6040 272
6041 346
6042 192
6043 509
6044 424
6045 355
6046 203
6047 588
6048 392
6049 500
6050 93
6051 19
6052 354
6053 72
6054 171
6055 202
6056 2
6057 79
6058 164
6059 467
6060 478
6061 289
6062 494
6063 630
6064 165
6065 584
6066 79
6067 232
6068 201
6069 434
6070 49
6071 149
6072 78
6073 451
6074 219
6075 229
6076 500
6077 73
6078 518
6079 472
6080 178
6081 164
6082 245
6083 464
6084 355
6085 513
6086 379
6087 19
6088 359
6089 624
6090 406
6091 83
6092 233
6093 79
6094 424
6095 30
6096 237
6097 349
6098 432
6099 463
6100 348
6101 468
6102 30
6103 84
6104 30
6105 476
6106 355
6107 78
6108 447
6109 467
6110 54
6111 355
6112 434
6113 479
6114 277
6115 169
6116 570
6117 229
6118 331
6119 228
6120 3
6121 463
6122 361
6123 408
6124 318
6125 232
6126 441
6127 308
6128 564
6129 350
6130 382
6131 436
6132 606
6133 70
6134 100
6135 210
6136 93
6137 111
6138 403
6139 494
6140 389
6141 432
6142 426
6143 212
6144 369
6145 19
6146 144
6147 261
6148 133
6149 324
6150 434
6151 30
6152 249
6153 67
6154 393
6155 182
6156 494
6157 72
6158 421
6159 464
6160 121
6161 590
6162 542
6163 107
6164 54
6165 201
6166 171
6167 279
6168 207
6169 307
6170 638
6171 464
6172 311
6173 327
6174 354
6175 22
6176 125
6177 445
6178 545
6179 153
6180 223
6181 302
6182 380
6183 424
6184 272
6185 364
6186 327
6187 390
6188 220
6189 146
6190 178
6191 411
6192 67
6193 302
6194 331
6195 192
6196 404
6197 394
6198 13
6199 476
6200 374
6201 304
6202 559
6203 308
6204 392
6205 223
6206 484
6207 171
6208 223
6209 361
6210 2
6211 158
6212 203
6213 221
6214 205
6215 313
6216 552
6217 238
6218 193
6219 370
6220 108
6221 4
6222 354
6223 384
6224 331
6225 219
6226 171
6227 186
6228 154
6229 303
6230 41
6231 76
6232 514
6233 313
6234 14
6235 455
6236 157
6237 182
6238 146
6239 416
6240 363
6241 240
6242 426
6243 514
6244 397
6245 313
6246 223
6247 240
6248 112
6249 439
6250 579
6251 1
6252 296
6253 204
6254 370
6255 206
6256 108
6257 122
6258 290
6259 146
6260 83
6261 55
6262 206
6263 350
6264 79
6265 146
6266 74
6267 164
6268 3
6269 58
6270 639
6271 174
6272 308
6273 294
6274 76
6275 346
6276 192
6277 203
6278 93
6279 533
6280 443
6281 3
6282 413
6283 57
6284 182
6285 295
6286 513
6287 79
6288 186
6289 106
6290 565
6291 203
6292 312
6293 188
6294 195
6295 46
6296 585
6297 153
6298 433
6299 441
6300 93
6301 225
6302 235
6303 19
6304 2
6305 303
6306 443
6307 66
6308 30
6309 128
6310 79
6311 195
6312 112
6313 430
6314 519
6315 83
6316 434
6317 241
6318 153
6319 19
6320 144
6321 140
6322 426
6323 208
6324 33
6325 479
6326 74
6327 364
6328 371
6329 412
6330 203
6331 212
6332 30
6333 600
6334 203
6335 374
6336 43
6337 205
6338 329
6339 110
6340 426
6341 85
6342 84
6343 370
6344 261
6345 308
6346 494
6347 93
6348 542
6349 394
6350 413
6351 379
6352 45
6353 290
6354 197
6355 500
6356 195
6357 583
6358 517
6359 93
6360 323
6361 167
6362 125
6363 238
6364 346
6365 80
6366 598
6367 468
6368 154
6369 195
6370 30
6371 117
6372 494
6373 225
6374 276
6375 54
6376 250
6377 30
6378 19
6379 44
6380 290
6381 501
6382 436
6383 80
6384 337
6385 327
6386 183
6387 421
6388 242
6389 426
6390 49
6391 3
6392 370
6393 133
6394 408
6395 421
6396 314
6397 354
6398 327
6399 354
6400 205
6401 312
6402 133
6403 307
6404 3
6405 302
6406 171
6407 131
6408 293
6409 225
6410 466
6411 528
6412 562
6413 141
6414 226
6415 143
6416 2
6417 413
6418 329
6419 549
6420 284
6421 610
6422 470
6423 172
6424 436
6425 417
6426 468
6427 33
6428 161
6429 514
6430 167
6431 160
6432 249
6433 430
6434 140
6435 78
6436 304
6437 499
6438 323
6439 133
6440 19
6441 467
6442 426
6443 225
6444 185
6445 413
6446 415
6447 344
6448 112
6449 513
6450 551
6451 374
6452 399
6453 18
6454 223
6455 207
6456 306
6457 206
6458 1
6459 147
6460 193
6461 30
6462 507
6463 59
6464 304
6465 105
6466 312
6467 396
6468 494
6469 157
6470 308
6471 575
6472 150
6473 496
6474 271
6475 468
6476 11
6477 354
6478 52
6479 174
6480 82
6481 413
6482 420
6483 102
6484 213
6485 140
6486 69
6487 228
6488 13
6489 149
6490 589
6491 90
6492 225
6493 66
6494 307
6495 455
6496 44
6497 494
6498 144
6499 494
6500 577
6501 447
6502 301
6503 231
6504 31
6505 112
6506 158
6507 394
6508 443
6509 27
6510 318
6511 93
6512 455
6513 443
6514 434
6515 117
6516 65
6517 283
6518 577
6519 295
6520 410
6521 374
6522 81
6523 3
6524 201
6525 284
6526 449
6527 167
6528 312
6529 263
6530 491
6531 470
6532 374
6533 508
6534 396
6535 207
6536 439
6537 579
6538 413
6539 207
6540 55
6541 307
6542 479
6543 624
6544 468
6545 388
6546 108
6547 45
6548 284
6549 108
6550 28
6551 505
6552 195
6553 108
6554 271
6555 542
6556 555
6557 434
6558 207
6559 308
6560 222
6561 182
6562 314
6563 85
6564 345
6565 632
6566 354
6567 127
6568 305
6569 565
6570 432
6571 171
6572 396
6573 352
6574 193
6575 371
6576 443
6577 341
6578 336
6579 201
6580 247
6581 349
6582 65
6583 188
6584 193
6585 83
6586 199
6587 538
6588 203
6589 125
6590 200
6591 80
6592 344
6593 344
6594 626
6595 608
6596 303
6597 13
6598 108
6599 514
6600 451
6601 569
6602 201
6603 125
6604 58
6605 381
6606 402
6607 19
6608 218
6609 342
6610 326
6611 517
6612 336
6613 283
6614 207
6615 423
6616 87
6617 286
6618 397
6619 293
6620 443
6621 31
6622 327
6623 36
6624 588
6625 52
6626 293
6627 99
6628 117
6629 600
6630 258
6631 376
6632 99
6633 98
6634 401
6635 441
6636 2
6637 544
6638 18
6639 388
6640 500
6641 271
6642 37
6643 1
6644 419
6645 31
6646 615
6647 601
6648 455
6649 18
6650 91
6651 178
6652 517
6653 271
6654 104
6655 63
6656 93
6657 640
6658 455
6659 105
6660 281
6661 289
6662 345
6663 415
6664 146
6665 327
6666 98
6667 366
6668 172
6669 517
6670 638
6671 476
6672 234
6673 406
6674 483
6675 370
6676 146
6677 405
6678 344
6679 10
6680 79
6681 425
6682 206
6683 441
6684 346
6685 205
6686 314
6687 19
6688 460
6689 349
6690 146
6691 155
6692 216
6693 78
6694 392
6695 308
6696 385
6697 140
6698 434
6699 241
6700 355
6701 425
6702 344
6703 480
6704 272
6705 504
6706 421
6707 371
6708 86
6709 590
6710 155
6711 443
6712 362
6713 49
6714 529
6715 140
6716 354
6717 388
6718 526
6719 263
6720 414
6721 396
6722 399
6723 414
6724 214
6725 390
6726 45
6727 385
6728 60
6729 82
6730 247
6731 52
6732 60
6733 388
6734 60
6735 604
6736 514
6737 519
6738 76
6739 200
6740 255
6741 342
6742 78
6743 327
6744 229
6745 371
6746 19
6747 312
6748 265
6749 339
6750 528
6751 38
6752 424
6753 471
6754 19
6755 154
6756 558
6757 484
6758 285
6759 125
6760 90
6761 144
6762 287
6763 63
6764 366
6765 274
6766 92
6767 608
6768 95
6769 327
6770 339
6771 95
6772 470
6773 60
6774 52
6775 112
6776 56
6777 109
6778 19
6779 256
6780 529
6781 588
6782 443
6783 30
6784 34
6785 408
6786 518
6787 517
6788 554
6789 384
6790 578
6791 300
6792 146
6793 100
6794 528
6795 137
6796 98
6797 293
6798 370
6799 137
6800 421
6801 561
6802 195
6803 495
6804 215
6805 140
6806 529
6807 404
6808 183
6809 388
6810 167
6811 240
6812 312
6813 587
6814 489
6815 60
6816 439
6817 73
6818 529
6819 374
6820 186
6821 565
6822 200
6823 201
6824 108
6825 426
6826 95
6827 4
6828 569
6829 261
6830 285
6831 54
6832 384
6833 296
6834 142
6835 127
6836 174
6837 2
6838 232
6839 255
6840 398
6841 408
6842 226
6843 283
6844 514
6845 410
6846 195
6847 271
6848 514
6849 66
6850 395
6851 608
6852 327
6853 99
6854 171
6855 362
6856 619
6857 201
6858 97
6859 186
6860 635
6861 229
6862 381
6863 461
6864 628
6865 132
6866 41
6867 295
6868 83
6869 314
6870 289
6871 406
6872 223
6873 34
6874 341
6875 32
6876 160
6877 341
6878 183
6879 420
6880 357
6881 95
6882 371
6883 501
6884 248
6885 350
6886 287
6887 380
6888 591
6889 437
6890 151
6891 473
6892 293
6893 411
6894 78
6895 523
6896 178
6897 4
6898 122
6899 98
6900 282
6901 2
6902 207
6903 314
6904 389
6905 271
6906 633
6907 6
6908 122
6909 92
6910 116
6911 362
6912 275
6913 366
6914 155
6915 81
6916 216
6917 225
6918 529
6919 171
6920 470
6921 514
6922 337
6923 125
6924 95
6925 374
6926 420
6927 426
6928 354
6929 241
6930 142
6931 606
6932 290
6933 73
6934 382
6935 358
6936 431
6937 472
6938 249
6939 581
6940 275
6941 232
6942 514
6943 26
6944 32
6945 215
6946 144
6947 186
6948 13
6949 408
6950 507
6951 341
6952 312
6953 411
6954 55
6955 190
6956 344
6957 207
6958 4
6959 547
6960 479
6961 439
6962 270
6963 436
6964 451
6965 473
6966 387
6967 389
6968 501
6969 55
6970 248
6971 209
6972 346
6973 232
6974 304
6975 245
6976 313
6977 229
6978 508
6979 441
6980 164
6981 6
6982 470
6983 146
6984 434
6985 424
6986 388
6987 144
6988 86
6989 476
6990 191
6991 464
6992 105
6993 476
6994 350
6995 355
6996 451
6997 252
6998 235
6999 253
7000 69
7001 316
7002 353
7003 14
7004 370
7005 73
7006 335
7007 424
7008 551
7009 227
7010 146
7011 149
7012 545
7013 191
7014 284
7015 50
7016 19
7017 411
7018 284
7019 314
7020 112
7021 165
7022 262
7023 293
7024 549
7025 131
7026 144
7027 50
7028 192
7029 259
7030 436
7031 112
7032 401
7033 289
7034 350
7035 283
7036 341
7037 182
7038 412
7039 91
7040 86
7041 434
7042 294
7043 323
7044 378
7045 529
7046 219
7047 204
7048 516
7049 23
7050 255
7051 204
7052 300
7053 146
7054 333
7055 500
7056 282
7057 144
7058 73
7059 248
7060 350
7061 23
7062 386
7063 224
7064 468
7065 396
7066 11
7067 558
7068 272
7069 349
7070 445
7071 50
7072 111
7073 19
7074 350
7075 350
7076 600
7077 445
7078 445
7079 365
7080 529
7081 241
7082 153
7083 56
7084 364
7085 99
7086 326
7087 529
7088 112
7089 461
7090 389
7091 470
7092 641
7093 468
7094 451
7095 614
7096 293
7097 118
7098 551
7099 3
7100 132
7101 368
7102 335
7103 295
7104 98
7105 260
7106 579
7107 373
7108 326
7109 144
7110 56
7111 350
7112 70
7113 539
7114 514
7115 371
7116 127
7117 476
7118 402
7119 458
7120 255
7121 169
7122 416
7123 204
7124 603
7125 396
7126 326
7127 218
7128 272
7129 61
7130 146
7131 98
7132 290
7133 160
7134 191
7135 154
7136 464
7137 60
7138 66
7139 187
7140 268
7141 288
7142 85
7143 408
7144 445
7145 323
7146 638
7147 78
7148 455
7149 117
7150 411
7151 54
7152 25
7153 208
7154 425
7155 6
7156 248
7157 259
7158 111
7159 84
7160 434
7161 83
7162 615
7163 464
7164 348
7165 262
7166 472
7167 219
7168 248
7169 284
7170 216
7171 348
7172 205
7173 174
7174 437
7175 364
7176 458
7177 82
7178 231
7179 111
7180 262
7181 23
7182 34
7183 473
7184 455
7185 206
7186 259
7187 621
7188 91
7189 30
7190 219
7191 598
7192 192
7193 408
7194 258
7195 377
7196 334
7197 248
7198 144
7199 259
7200 455
7201 176
7202 169
7203 129
7204 642
7205 248
7206 41
7207 507
7208 510
7209 445
7210 370
7211 402
7212 150
7213 90
7214 458
7215 52
7216 76
7217 370
7218 381
7219 96
7220 489
7221 164
7222 150
7223 154
7224 374
7225 293
7226 381
7227 455
7228 289
7229 50
7230 492
7231 464
7232 262
7233 143
7234 467
7235 550
7236 82
7237 60
7238 23
7239 588
7240 327
7241 174
7242 379
7243 219
7244 538
7245 445
7246 96
7247 424
7248 150
7249 95
7250 78
7251 229
7252 32
7253 533
7254 382
7255 127
7256 348
7257 303
7258 174
7259 57
7260 284
7261 262
7262 451
7263 445
7264 112
7265 262
7266 309
7267 240
7268 125
7269 76
7270 469
7271 218
7272 93
7273 125
7274 366
7275 34
7276 470
7277 95
7278 283
7279 344
7280 111
7281 275
7282 436
7283 71
7284 63
7285 624
7286 461
7287 318
7288 46
7289 514
7290 256
7291 248
7292 219
7293 190
7294 375
7295 537
7296 229
7297 620
7298 290
7299 464
7300 182
7301 36
7302 133
7303 60
7304 364
7305 473
7306 59
7307 370
7308 203
7309 604
7310 241
7311 597
7312 97
7313 623
7314 144
7315 331
7316 82
7317 412
7318 295
7319 344
7320 150
7321 186
7322 133
7323 573
7324 160
7325 355
7326 78
7327 122
7328 259
7329 464
7330 323
7331 41
7332 421
7333 640
7334 206
7335 85
7336 284
7337 232
7338 11
7339 394
7340 548
7341 451
7342 289
7343 54
7344 133
7345 110
7346 142
7347 441
7348 165
7349 70
7350 125
7351 217
7352 355
7353 131
7354 140
7355 484
7356 130
7357 434
7358 637
7359 291
7360 144
7361 326
7362 2
7363 337
7364 395
7365 169
7366 357
7367 190
7368 335
7369 34
7370 195
7371 247
7372 127
7373 309
7374 304
7375 476
7376 260
7377 229
7378 445
7379 133
7380 349
7381 65
7382 526
7383 544
7384 355
7385 248
7386 164
7387 155
7388 168
7389 150
7390 379
7391 345
7392 111
7393 368
7394 331
7395 293
7396 130
7397 19
7398 346
7399 73
7400 293
7401 23
7402 494
7403 35
7404 260
7405 44
7406 243
7407 451
7408 388
7409 144
7410 454
7411 470
7412 91
7413 534
7414 421
7415 218
7416 347
7417 146
7418 262
7419 526
7420 40
7421 97
7422 146
7423 232
7424 347
7425 92
7426 458
7427 219
7428 487
7429 60
7430 470
7431 133
7432 476
7433 203
7434 111
7435 259
7436 70
7437 248
7438 31
7439 432
7440 475
7441 219
7442 284
7443 353
7444 34
7445 123
7446 371
7447 370
7448 191
7449 255
7450 260
7451 189
7452 438
7453 203
7454 293
7455 468
7456 91
7457 335
7458 142
7459 45
7460 158
7461 156
7462 33
7463 462
7464 159
7465 146
7466 232
7467 7
7468 202
7469 56
7470 160
7471 441
7472 168
7473 344
7474 262
7475 218
7476 63
7477 262
7478 469
7479 374
7480 45
7481 193
7482 206
7483 349
7484 219
7485 517
7486 112
7487 34
7488 85
7489 162
7490 356
7491 195
7492 325
7493 350
7494 529
7495 283
7496 529
7497 219
7498 232
7499 441
7500 445
7501 396
7502 356
7503 309
7504 517
7505 350
7506 200
7507 547
7508 240
7509 93
7510 283
7511 397
7512 200
7513 508
7514 60
7515 16
7516 364
7517 248
7518 265
7519 98
7520 366
7521 326
7522 31
7523 84
7524 392
7525 237
7526 378
7527 381
7528 190
7529 153
7530 153
7531 155
7532 512
7533 610
7534 507
7535 540
7536 329
7537 517
7538 350
7539 50
7540 553
7541 12
7542 31
7543 93
7544 437
7545 441
7546 623
7547 41
7548 288
7549 216
7550 150
7551 190
7552 219
7553 468
7554 80
7555 78
7556 153
7557 364
7558 389
7559 108
7560 492
7561 9
7562 304
7563 366
7564 222
7565 226
7566 116
7567 98
7568 426
7569 304
7570 32
7571 240
7572 377
7573 347
7574 246
7575 33
7576 229
7577 293
7578 634
7579 142
7580 193
7581 133
7582 442
7583 370
7584 169
7585 441
7586 265
7587 597
7588 59
7589 494
7590 503
7591 293
7592 444
7593 293
7594 19
7595 23
7596 293
7597 52
7598 31
7599 206
7600 504
7601 41
7602 293
7603 186
7604 186
7605 453
7606 222
7607 229
7608 259
7609 30
7610 371
7611 500
7612 203
7613 216
7614 7
7615 350
7616 342
7617 249
7618 9
7619 43
7620 60
7621 289
7622 249
7623 54
7624 348
7625 353
7626 342
7627 423
7628 569
7629 228
7630 508
7631 492
7632 348
7633 468
7634 424
7635 335
7636 144
7637 22
7638 417
7639 410
7640 41
7641 23
7642 371
7643 634
7644 65
7645 410
7646 108
7647 307
7648 253
7649 127
7650 331
7651 324
7652 155
7653 133
7654 204
7655 500
7656 421
7657 396
7658 150
7659 284
7660 293
7661 125
7662 42
7663 174
7664 144
7665 140
7666 156
7667 164
7668 56
7669 128
7670 477
7671 550
7672 429
7673 337
7674 219
7675 153
7676 130
7677 366
7678 570
7679 451
7680 149
7681 362
7682 189
7683 78
7684 475
7685 160
7686 90
7687 347
7688 206
7689 436
7690 218
7691 366
7692 489
7693 626
7694 305
7695 229
7696 366
7697 470
7698 229
7699 376
7700 91
7701 200
7702 362
7703 203
7704 4
7705 304
7706 206
7707 603
7708 350
7709 223
7710 331
7711 167
7712 153
7713 13
7714 538
7715 331
7716 41
7717 304
7718 91
7719 437
7720 108
7721 190
7722 466
7723 444
7724 554
7725 305
7726 323
7727 308
7728 470
7729 219
7730 240
7731 371
7732 336
7733 223
7734 80
7735 152
7736 417
7737 420
7738 308
7739 355
7740 410
7741 188
7742 5
7743 485
7744 73
7745 93
7746 133
7747 3
7748 11
7749 516
7750 410
7751 476
7752 70
7753 91
7754 470
7755 156
7756 304
7757 30
7758 90
7759 346
7760 112
7761 17
7762 4
7763 112
7764 342
7765 494
7766 231
7767 247
7768 284
7769 444
7770 353
7771 312
7772 445
7773 517
7774 129
7775 229
7776 98
7777 167
7778 174
7779 308
7780 289
7781 150
7782 289
7783 23
7784 184
7785 375
7786 31
7787 629
7788 313
7789 234
7790 335
7791 79
7792 537
7793 350
7794 138
7795 74
7796 324
7797 408
7798 118
7799 342
7800 219
7801 326
7802 232
7803 203
7804 218
7805 592
7806 229
7807 494
7808 313
7809 272
7810 535
7811 494
7812 153
7813 364
7814 218
7815 336
7816 31
7817 312
7818 369
7819 304
7820 643
7821 112
7822 60
7823 464
7824 133
7825 93
7826 155
7827 213
7828 479
7829 311
7830 49
7831 112
7832 288
7833 82
7834 9
7835 227
7836 232
7837 366
7838 232
7839 335
7840 82
7841 313
7842 80
7843 322
7844 588
7845 87
7846 60
7847 80
7848 23
7849 95
7850 464
7851 270
7852 226
7853 307
7854 86
7855 73
7856 206
7857 288
7858 371
7859 165
7860 54
7861 371
7862 539
7863 494
7864 571
7865 95
7866 190
7867 370
7868 363
7869 542
7870 213
7871 150
7872 86
7873 286
7874 567
7875 374
7876 83
7877 451
7878 335
7879 200
7880 53
7881 338
7882 153
7883 623
7884 417
7885 546
7886 13
7887 190
7888 31
7889 512
7890 150
7891 192
7892 465
7893 532
7894 183
7895 4
7896 400
7897 54
7898 153
7899 501
7900 326
7901 542
7902 436
7903 130
7904 396
7905 515
7906 424
7907 504
7908 288
7909 517
7910 620
7911 52
7912 13
7913 229
7914 95
7915 346
7916 229
7917 590
7918 112
7919 499
7920 455
7921 78
7922 42
7923 455
7924 310
7925 443
7926 31
7927 446
7928 366
7929 221
7930 255
7931 90
7932 445
7933 451
7934 13
7935 113
7936 186
7937 526
7938 416
7939 627
7940 82
7941 13
7942 249
7943 130
7944 453
7945 558
7946 419
7947 208
7948 3
7949 436
7950 156
7951 71
7952 302
7953 90
7954 22
7955 255
7956 293
7957 281
7958 133
7959 45
7960 303
7961 421
7962 617
7963 196
7964 93
7965 248
7966 288
7967 105
7968 492
7969 248
7970 150
7971 255
7972 434
7973 51
7974 216
7975 494
7976 640
7977 221
7978 155
7979 420
7980 620
7981 206
7982 127
7983 424
7984 130
7985 112
7986 355
7987 304
7988 23
7989 472
7990 56
7991 191
7992 331
7993 128
7994 71
7995 403
7996 306
7997 366
7998 167
7999 468
8000 126
8001 449
8002 447
8003 255
8004 160
8005 355
8006 312
8007 353
8008 19
8009 23
8010 133
8011 201
8012 599
8013 464
8014 87
8015 434
8016 335
8017 79
8018 374
8019 541
8020 420
8021 93
8022 39
8023 59
8024 455
8025 16
8026 216
8027 349
8028 289
8029 229
8030 313
8031 190
8032 558
8033 304
8034 635
8035 354
8036 22
8037 44
8038 467
8039 288
8040 192
8041 452
8042 347
8043 549
8044 314
8045 136
8046 80
8047 383
8048 575
8049 191
8050 13
8051 371
8052 346
8053 629
8054 210
8055 318
8056 80
8057 530
8058 355
8059 461
8060 596
8061 225
8062 192
8063 517
8064 351
8065 451
8066 624
8067 572
8068 445
8069 391
8070 327
8071 150
8072 50
8073 282
8074 464
8075 324
8076 323
8077 146
8078 425
8079 203
8080 364
8081 467
8082 309
8083 443
8084 3
8085 350
8086 284
8087 314
8088 491
8089 77
8090 117
8091 270
8092 425
8093 328
8094 293
8095 78
8096 31
8097 158
8098 501
8099 335
8100 98
8101 423
8102 453
8103 40
8104 13
8105 283
8106 363
8107 85
8108 120
8109 435
8110 284
8111 122
8112 500
8113 335
8114 95
8115 125
8116 86
8117 79
8118 242
8119 127
8120 4
8121 464
8122 375
8123 100
8124 146
8125 169
8126 345
8127 437
8128 25
8129 249
8130 423
8131 219
8132 576
8133 355
8134 83
8135 207
8136 122
8137 542
8138 470
8139 50
8140 644
8141 474
8142 308
8143 355
8144 605
8145 87
8146 144
8147 470
8148 543
8149 31
8150 313
8151 470
8152 429
8153 78
8154 339
8155 235
8156 266
8157 95
8158 150
8159 350
8160 451
8161 403
8162 204
8163 335
8164 133
8165 55
8166 304
8167 331
8168 3
8169 355
8170 459
8171 28
8172 282
8173 79
8174 366
8175 423
8176 444
8177 190
8178 229
8179 381
8180 494
8181 420
8182 331
8183 54
8184 4
8185 229
8186 327
8187 138
8188 140
8189 381
8190 43
8191 306
8192 52
8193 146
8194 153
8195 88
8196 458
8197 182
8198 443
8199 102
8200 424
8201 127
8202 130
8203 476
8204 93
8205 41
8206 23
8207 434
8208 211
8209 144
8210 167
8211 3
8212 624
8213 75
8214 590
8215 84
8216 206
8217 595
8218 190
8219 122
8220 307
8221 348
8222 335
8223 153
8224 381
8225 30
8226 167
8227 153
8228 83
8229 256
8230 468
8231 410
8232 312
8233 610
8234 287
8235 41
8236 590
8237 489
8238 448
8239 265
8240 474
8241 326
8242 131
8243 4
8244 82
8245 434
8246 424
8247 412
8248 105
8249 31
8250 542
8251 468
8252 421
8253 615
8254 367
8255 476
8256 86
8257 232
8258 93
8259 3
8260 645
8261 131
8262 447
8263 41
8264 136
8265 65
8266 375
8267 293
8268 542
8269 426
8270 206
8271 413
8272 167
8273 441
8274 238
8275 249
8276 113
8277 306
8278 153
8279 153
8280 134
8281 436
8282 443
8283 19
8284 314
8285 203
8286 80
8287 372
8288 385
8289 492
8290 201
8291 327
8292 381
8293 54
8294 542
8295 455
8296 386
8297 477
8298 240
8299 307
8300 265
8301 19
8302 191
8303 494
8304 150
8305 279
8306 476
8307 223
8308 140
8309 597
8310 108
8311 353
8312 514
8313 288
8314 146
8315 207
8316 137
8317 308
8318 158
8319 240
8320 143
8321 445
8322 169
8323 55
8324 308
8325 486
8326 527
8327 284
8328 439
8329 568
8330 628
8331 623
8332 223
8333 284
8334 348
8335 209
8336 306
8337 364
8338 451
8339 116
8340 365
8341 223
8342 203
8343 167
8344 307
8345 483
8346 455
8347 412
8348 385
8349 128
8350 186
8351 207
8352 54
8353 436
8354 353
8355 360
8356 249
8357 597
8358 238
8359 83
8360 430
8361 148
8362 323
8363 345
8364 30
8365 225
8366 80
8367 413
8368 4
8369 526
8370 335
8371 200
8372 223
8373 364
8374 514
8375 412
8376 346
8377 185
8378 207
8379 521
8380 542
8381 570
8382 256
8383 290
8384 160
8385 284
8386 146
8387 225
8388 390
8389 271
8390 451
8391 81
8392 355
8393 581
8394 459
8395 542
8396 539
8397 514
8398 383
8399 451
8400 374
8401 331
8402 421
8403 186
8404 146
8405 235
8406 391
8407 543
8408 375
8409 451
8410 174
8411 345
8412 319
8413 456
8414 30
8415 223
8416 289
8417 282
8418 306
8419 108
8420 331
8421 125
8422 308
8423 97
8424 219
8425 284
8426 492
8427 256
8428 424
8429 468
8430 319
8431 133
8432 30
8433 247
8434 108
8435 52
8436 222
8437 451
8438 162
8439 421
8440 436
8441 238
8442 423
8443 295
8444 388
8445 428
8446 354
8447 284
8448 303
8449 295
8450 542
8451 526
8452 203
8453 326
8454 427
8455 238
8456 46
8457 306
8458 421
8459 63
8460 455
8461 620
8462 140
8463 18
8464 153
8465 68
8466 396
8467 19
8468 110
8469 326
8470 317
8471 198
8472 186
8473 18
8474 186
8475 95
8476 455
8477 500
8478 314
8479 128
8480 637
8481 484
8482 118
8483 393
8484 634
8485 521
8486 356
8487 519
8488 517
8489 192
8490 86
8491 381
8492 455
8493 191
8494 434
8495 470
8496 528
8497 249
8498 249
8499 327
8500 473
8501 160
8502 284
8503 171
8504 443
8505 500
8506 44
8507 495
8508 394
8509 80
8510 195
8511 167
8512 240
8513 167
8514 7
8515 50
8516 203
8517 3
8518 160
8519 195
8520 171
8521 35
8522 295
8523 356
8524 306
8525 455
8526 82
8527 79
8528 31
8529 92
8530 139
8531 441
8532 461
8533 160
8534 285
8535 52
8536 513
8537 335
8538 550
8539 403
8540 547
8541 175
8542 284
8543 108
8544 203
8545 32
8546 374
8547 20
8548 636
8549 33
8550 289
8551 28
8552 52
8553 25
8554 453
8555 602
8556 233
8557 247
8558 300
8559 153
8560 586
8561 55
8562 344
8563 284
8564 451
8565 119
8566 351
8567 441
8568 307
8569 318
8570 52
8571 517
8572 249
8573 14
8574 140
8575 470
8576 30
8577 220
8578 154
8579 558
8580 204
8581 500
8582 341
8583 304
8584 470
8585 513
8586 634
8587 371
8588 3
8589 633
8590 346
8591 186
8592 155
8593 354
8594 107
8595 381
8596 307
8597 276
8598 81
8599 517
8600 335
8601 200
8602 602
8603 205
8604 1
8605 75
8606 381
8607 623
8608 31
8609 44
8610 396
8611 444
8612 2
8613 536
8614 314
8615 336
8616 364
8617 195
8618 280
8619 513
8620 136
8621 606
8622 247
8623 599
8624 80
8625 4
8626 424
8627 98
8628 451
8629 513
8630 543
8631 451
8632 434
8633 324
8634 518
8635 297
8636 219
8637 521
8638 127
8639 37
8640 140
8641 186
8642 52
8643 193
8644 160
8645 308
8646 445
8647 91
8648 396
8649 311
8650 377
8651 150
8652 459
8653 199
8654 229
8655 381
8656 91
8657 140
8658 289
8659 451
8660 518
8661 175
8662 84
8663 154
8664 507
8665 335
8666 145
8667 289
8668 353
8669 610
8670 414
8671 494
8672 514
8673 323
8674 426
8675 305
8676 306
8677 314
8678 194
8679 284
8680 557
8681 394
8682 374
8683 397
8684 323
8685 506
8686 354
8687 369
8688 588
8689 183
8690 354
8691 156
8692 396
8693 425
8694 148
8695 156
8696 294
8697 108
8698 542
8699 613
8700 22
8701 381
8702 124
8703 371
8704 421
8705 41
8706 137
8707 84
8708 194
8709 560
8710 284
8711 31
8712 99
8713 386
8714 440
8715 441
8716 396
8717 470
8718 338
8719 44
8720 284
8721 218
8722 605
8723 36
8724 258
8725 69
8726 188
8727 160
8728 65
8729 80
8730 149
8731 31
8732 330
8733 13
8734 513
8735 344
8736 529
8737 354
8738 6
8739 283
8740 583
8741 140
8742 342
8743 385
8744 362
8745 467
8746 112
8747 497
8748 233
8749 387
8750 91
8751 80
8752 13
8753 430
8754 3
8755 451
8756 19
8757 399
8758 31
8759 52
8760 78
8761 60
8762 160
8763 223
8764 327
8765 133
8766 19
8767 371
8768 275
8769 155
8770 104
8771 289
8772 341
8773 158
8774 468
8775 185
8776 99
8777 573
8778 541
8779 76
8780 514
8781 5
8782 60
8783 518
8784 125
8785 314
8786 396
8787 240
8788 112
8789 309
8790 354
8791 309
8792 486
8793 355
8794 247
8795 167
8796 283
8797 451
8798 314
8799 396
8800 423
8801 369
8802 475
8803 194
8804 271
8805 223
8806 376
8807 169
8808 470
8809 125
8810 38
8811 171
8812 134
8813 3
8814 443
8815 350
8816 341
8817 357
8818 240
8819 78
8820 455
8821 97
8822 371
8823 44
8824 261
8825 292
8826 54
8827 370
8828 99
8829 91
8830 101
8831 401
8832 146
8833 283
8834 424
8835 300
8836 73
8837 30
8838 348
8839 441
8840 370
8841 15
8842 259
8843 441
8844 43
8845 341
8846 363
8847 478
8848 56
8849 201
8850 408
8851 341
8852 308
8853 511
8854 19
8855 441
8856 99
8857 171
8858 207
8859 512
8860 494
8861 279
8862 158
8863 598
8864 137
8865 349
8866 3
8867 284
8868 470
8869 174
8870 503
8871 396
8872 371
8873 272
8874 342
8875 186
8876 410
8877 548
8878 386
8879 413
8880 314
8881 543
8882 560
8883 451
8884 331
8885 408
8886 512
8887 379
8888 495
8889 517
8890 156
8891 47
8892 203
8893 99
8894 3
8895 621
8896 344
8897 385
8898 434
8899 307
8900 52
8901 158
8902 324
8903 209
8904 60
8905 644
8906 225
8907 158
8908 611
8909 353
8910 33
8911 407
8912 255
8913 611
8914 344
8915 355
8916 4
8917 517
8918 284
8919 183
8920 241
8921 366
8922 456
8923 470
8924 218
8925 80
8926 396
8927 331
8928 201
8929 426
8930 375
8931 344
8932 213
8933 290
8934 451
8935 342
8936 579
8937 186
8938 366
8939 253
8940 447
8941 507
8942 121
8943 381
8944 476
8945 2
8946 107
8947 514
8948 529
8949 346
8950 252
8951 160
8952 260
8953 496
8954 56
8955 451
8956 158
8957 229
8958 239
8959 284
8960 511
8961 346
8962 248
8963 3
8964 73
8965 13
8966 83
8967 44
8968 355
8969 356
8970 355
8971 86
8972 12
8973 122
8974 29
8975 296
8976 290
8977 416
8978 542
8979 476
8980 531
8981 437
8982 3
8983 90
8984 247
8985 445
8986 34
8987 54
8988 2
8989 420
8990 260
8991 125
8992 10
8993 451
8994 353
8995 283
8996 595
8997 127
8998 23
8999 442
9000 374
9001 23
9002 396
9003 198
9004 191
9005 525
9006 60
9007 165
9008 364
9009 259
9010 19
9011 249
9012 225
9013 83
9014 226
9015 371
9016 529
9017 358
9018 344
9019 393
9020 284
9021 295
9022 158
9023 164
9024 412
9025 73
9026 276
9027 507
9028 564
9029 250
9030 91
9031 443
9032 284
9033 248
9034 229
9035 222
9036 470
9037 537
9038 69
9039 23
9040 56
9041 54
9042 458
9043 124
9044 610
9045 296
9046 120
9047 201
9048 422
9049 191
9050 375
9051 202
9052 350
9053 271
9054 296
9055 451
9056 370
9057 361
9058 59
9059 223
9060 312
9061 424
9062 434
9063 366
9064 256
9065 247
9066 403
9067 79
9068 239
9069 393
9070 191
9071 127
9072 409
9073 464
9074 52
9075 464
9076 157
9077 355
9078 517
9079 232
9080 443
9081 505
9082 132
9083 459
9084 73
9085 543
9086 355
9087 468
9088 91
9089 225
9090 441
9091 188
9092 186
9093 381
9094 312
9095 282
9096 219
9097 285
9098 97
9099 441
9100 53
9101 404
9102 318
9103 272
9104 35
9105 233
9106 468
9107 458
9108 218
9109 218
9110 500
9111 65
9112 517
9113 444
9114 436
9115 345
9116 218
9117 259
9118 436
9119 383
9120 288
9121 284
9122 259
9123 35
9124 399
9125 476
9126 191
9127 517
9128 293
9129 282
9130 111
9131 118
9132 295
9133 412
9134 296
9135 322
9136 232
9137 403
9138 396
9139 491
9140 146
9141 470
9142 136
9143 164
9144 210
9145 371
9146 248
9147 23
9148 146
9149 239
9150 186
9151 470
9152 444
9153 355
9154 353
9155 423
9156 90
9157 99
9158 610
9159 289
9160 60
9161 289
9162 341
9163 541
9164 341
9165 223
9166 201
9167 104
9168 40
9169 166
9170 282
9171 542
9172 468
9173 397
9174 219
9175 112
9176 153
9177 250
9178 150
9179 270
9180 54
9181 296
9182 50
9183 84
9184 231
9185 122
9186 1
9187 259
9188 57
9189 529
9190 293
9191 429
9192 54
9193 255
9194 91
9195 278
9196 62
9197 437
9198 73
9199 14
9200 207
9201 229
9202 598
9203 542
9204 19
9205 219
9206 229
9207 232
9208 413
9209 289
9210 410
9211 346
9212 146
9213 219
9214 255
9215 201
9216 99
9217 523
9218 531
9219 341
9220 464
9221 426
9222 63
9223 350
9224 375
9225 441
9226 331
9227 153
9228 346
9229 9
9230 462
9231 346
9232 125
9233 476
9234 458
9235 85
9236 99
9237 262
9238 441
9239 60
9240 285
9241 195
9242 517
9243 436
9244 248
9245 352
9246 23
9247 389
9248 349
9249 555
9250 614
9251 144
9252 223
9253 302
9254 641
9255 218
9256 221
9257 206
9258 371
9259 171
9260 104
9261 112
9262 423
9263 4
9264 331
9265 392
9266 93
9267 328
9268 145
9269 25
9270 76
9271 335
9272 349
9273 371
9274 429
9275 354
9276 302
9277 30
9278 260
9279 436
9280 494
9281 284
9282 500
9283 214
9284 219
9285 35
9286 293
9287 445
9288 470
9289 436
9290 260
9291 371
9292 42
9293 190
9294 78
9295 193
9296 293
9297 604
9298 444
9299 436
9300 88
9301 335
9302 565
9303 341
9304 370
9305 70
9306 434
9307 282
9308 462
9309 256
9310 370
9311 59
9312 327
9313 291
9314 355
9315 19
9316 484
9317 296
9318 173
9319 364
9320 492
9321 421
9322 436
9323 349
9324 314
9325 91
9326 144
9327 149
9328 146
9329 436
9330 354
9331 604
9332 428
9333 95
9334 41
9335 509
9336 125
9337 61
9338 144
9339 194
9340 392
9341 195
9342 2
9343 164
9344 455
9345 364
9346 528
9347 52
9348 496
9349 73
9350 344
9351 437
9352 132
9353 468
9354 290
9355 201
9356 207
9357 437
9358 421
9359 410
9360 307
9361 327
9362 508
9363 232
9364 489
9365 216
9366 452
9367 153
9368 444
9369 293
9370 489
9371 259
9372 331
9373 76
9374 365
9375 193
9376 500
9377 468
9378 420
9379 112
9380 23
9381 86
9382 56
9383 293
9384 432
9385 78
9386 517
9387 395
9388 260
9389 500
9390 438
9391 451
9392 411
9393 82
9394 93
9395 366
9396 200
9397 307
9398 416
9399 447
9400 216
9401 335
9402 143
9403 392
9404 458
9405 309
9406 261
9407 529
9408 190
9409 363
9410 494
9411 314
9412 130
9413 424
9414 265
9415 23
9416 598
9417 625
9418 408
9419 128
9420 54
9421 420
9422 357
9423 500
9424 373
9425 303
9426 467
9427 265
9428 283
9429 93
9430 7
9431 512
9432 396
9433 447
9434 27
9435 82
9436 283
9437 451
9438 495
9439 112
9440 272
9441 307
9442 581
9443 81
9444 500
9445 347
9446 594
9447 284
9448 23
9449 216
9450 145
9451 90
9452 130
9453 45
9454 289
9455 200
9456 341
9457 309
9458 419
9459 305
9460 248
9461 481
9462 70
9463 197
9464 190
9465 364
9466 174
9467 613
9468 437
9469 408
9470 417
9471 498
9472 1
9473 24
9474 14
9475 284
9476 441
9477 353
9478 577
9479 259
9480 507
9481 304
9482 479
9483 355
9484 121
9485 644
9486 260
9487 76
9488 229
9489 494
9490 82
9491 48
9492 451
9493 60
9494 130
9495 353
9496 468
9497 206
9498 560
9499 421
9500 105
9501 464
9502 581
9503 229
9504 34
9505 563
9506 140
9507 60
9508 273
9509 133
9510 484
9511 271
9512 347
9513 643
9514 34
9515 174
9516 392
9517 335
9518 353
9519 502
9520 304
9521 295
9522 30
9523 460
9524 583
9525 525
9526 453
9527 82
9528 183
9529 112
9530 458
9531 111
9532 289
9533 411
9534 352
9535 404
9536 423
9537 370
9538 286
9539 206
9540 125
9541 90
9542 110
9543 408
9544 196
9545 489
9546 355
9547 248
9548 428
9549 90
9550 142
9551 78
9552 318
9553 73
9554 195
9555 111
9556 476
9557 146
9558 436
9559 546
9560 400
9561 19
9562 514
9563 282
9564 259
9565 113
9566 355
9567 218
9568 33
9569 464
9570 85
9571 55
9572 223
9573 485
9574 140
9575 417
9576 344
9577 90
9578 514
9579 248
9580 22
9581 281
9582 304
9583 281
9584 262
9585 355
9586 421
9587 326
9588 100
9589 470
9590 507
9591 507
9592 346
9593 451
9594 323
9595 309
9596 288
9597 124
9598 229
9599 178
9600 399
9601 54
9602 31
9603 216
9604 110
9605 239
9606 468
9607 326
9608 99
9609 284
9610 467
9611 3
9612 23
9613 312
9614 476
9615 548
9616 324
9617 216
9618 157
9619 265
9620 177
9621 623
9622 366
9623 111
9624 203
9625 222
9626 324
9627 464
9628 417
9629 201
9630 182
9631 441
9632 539
9633 218
9634 111
9635 307
9636 225
9637 218
9638 31
9639 410
9640 451
9641 205
9642 306
9643 470
9644 262
9645 464
9646 285
9647 414
9648 444
9649 41
9650 455
9651 451
9652 285
9653 117
9654 14
9655 338
9656 529
9657 249
9658 410
9659 462
9660 376
9661 164
9662 551
9663 111
9664 395
9665 78
9666 203
9667 485
9668 82
9669 600
9670 64
9671 85
9672 341
9673 125
9674 366
9675 93
9676 441
9677 494
9678 145
9679 472
9680 82
9681 22
9682 388
9683 417
9684 272
9685 363
9686 411
9687 441
9688 144
9689 144
9690 208
9691 342
9692 436
9693 31
9694 625
9695 545
9696 414
9697 412
9698 408
9699 470
9700 119
9701 104
9702 396
9703 54
9704 181
9705 119
9706 229
9707 438
9708 456
9709 451
9710 167
9711 40
9712 130
9713 93
9714 312
9715 70
9716 610
9717 529
9718 512
9719 127
9720 545
9721 133
9722 220
9723 180
9724 73
9725 85
9726 11
9727 130
9728 353
9729 259
9730 353
9731 248
9732 232
9733 289
9734 223
9735 111
9736 443
9737 508
9738 608
9739 421
9740 564
9741 508
9742 155
9743 104
9744 56
9745 260
9746 99
9747 414
9748 621
9749 160
9750 27
9751 293
9752 304
9753 146
9754 289
9755 146
9756 293
9757 20
9758 184
9759 342
9760 643
9761 108
9762 421
9763 350
9764 331
9765 99
9766 3
9767 34
9768 483
9769 56
9770 437
9771 508
9772 587
9773 482
9774 433
9775 468
9776 82
9777 31
9778 588
9779 206
9780 99
9781 349
9782 422
9783 289
9784 203
9785 390
9786 432
9787 468
9788 271
9789 191
9790 515
9791 353
9792 566
9793 56
9794 273
9795 293
9796 153
9797 25
9798 408
9799 437
9800 249
9801 169
9802 327
9803 81
9804 508
9805 312
9806 338
9807 265
9808 133
9809 609
9810 549
9811 222
9812 466
9813 452
9814 155
9815 229
9816 443
9817 15
9818 346
9819 468
9820 282
9821 205
9822 259
9823 57
9824 307
9825 150
9826 421
9827 327
9828 268
9829 504
9830 308
9831 108
9832 255
9833 335
9834 575
9835 76
9836 259
9837 44
9838 249
9839 63
9840 550
9841 468
9842 248
9843 321
9844 533
9845 326
9846 133
9847 54
9848 615
9849 255
9850 90
9851 266
9852 262
9853 554
9854 519
9855 442
9856 200
9857 224
9858 31
9859 350
9860 146
9861 370
9862 210
9863 529
9864 271
9865 296
9866 131
9867 366
9868 538
9869 127
9870 353
9871 494
9872 517
9873 577
9874 104
9875 187
9876 144
9877 414
9878 434
9879 408
9880 306
9881 589
9882 56
9883 263
9884 272
9885 604
9886 23
9887 430
9888 548
9889 610
9890 306
9891 499
9892 465
9893 249
9894 331
9895 101
9896 29
9897 600
9898 93
9899 326
9900 29
9901 13
9902 410
9903 40
9904 415
9905 13
9906 230
9907 285
9908 254
9909 112
9910 293
9911 108
9912 90
9913 293
9914 178
9915 1
9916 500
9917 542
9918 366
9919 130
9920 444
9921 206
9922 150
9923 408
9924 290
9925 338
9926 221
9927 112
9928 39
9929 13
9930 468
9931 219
9932 146
9933 79
9934 232
9935 520
9936 436
9937 160
9938 585
9939 78
9940 13
9941 60
9942 93
9943 206
9944 41
9945 131
9946 164
9947 613
9948 146
9949 218
9950 202
9951 106
9952 219
9953 441
9954 243
9955 153
9956 408
9957 289
9958 98
9959 182
9960 91
9961 542
9962 371
9963 313
9964 209
9965 203
9966 31
9967 234
9968 78
9969 470
9970 267
9971 190
9972 133
9973 162
9974 415
9975 304
9976 412
9977 518
9978 254
9979 500
9980 206
9981 79
9982 289
9983 216
9984 252
9985 31
9986 454
9987 248
9988 95
9989 464
9990 535
9991 70
9992 99
9993 640
9994 410
9995 367
9996 289
9997 249
9998 79
9999 283
10000 421
10001 112
10002 444
10003 77
10004 90
10005 44
10006 289
10007 443
10008 331
10009 225
10010 326
10011 73
10012 349
10013 90
10014 453
10015 326
10016 375
10017 374
10018 336
10019 211
10020 259
10021 78
10022 317
10023 247
10024 317
10025 216
10026 82
10027 619
10028 635
10029 18
10030 551
10031 191
10032 206
10033 29
10034 7
10035 308
10036 366
10037 424
10038 79
10039 588
10040 341
10041 327
10042 462
10043 31
10044 453
10045 70
10046 261
10047 451
10048 47
10049 304
10050 443
10051 90
10052 195
10053 366
10054 208
10055 85
10056 71
10057 542
10058 464
10059 411
10060 290
10061 411
10062 331
10063 573
10064 444
10065 594
10066 283
10067 628
10068 283
10069 108
10070 316
10071 441
10072 2
10073 599
10074 515
10075 375
10076 117
10077 210
10078 23
10079 79
10080 248
10081 533
10082 507
10083 132
10084 555
10085 19
10086 313
10087 305
10088 223
10089 108
10090 130
10091 63
10092 108
10093 4
10094 377
10095 160
10096 364
10097 164
10098 494
10099 219
10100 248
10101 117
10102 350
10103 155
10104 309
10105 470
10106 336
10107 204
10108 146
10109 169
10110 73
10111 193
10112 549
10113 327
10114 127
10115 331
10116 146
10117 296
10118 223
10119 354
10120 59
10121 219
10122 441
10123 347
10124 421
10125 228
10126 331
10127 98
10128 507
10129 570
10130 112
10131 118
10132 411
10133 73
10134 219
10135 284
10136 251
10137 31
10138 451
10139 255
10140 70
10141 200
10142 270
10143 215
10144 19
10145 314
10146 206
10147 203
10148 183
10149 530
10150 99
10151 327
10152 146
10153 358
10154 146
10155 228
10156 204
10157 294
10158 249
10159 325
10160 3
10161 78
10162 494
10163 282
10164 3
10165 476
10166 451
10167 247
10168 361
10169 213
10170 307
10171 13
10172 436
10173 50
10174 194
10175 155
10176 350
10177 382
10178 73
10179 112
10180 346
10181 476
10182 4
10183 314
10184 424
10185 474
10186 206
10187 90
10188 223
10189 171
10190 437
10191 331
10192 435
10193 23
10194 225
10195 249
10196 394
10197 322
10198 500
10199 631
10200 290
10201 326
10202 354
10203 190
10204 212
10205 526
10206 412
10207 282
10208 31
10209 285
10210 34
10211 609
10212 327
10213 266
10214 3
10215 326
10216 99
10217 83
10218 54
10219 522
10220 65
10221 248
10222 154
10223 507
10224 201
10225 513
10226 364
10227 494
10228 203
10229 642
10230 82
10231 555
10232 410
10233 255
10234 19
10235 322
10236 497
10237 526
10238 4
10239 385
10240 616
10241 262
10242 260
10243 457
10244 375
10245 4
10246 158
10247 156
10248 385
10249 399
10250 356
10251 104
10252 73
10253 84
10254 4
10255 334
10256 295
10257 316
10258 539
10259 67
10260 191
10261 378
10262 335
10263 133
10264 447
10265 80
10266 22
10267 84
10268 193
10269 133
10270 190
10271 30
10272 436
10273 219
10274 190
10275 314
10276 598
10277 456
10278 19
10279 131
10280 23
10281 2
10282 73
10283 349
10284 125
10285 429
10286 453
10287 371
10288 80
10289 3
10290 285
10291 273
10292 86
10293 207
10294 354
10295 507
10296 125
10297 4
10298 346
10299 2
10300 455
10301 434
10302 4
10303 60
10304 312
10305 417
10306 203
10307 282
10308 170
10309 443
10310 30
10311 201
10312 443
10313 23
10314 172
10315 308
10316 370
10317 98
10318 31
10319 255
10320 200
10321 78
10322 113
10323 133
10324 573
10325 612
10326 392
10327 443
10328 130
10329 464
10330 276
10331 118
10332 58
10333 530
10334 580
10335 525
10336 443
10337 307
10338 312
10339 1
10340 140
10341 167
10342 140
10343 456
10344 157
10345 447
10346 80
10347 234
10348 221
10349 223
10350 495
10351 381
10352 500
10353 172
10354 309
10355 293
10356 467
10357 123
10358 33
10359 588
10360 344
10361 98
10362 363
10363 293
10364 417
10365 354
10366 101
10367 455
10368 346
10369 158
10370 238
10371 186
10372 500
10373 225
10374 208
10375 57
10376 67
10377 192
10378 331
10379 451
10380 443
10381 55
10382 153
10383 222
10384 52
10385 200
10386 165
10387 354
10388 193
10389 354
10390 132
10391 642
10392 140
10393 167
10394 466
10395 500
10396 80
10397 426
10398 447
10399 3
10400 31
10401 159
10402 284
10403 627
10404 441
10405 171
10406 171
10407 208
10408 160
10409 226
10410 174
10411 140
10412 413
10413 507
10414 357
10415 489
10416 304
10417 142
10418 122
10419 335
10420 228
10421 286
10422 417
10423 413
10424 312
10425 167
10426 353
10427 128
10428 94
10429 112
10430 635
10431 489
10432 354
10433 282
10434 110
10435 625
10436 23
10437 413
10438 416
10439 582
10440 530
10441 203
10442 104
10443 160
10444 186
10445 258
10446 525
10447 621
10448 6
10449 337
10450 526
10451 293
10452 490
10453 503
10454 140
10455 285
10456 381
10457 426
10458 284
10459 208
10460 83
10461 78
10462 505
10463 572
10464 441
10465 458
10466 369
10467 260
10468 256
10469 167
10470 346
10471 247
10472 201
10473 372
10474 609
10475 99
10476 252
10477 456
10478 97
10479 351
10480 85
10481 309
10482 192
10483 586
10484 174
10485 349
10486 174
10487 441
10488 303
10489 381
10490 146
10491 555
10492 326
10493 195
10494 52
10495 335
10496 314
10497 105
10498 265
10499 348
10500 353
10501 249
10502 426
10503 338
10504 507
10505 220
10506 413
10507 140
10508 335
10509 30
10510 427
10511 19
10512 517
10513 432
10514 612
10515 590
10516 46
10517 212
10518 346
10519 77
10520 518
10521 528
10522 284
10523 292
10524 347
10525 593
10526 206
10527 256
10528 186
10529 517
10530 133
10531 22
10532 73
10533 426
10534 48
10535 370
10536 282
10537 112
10538 613
10539 140
10540 517
10541 588
10542 195
10543 3
10544 419
10545 4
10546 528
10547 513
10548 370
10549 623
10550 455
10551 35
10552 286
10553 108
10554 22
10555 125
10556 112
10557 247
10558 381
10559 488
10560 193
10561 492
10562 146
10563 176
10564 507
10565 440
10566 293
10567 142
10568 314
10569 240
10570 422
10571 87
10572 549
10573 111
10574 84
10575 344
10576 480
10577 228
10578 455
10579 535
10580 348
10581 112
10582 286
10583 434
10584 255
10585 635
10586 424
10587 350
10588 539
10589 412
10590 443
10591 349
10592 347
10593 284
10594 246
10595 79
10596 81
10597 150
10598 615
10599 429
10600 441
10601 426
10602 192
10603 382
10604 13
10605 441
10606 327
10607 554
10608 146
10609 33
10610 514
10611 470
10612 179
10613 451
10614 251
10615 455
10616 276
10617 284
10618 7
10619 2
10620 79
10621 521
10622 413
10623 458
10624 361
10625 590
10626 83
10627 430
10628 190
10629 308
10630 517
10631 28
10632 413
10633 571
10634 441
10635 125
10636 283
10637 331
10638 174
10639 434
10640 514
10641 424
10642 517
10643 413
10644 167
10645 294
10646 211
10647 98
10648 68
10649 470
10650 247
10651 223
10652 317
10653 140
10654 410
10655 52
10656 517
10657 312
10658 108
10659 239
10660 41
10661 276
10662 306
10663 289
10664 371
10665 465
10666 388
10667 13
10668 84
10669 465
10670 247
10671 293
10672 396
10673 293
10674 146
10675 201
10676 245
10677 344
10678 228
10679 350
10680 206
10681 342
10682 529
10683 283
10684 153
10685 25
10686 207
10687 79
10688 154
10689 99
10690 413
10691 171
10692 562
10693 396
10694 339
10695 112
10696 4
10697 283
10698 408
10699 195
10700 293
10701 489
10702 306
10703 72
10704 534
10705 389
10706 31
10707 283
10708 326
10709 22
10710 638
10711 468
10712 517
10713 185
10714 165
10715 93
10716 117
10717 354
10718 186
10719 113
10720 335
10721 336
10722 397
10723 424
10724 355
10725 494
10726 526
10727 242
10728 44
10729 201
10730 233
10731 283
10732 79
10733 108
10734 413
10735 181
10736 392
10737 181
10738 52
10739 364
10740 31
10741 253
10742 414
10743 156
10744 112
10745 353
10746 160
10747 278
10748 169
10749 494
10750 374
10751 125
10752 118
10753 451
10754 265
10755 186
10756 215
10757 138
10758 52
10759 271
10760 436
10761 178
10762 112
10763 154
10764 14
10765 314
10766 341
10767 91
10768 346
10769 413
10770 30
10771 289
10772 353
10773 321
10774 616
10775 90
10776 229
10777 229
10778 314
10779 53
10780 182
10781 36
10782 103
10783 335
10784 35
10785 188
10786 370
10787 293
10788 441
10789 201
10790 125
10791 306
10792 276
10793 396
10794 284
10795 26
10796 144
10797 86
10798 251
10799 400
10800 431
10801 271
10802 13
10803 554
10804 309
10805 235
10806 47
10807 492
10808 344
10809 293
10810 385
10811 347
10812 279
10813 68
10814 434
10815 363
10816 344
10817 528
10818 327
10819 222
10820 436
10821 631
10822 644
10823 248
10824 528
10825 370
10826 408
10827 289
10828 470
10829 72
10830 275
10831 423
10832 60
10833 179
10834 155
10835 283
10836 341
10837 470
10838 168
10839 410
10840 449
10841 80
10842 99
10843 54
10844 186
10845 73
10846 517
10847 64
10848 322
10849 346
10850 413
10851 548
10852 305
10853 390
10854 506
10855 155
10856 284
10857 312
10858 239
10859 163
10860 529
10861 414
10862 146
10863 247
10864 140
10865 313
10866 241
10867 366
10868 554
10869 80
10870 97
10871 56
10872 158
10873 396
10874 313
10875 521
10876 30
10877 108
10878 259
10879 408
10880 150
10881 199
10882 125
10883 13
10884 434
10885 371
10886 451
10887 30
10888 175
10889 56
10890 272
10891 114
10892 207
10893 157
10894 434
10895 264
10896 489
10897 344
10898 272
10899 23
10900 326
10901 259
10902 573
10903 511
10904 255
10905 530
10906 358
10907 579
10908 289
10909 31
10910 473
10911 13
10912 482
10913 381
10914 145
10915 290
10916 56
10917 465
10918 345
10919 277
10920 341
10921 153
10922 314
10923 512
10924 178
10925 167
10926 421
10927 445
10928 370
10929 473
10930 222
10931 155
10932 508
10933 441
10934 407
10935 86
10936 90
10937 127
10938 99
10939 517
10940 327
10941 160
10942 249
10943 131
10944 280
10945 293
10946 426
10947 256
10948 112
10949 396
10950 542
10951 322
10952 248
10953 280
10954 479
10955 289
10956 385
10957 388
10958 60
10959 245
10960 331
10961 288
10962 567
10963 45
10964 289
10965 125
10966 445
10967 366
10968 369
10969 200
10970 477
10971 214
10972 156
10973 135
10974 54
10975 396
10976 34
10977 261
10978 413
10979 638
10980 171
10981 158
10982 218
10983 108
10984 598
10985 275
10986 310
10987 314
10988 88
10989 481
10990 368
10991 288
10992 476
10993 426
10994 83
10995 78
10996 222
10997 218
10998 284
10999 548
11000 396
11001 190
11002 411
11003 517
11004 293
11005 271
11006 153
11007 310
11008 549
11009 355
11010 421
11011 362
11012 129
11013 292
11014 408
11015 411
11016 470
11017 353
11018 296
11019 167
11020 83
11021 437
11022 196
11023 13
11024 524
11025 259
11026 296
11027 413
11028 207
11029 571
11030 219
11031 352
11032 453
11033 366
11034 407
11035 517
11036 312
11037 156
11038 396
11039 350
11040 78
11041 34
11042 148
11043 4
11044 355
11045 494
11046 136
11047 87
11048 488
11049 289
11050 259
11051 499
11052 354
11053 455
11054 201
11055 4
11056 342
11057 2
11058 341
11059 194
11060 186
11061 80
11062 44
11063 91
11064 155
11065 6
11066 424
11067 293
11068 327
11069 272
11070 78
11071 599
11072 293
11073 261
11074 207
11075 559
11076 242
11077 551
11078 529
11079 37
11080 290
11081 53
11082 120
11083 290
11084 365
11085 255
11086 127
11087 78
11088 555
11089 55
11090 259
11091 635
11092 2
11093 44
11094 192
11095 116
11096 30
11097 339
11098 470
11099 300
11100 79
11101 416
11102 123
11103 171
11104 274
11105 349
11106 71
11107 140
11108 271
11109 325
11110 380
11111 293
11112 190
11113 441
11114 232
11115 408
11116 639
11117 262
11118 282
11119 491
11120 218
11121 95
11122 112
11123 248
11124 34
11125 128
11126 179
11127 140
11128 73
11129 476
11130 329
11131 57
11132 99
11133 470
11134 615
11135 455
11136 606
11137 411
11138 199
11139 235
11140 16
11141 468
11142 190
11143 529
11144 117
11145 91
11146 73
11147 90
11148 52
11149 548
11150 418
11151 90
11152 122
11153 370
11154 34
11155 408
11156 350
11157 112
11158 25
11159 496
11160 578
11161 177
11162 408
11163 355
11164 30
11165 458
11166 539
11167 282
11168 56
11169 353
11170 45
11171 306
11172 331
11173 628
11174 163
11175 146
11176 633
11177 206
11178 241
11179 221
11180 94
11181 377
11182 290
11183 111
11184 284
11185 294
11186 283
11187 112
11188 190
11189 335
11190 150
11191 374
11192 458
11193 90
11194 296
11195 342
11196 403
11197 25
11198 186
11199 283
11200 327
11201 241
11202 70
11203 426
11204 83
11205 136
11206 434
11207 201
11208 131
11209 517
11210 365
11211 514
11212 73
11213 284
11214 127
11215 348
11216 296
11217 644
11218 436
11219 436
11220 364
11221 250
11222 412
11223 379
11224 107
11225 321
11226 223
11227 156
11228 384
11229 153
11230 229
11231 54
11232 190
11233 355
11234 194
11235 591
11236 455
11237 52
11238 362
11239 441
11240 349
11241 229
11242 422
11243 397
11244 326
11245 144
11246 13
11247 312
11248 468
11249 283
11250 209
11251 438
11252 2
11253 281
11254 314
11255 201
11256 140
11257 534
11258 118
11259 285
11260 174
11261 538
11262 341
11263 40
11264 112
11265 111
11266 468
11267 163
11268 23
11269 341
11270 318
11271 293
11272 153
11273 445
11274 484
11275 355
11276 14
11277 382
11278 569
11279 158
11280 428
11281 247
11282 73
11283 19
11284 529
11285 353
11286 149
11287 296
11288 116
11289 255
11290 337
11291 73
11292 495
11293 364
11294 23
11295 470
11296 341
11297 335
11298 480
11299 218
11300 37
11301 154
11302 144
11303 370
11304 17
11305 73
11306 365
11307 354
11308 220
11309 112
11310 26
11311 193
11312 293
11313 262
11314 193
11315 335
11316 190
11317 56
11318 517
11319 262
11320 517
11321 421
11322 444
11323 627
11324 104
11325 242
11326 91
11327 353
11328 557
11329 326
11330 82
11331 146
11332 60
11333 507
11334 9
11335 458
11336 232
11337 289
11338 191
11339 584
11340 339
11341 473
11342 62
11343 229
11344 494
11345 445
11346 125
11347 160
11348 70
11349 372
11350 321
11351 73
11352 265
11353 456
11354 284
11355 154
11356 169
11357 93
11358 178
11359 219
11360 30
11361 464
11362 366
11363 355
11364 122
11365 445
11366 208
11367 73
11368 54
11369 78
11370 97
11371 262
11372 245
11373 464
11374 205
11375 164
11376 133
11377 229
11378 326
11379 190
11380 363
11381 2
11382 73
11383 421
11384 464
11385 494
11386 458
11387 12
11388 209
11389 155
11390 434
11391 316
11392 344
11393 155
11394 335
11395 259
11396 222
11397 307
11398 6
11399 203
11400 436
11401 186
11402 364
11403 443
11404 289
11405 473
11406 370
11407 284
11408 219
11409 110
11410 400
11411 451
11412 312
11413 320
11414 331
11415 484
11416 86
11417 421
11418 283
11419 491
11420 529
11421 415
11422 94
11423 473
11424 56
11425 363
11426 350
11427 88
11428 160
11429 293
11430 374
11431 140
11432 125
11433 149
11434 467
11435 361
11436 19
11437 500
11438 64
11439 30
11440 465
11441 366
11442 335
11443 229
11444 344
11445 207
11446 494
11447 125
11448 204
11449 416
11450 82
11451 174
11452 451
11453 248
11454 18
11455 324
11456 190
11457 22
11458 578
11459 73
11460 579
11461 91
11462 103
11463 304
11464 421
11465 494
11466 473
11467 205
11468 464
11469 309
11470 436
11471 355
11472 22
11473 308
11474 22
11475 56
11476 261
11477 489
11478 219
11479 260
11480 60
11481 152
11482 283
11483 345
11484 309
11485 350
11486 411
11487 216
11488 4
11489 207
11490 487
11491 19
11492 54
11493 33
11494 27
11495 186
11496 64
11497 99
11498 519
11499 133
11500 23
11501 82
11502 351
11503 346
11504 345
11505 526
11506 326
11507 73
11508 572
11509 296
11510 313
11511 63
11512 413
11513 105
11514 222
11515 464
11516 445
11517 337
11518 85
11519 248
11520 335
11521 467
11522 185
11523 161
11524 99
11525 33
11526 464
11527 386
11528 451
11529 192
11530 222
11531 331
11532 421
11533 354
11534 327
11535 436
11536 628
11537 282
11538 388
11539 350
11540 439
11541 236
11542 468
11543 69
11544 381
11545 467
11546 133
11547 366
11548 83
11549 507
11550 621
11551 48
11552 338
11553 78
11554 476
11555 150
11556 508
11557 411
11558 459
11559 165
11560 414
11561 473
11562 229
11563 421
11564 402
11565 453
11566 193
11567 130
11568 495
11569 162
11570 314
11571 350
11572 307
11573 291
11574 421
11575 450
11576 190
11577 59
11578 233
11579 33
11580 5
11581 141
11582 354
11583 205
11584 494
11585 90
11586 248
11587 170
11588 160
11589 335
11590 82
11591 410
11592 518
11593 364
11594 130
11595 378
11596 99
11597 396
11598 526
11599 638
11600 256
11601 508
11602 418
11603 492
11604 164
11605 500
11606 222
11607 349
11608 296
11609 350
11610 260
11611 216
11612 164
11613 635
11614 293
11615 206
11616 386
11617 73
11618 307
11619 485
11620 467
11621 54
11622 219
11623 307
11624 219
11625 541
11626 517
11627 23
11628 248
11629 364
11630 530
11631 206
11632 298
11633 394
11634 484
11635 206
11636 526
11637 77
11638 577
11639 216
11640 225
11641 599
11642 63
11643 364
11644 296
11645 492
11646 283
11647 25
11648 449
11649 93
11650 453
11651 127
11652 560
11653 312
11654 78
11655 570
11656 371
11657 248
11658 108
11659 364
11660 513
11661 31
11662 76
11663 322
11664 459
11665 174
11666 275
11667 190
11668 511
11669 144
11670 350
11671 579
11672 235
11673 23
11674 262
11675 494
11676 60
11677 344
11678 260
11679 312
11680 572
11681 57
11682 0
11683 56
11684 620
11685 413
11686 112
11687 376
11688 353
11689 120
11690 90
11691 54
11692 127
11693 583
11694 349
11695 53
11696 628
11697 54
11698 289
11699 54
11700 54
11701 89
11702 108
11703 591
11704 130
11705 128
11706 303
11707 93
11708 247
11709 296
11710 356
11711 99
11712 576
11713 232
11714 216
11715 366
11716 468
11717 306
11718 181
11719 424
11720 296
11721 348
11722 155
11723 312
11724 548
11725 54
11726 52
11727 49
11728 274
11729 513
11730 257
11731 381
11732 286
11733 169
11734 271
11735 93
11736 473
11737 192
11738 459
11739 443
11740 169
11741 366
11742 194
11743 217
11744 208
11745 111
11746 396
11747 99
11748 371
11749 56
11750 307
11751 312
11752 381
11753 289
11754 133
11755 80
11756 260
11757 445
11758 279
11759 414
11760 150
11761 338
11762 23
11763 60
11764 205
11765 479
11766 364
11767 167
11768 318
11769 322
11770 225
11771 171
11772 337
11773 377
11774 93
11775 508
11776 133
11777 300
11778 145
11779 56
11780 11
11781 529
11782 282
11783 488
11784 514
11785 249
11786 140
11787 305
11788 457
11789 82
11790 223
11791 366
11792 67
11793 167
11794 349
11795 308
11796 388
11797 207
11798 219
11799 150
11800 448
11801 60
11802 171
11803 112
11804 514
11805 347
11806 308
11807 93
11808 336
11809 13
11810 476
11811 455
11812 446
11813 420
11814 445
11815 474
11816 470
11817 217
11818 519
11819 528
11820 13
11821 219
11822 127
11823 304
11824 306
11825 79
11826 207
11827 335
11828 366
11829 464
11830 307
11831 0
11832 222
11833 249
11834 470
11835 219
11836 73
11837 303
11838 629
11839 146
11840 306
11841 98
11842 308
11843 470
11844 366
11845 98
11846 111
11847 158
11848 448
11849 608
11850 312
11851 420
11852 517
11853 158
11854 366
11855 34
11856 73
11857 52
11858 353
11859 76
11860 366
11861 468
11862 185
11863 78
11864 82
11865 363
11866 473
11867 380
11868 312
11869 259
11870 127
11871 44
11872 420
11873 283
11874 458
11875 487
11876 203
11877 86
11878 129
11879 345
11880 631
11881 252
11882 313
11883 254
11884 381
11885 23
11886 158
11887 296
11888 627
11889 44
11890 494
11891 420
11892 99
11893 342
11894 346
11895 524
11896 55
11897 190
11898 468
11899 194
11900 272
11901 326
11902 296
11903 158
11904 214
11905 201
11906 313
11907 503
11908 537
11909 91
11910 225
11911 478
11912 249
11913 229
11914 372
11915 289
11916 265
11917 434
11918 355
11919 4
11920 470
11921 229
11922 442
11923 164
11924 371
11925 140
11926 421
11927 79
11928 470
11929 346
11930 548
11931 55
11932 168
11933 54
11934 282
11935 421
11936 494
11937 118
11938 131
11939 146
11940 5
11941 374
11942 517
11943 112
11944 364
11945 306
11946 99
11947 167
11948 108
11949 559
11950 167
11951 304
11952 365
11953 526
11954 336
11955 424
11956 44
11957 468
11958 305
11959 167
11960 73
11961 185
11962 354
11963 83
11964 218
11965 162
11966 79
11967 63
11968 127
11969 97
11970 289
11971 262
11972 443
11973 215
11974 312
11975 473
11976 349
11977 185
11978 572
11979 249
11980 528
11981 240
11982 468
11983 290
11984 494
11985 346
11986 403
11987 206
11988 150
11989 93
11990 464
11991 409
11992 112
11993 304
11994 99
11995 497
11996 79
11997 350
11998 307
11999 331
12000 528
12001 470
12002 364
12003 408
12004 99
12005 93
12006 56
12007 90
12008 431
12009 111
12010 28
12011 599
12012 374
12013 293
12014 289
12015 434
12016 353
12017 517
12018 315
12019 89
12020 350
12021 199
12022 534
12023 239
12024 122
12025 219
12026 443
12027 508
12028 57
12029 83
12030 507
12031 500
12032 52
12033 167
12034 232
12035 249
12036 229
12037 520
12038 473
12039 99
12040 352
12041 290
12042 60
12043 318
12044 346
12045 73
12046 79
12047 255
12048 354
12049 467
12050 220
12051 293
12052 86
12053 221
12054 63
12055 31
12056 366
12057 73
12058 164
12059 468
12060 349
12061 312
12062 366
12063 284
12064 526
12065 289
12066 31
12067 531
12068 83
12069 417
12070 31
12071 346
12072 443
12073 312
12074 625
12075 192
12076 593
12077 455
12078 313
12079 268
12080 133
12081 346
12082 543
12083 105
12084 466
12085 313
12086 79
12087 306
12088 494
12089 428
12090 315
12091 327
12092 295
12093 34
12094 53
12095 464
12096 229
12097 106
12098 54
12099 93
12100 638
12101 3
12102 112
12103 449
12104 517
12105 42
12106 200
12107 176
12108 422
12109 235
12110 127
12111 144
12112 58
12113 571
12114 238
12115 529
12116 339
12117 70
12118 424
12119 295
12120 226
12121 90
12122 453
12123 349
12124 436
12125 133
12126 111
12127 349
12128 388
12129 183
12130 19
12131 3
12132 192
12133 353
12134 13
12135 464
12136 200
12137 467
12138 70
12139 150
12140 355
12141 78
12142 621
12143 293
12144 434
12145 327
12146 31
12147 204
12148 56
12149 451
12150 54
12151 239
12152 364
