0 0
1 1
2 2
3 3
4 4
5 5
6 6
7 7
8 8
9 9
10 10
11 11
12 12
13 13
14 14
15 15
16 16
17 17
18 18
19 19
20 20
21 21
22 22
23 23
24 24
25 25
26 24
27 26
28 27
29 28
30 29
31 30
32 31
33 32
34 33
35 34
36 35
37 24
38 8
39 36
40 33
41 37
42 38
43 39
44 26
45 40
46 41
47 24
48 18
49 42
50 43
51 44
52 45
53 46
54 47
55 48
56 49
57 50
58 51
59 52
60 53
61 54
62 55
63 56
64 57
65 58
66 59
67 60
68 56
69 61
70 61
71 62
72 63
73 28
74 64
75 65
76 57
77 66
78 67
79 68
80 69
81 70
82 71
83 72
84 73
85 74
86 42
87 75
88 76
89 77
90 78
91 79
92 75
93 80
94 81
95 82
96 83
97 84
98 85
99 86
100 80
101 87
102 88
103 89
104 90
105 91
106 92
107 93
108 94
109 95
110 94
111 96
112 97
113 70
114 11
115 98
116 99
117 100
118 101
119 1
120 34
121 102
122 103
123 13
124 104
125 105
126 106
127 107
128 94
129 108
130 109
131 89
132 110
133 0
134 111
135 107
136 34
137 62
138 112
139 113
140 78
141 114
142 115
143 2
144 116
145 117
146 118
147 119
148 120
149 102
150 28
151 121
152 122
153 41
154 123
155 124
156 125
157 1
158 126
159 127
160 128
161 19
162 129
163 130
164 131
165 132
166 133
167 134
168 118
169 135
170 136
171 126
172 137
173 55
174 138
175 84
176 139
177 140
178 36
179 141
180 142
181 94
182 143
183 144
184 133
185 128
186 145
187 146
188 147
189 148
190 149
191 150
192 151
193 23
194 152
195 33
196 129
197 153
198 154
199 34
200 100
201 155
202 156
203 157
204 158
205 98
206 159
207 90
208 94
209 43
210 160
211 161
212 5
213 58
214 162
215 80
216 122
217 163
218 164
219 63
220 82
221 165
222 166
223 167
224 168
225 34
226 169
227 170
228 171
229 172
230 173
231 174
232 175
233 176
234 177
235 159
236 178
237 179
238 0
239 180
240 181
241 182
242 183
243 100
244 184
245 185
246 98
247 186
248 187
249 188
250 189
251 190
252 67
253 191
254 181
255 192
256 140
257 193
258 194
259 195
260 37
261 131
262 196
263 112
264 197
265 32
266 198
267 137
268 82
269 174
270 3
271 199
272 200
273 201
274 153
275 89
276 202
277 140
278 203
279 204
280 205
281 206
282 207
283 123
284 100
285 208
286 209
287 210
288 211
289 149
290 212
291 6
292 213
293 214
294 81
295 185
296 215
297 216
298 217
299 14
300 218
301 219
302 220
303 221
304 32
305 43
306 81
307 25
308 222
309 141
310 223
311 39
312 92
313 151
314 195
315 224
316 202
317 225
318 226
319 227
320 228
321 159
322 199
323 229
324 152
325 230
326 231
327 232
328 128
329 85
330 85
331 40
332 168
333 233
334 234
335 235
336 236
337 237
338 225
339 238
340 224
341 163
342 239
343 240
344 241
345 68
346 203
347 198
348 242
349 188
350 56
351 201
352 243
353 214
354 244
355 133
356 47
357 172
358 245
359 246
360 226
361 100
362 7
363 247
364 218
365 28
366 248
367 249
368 0
369 60
370 250
371 251
372 187
373 101
374 252
375 165
376 253
377 206
378 122
379 254
380 55
381 255
382 256
383 151
384 2
385 257
386 258
387 147
388 50
389 132
390 259
391 260
392 112
393 261
394 122
395 262
396 263
397 264
398 156
399 265
400 266
401 267
402 234
403 164
404 268
405 269
406 270
407 185
408 220
409 271
410 243
411 272
412 273
413 259
414 274
415 275
416 121
417 225
418 276
419 227
420 199
421 277
422 278
423 279
424 280
425 85
426 20
427 73
428 189
429 28
430 90
431 262
432 158
433 281
434 282
435 91
436 283
437 284
438 192
439 285
440 203
441 286
442 70
443 287
444 181
445 30
446 106
447 135
448 228
449 286
450 288
451 289
452 138
453 290
454 291
455 59
456 84
457 292
458 18
459 44
460 265
461 78
462 177
463 110
464 293
465 275
466 294
467 295
468 274
469 268
470 296
471 157
472 252
473 297
474 298
475 82
476 299
477 152
478 300
479 59
480 301
481 131
482 25
483 302
484 303
485 228
486 285
487 304
488 221
489 157
490 256
491 0
492 305
493 89
494 281
495 249
496 47
497 176
498 306
499 103
500 50
501 249
502 307
503 15
504 308
505 309
506 296
507 310
508 260
509 34
510 69
511 311
512 312
513 202
514 138
515 313
516 226
517 314
518 136
519 241
520 73
521 315
522 101
523 230
524 316
525 317
526 194
527 1
528 72
529 164
530 162
531 264
532 198
533 25
534 318
535 106
536 229
537 319
538 320
539 253
540 82
541 321
542 191
543 93
544 322
545 41
546 323
547 324
548 307
549 51
550 257
551 325
552 326
553 112
554 327
555 3
556 0
557 266
558 88
559 151
560 328
561 202
562 207
563 304
564 79
565 160
566 194
567 160
568 329
569 330
570 154
571 331
572 163
573 332
574 212
575 3
576 288
577 81
578 333
579 13
580 80
581 334
582 60
583 238
584 71
585 3
586 335
587 336
588 337
589 338
590 339
591 72
592 230
593 51
594 337
595 171
596 34
597 59
598 269
599 340
600 97
601 192
602 341
603 268
604 200
605 332
606 11
607 281
608 166
609 202
610 87
611 103
612 97
613 153
614 342
615 164
616 219
617 343
618 252
619 344
620 167
621 314
622 3
623 216
624 337
625 123
626 260
627 345
628 303
629 317
630 346
631 332
632 51
633 63
634 338
635 48
636 316
637 49
638 319
639 214
640 247
641 55
642 347
643 96
644 348
645 349
646 51
647 185
648 171
649 178
650 350
651 11
652 124
653 351
654 352
655 353
656 290
657 354
658 245
659 355
660 356
661 250
662 10
663 52
664 261
665 225
666 258
667 4
668 208
669 260
670 201
671 168
672 304
673 357
674 344
675 263
676 210
677 51
678 32
679 167
680 89
681 299
682 358
683 48
684 359
685 132
686 125
687 249
688 81
689 225
690 211
691 360
692 361
693 202
694 8
695 362
696 142
697 363
698 61
699 197
700 99
701 137
702 271
703 8
704 234
705 86
706 307
707 156
708 364
709 211
710 365
711 356
712 45
713 106
714 366
715 41
716 116
717 129
718 354
719 308
720 367
721 181
722 368
723 30
724 279
725 290
726 369
727 370
728 303
729 371
730 296
731 201
732 90
733 142
734 95
735 82
736 372
737 227
738 133
739 373
740 332
741 72
742 143
743 147
744 361
745 57
746 266
747 111
748 50
749 184
750 309
751 168
752 358
753 40
754 273
755 18
756 260
757 98
758 321
759 265
760 374
761 109
762 53
763 375
764 75
765 104
766 342
767 376
768 14
769 308
770 331
771 377
772 378
773 263
774 80
775 160
776 94
777 3
778 69
779 379
780 199
781 247
782 139
783 51
784 373
785 160
786 268
787 55
788 34
789 14
790 172
791 145
792 173
793 112
794 105
795 142
796 380
797 152
798 228
799 112
800 381
801 296
802 382
803 256
804 352
805 325
806 264
807 34
808 382
809 264
810 197
811 383
812 195
813 328
814 343
815 384
816 130
817 385
818 55
819 109
820 386
821 176
822 353
823 362
824 260
825 123
826 290
827 7
828 372
829 204
830 377
831 81
832 121
833 381
834 63
835 72
836 316
837 379
838 380
839 282
840 347
841 147
842 286
843 251
844 342
845 281
846 26
847 93
848 236
849 249
850 327
851 387
852 346
853 62
854 388
855 127
856 389
857 253
858 202
859 285
860 379
861 155
862 130
863 106
864 162
865 390
866 180
867 153
868 29
869 391
870 263
871 55
872 392
873 393
874 259
875 306
876 394
877 395
878 249
879 396
880 397
881 288
882 191
883 73
884 71
885 80
886 33
887 93
888 56
889 34
890 77
891 274
892 203
893 259
894 257
895 316
896 398
897 106
898 383
899 74
900 393
901 374
902 142
903 69
904 137
905 271
906 77
907 5
908 399
909 50
910 400
911 350
912 22
913 11
914 74
915 25
916 381
917 148
918 106
919 108
920 91
921 401
922 151
923 402
924 365
925 251
926 78
927 264
928 55
929 318
930 108
931 97
932 22
933 121
934 215
935 71
936 90
937 137
938 62
939 265
940 403
941 44
942 292
943 74
944 33
945 72
946 352
947 2
948 120
949 51
950 404
951 378
952 334
953 308
954 277
955 326
956 405
957 373
958 234
959 46
960 406
961 72
962 240
963 132
964 139
965 144
966 122
967 313
968 93
969 105
970 353
971 407
972 282
973 109
974 140
975 0
976 73
977 158
978 91
979 113
980 105
981 7
982 268
983 68
984 277
985 408
986 150
987 173
988 409
989 313
990 394
991 96
992 256
993 230
994 147
995 247
996 182
997 196
998 240
999 184
1000 363
1001 251
1002 342
1003 110
1004 82
1005 389
1006 259
1007 68
1008 383
1009 269
1010 152
1011 73
1012 150
1013 44
1014 410
1015 169
1016 304
1017 160
1018 84
1019 139
1020 358
1021 194
1022 353
1023 268
1024 7
1025 23
1026 322
1027 94
1028 387
1029 308
1030 62
1031 83
1032 260
1033 411
1034 260
1035 157
1036 385
1037 164
1038 106
1039 206
1040 383
1041 412
1042 271
1043 161
1044 413
1045 67
1046 340
1047 72
1048 18
1049 300
1050 110
1051 131
1052 199
1053 14
1054 304
1055 98
1056 219
1057 414
1058 277
1059 90
1060 99
1061 109
1062 82
1063 204
1064 64
1065 195
1066 337
1067 364
1068 309
1069 315
1070 199
1071 415
1072 416
1073 34
1074 275
1075 167
1076 366
1077 381
1078 288
1079 311
1080 191
1081 381
1082 332
1083 13
1084 353
1085 257
1086 234
1087 198
1088 383
1089 249
1090 135
1091 2
1092 80
1093 331
1094 292
1095 269
1096 410
1097 411
1098 334
1099 251
1100 251
1101 68
1102 6
1103 68
1104 417
1105 303
1106 331
1107 49
1108 220
1109 381
1110 0
1111 353
1112 226
1113 418
1114 226
1115 322
1116 395
1117 204
1118 78
1119 118
1120 64
1121 167
1122 83
1123 21
1124 154
1125 380
1126 61
1127 419
1128 232
1129 364
1130 303
1131 154
1132 420
1133 11
1134 170
1135 28
1136 0
1137 81
1138 91
1139 134
1140 90
1141 59
1142 168
1143 303
1144 230
1145 421
1146 74
1147 140
1148 364
1149 317
1150 193
1151 173
1152 269
1153 345
1154 164
1155 383
1156 235
1157 230
1158 151
1159 30
1160 215
1161 345
1162 205
1163 80
1164 118
1165 422
1166 9
1167 23
1168 79
1169 312
1170 98
1171 353
1172 362
1173 104
1174 423
1175 304
1176 235
1177 135
1178 0
1179 424
1180 108
1181 223
1182 220
1183 425
1184 348
1185 88
1186 154
1187 162
1188 124
1189 167
1190 364
1191 252
1192 160
1193 315
1194 21
1195 109
1196 68
1197 130
1198 19
1199 423
1200 61
1201 361
1202 406
1203 112
1204 401
1205 162
1206 21
1207 402
1208 426
1209 262
1210 53
1211 427
1212 397
1213 353
1214 104
1215 205
1216 238
1217 68
1218 249
1219 428
1220 155
1221 387
1222 212
1223 256
1224 255
1225 206
1226 145
1227 222
1228 67
1229 230
1230 312
1231 302
1232 214
1233 381
1234 262
1235 321
1236 136
1237 82
1238 342
1239 108
1240 366
1241 275
1242 246
1243 34
1244 241
1245 124
1246 429
1247 57
1248 228
1249 430
1250 61
1251 421
1252 51
1253 137
1254 407
1255 319
1256 287
1257 296
1258 168
1259 266
1260 159
1261 50
1262 296
1263 431
1264 204
1265 162
1266 127
1267 162
1268 229
1269 104
1270 48
1271 432
1272 193
1273 230
1274 433
1275 434
1276 90
1277 106
1278 124
1279 159
1280 68
1281 121
1282 90
1283 342
1284 97
1285 22
1286 409
1287 34
1288 37
1289 238
1290 196
1291 435
1292 334
1293 200
1294 334
1295 227
1296 78
1297 149
1298 436
1299 269
1300 105
1301 215
1302 162
1303 385
1304 437
1305 122
1306 107
1307 30
1308 211
1309 312
1310 182
1311 438
1312 208
1313 101
1314 89
1315 94
1316 134
1317 192
1318 90
1319 276
1320 138
1321 408
1322 90
1323 38
1324 48
1325 162
1326 316
1327 85
1328 358
1329 77
1330 78
1331 70
1332 67
1333 188
1334 55
1335 46
1336 307
1337 106
1338 406
1339 439
1340 106
1341 147
1342 331
1343 381
1344 84
1345 182
1346 121
1347 285
1348 232
1349 216
1350 85
1351 90
1352 19
1353 211
1354 200
1355 153
1356 178
1357 34
1358 109
1359 199
1360 440
1361 281
1362 192
1363 105
1364 440
1365 104
1366 6
1367 176
1368 377
1369 315
1370 351
1371 155
1372 51
1373 441
1374 366
1375 281
1376 152
1377 109
1378 47
1379 122
1380 298
1381 413
1382 395
1383 296
1384 315
1385 345
1386 100
1387 395
1388 289
1389 76
1390 148
1391 406
1392 219
1393 241
1394 216
1395 151
1396 52
1397 84
1398 128
1399 40
1400 287
1401 403
1402 157
1403 50
1404 435
1405 192
1406 71
1407 49
1408 164
1409 177
1410 167
1411 38
1412 171
1413 379
1414 260
1415 205
1416 292
1417 442
1418 212
1419 358
1420 254
1421 189
1422 169
1423 22
1424 51
1425 407
1426 233
1427 180
1428 106
1429 314
1430 233
1431 112
1432 314
1433 127
1434 340
1435 106
1436 443
1437 193
1438 201
1439 359
1440 406
1441 63
1442 316
1443 444
1444 198
1445 372
1446 285
1447 367
1448 373
1449 152
1450 5
1451 153
1452 192
1453 47
1454 13
1455 162
1456 132
1457 322
1458 220
1459 51
1460 423
1461 350
1462 192
1463 147
1464 209
1465 51
1466 315
1467 419
1468 123
1469 170
1470 192
1471 336
1472 290
1473 256
1474 71
1475 268
1476 394
1477 148
1478 306
1479 345
1480 121
1481 105
1482 334
1483 397
1484 292
1485 225
1486 363
1487 278
1488 102
1489 25
1490 445
1491 403
1492 331
1493 120
1494 244
1495 123
1496 339
1497 196
1498 371
1499 373
1500 200
1501 356
1502 334
1503 74
1504 19
1505 303
1506 324
1507 413
1508 124
1509 334
1510 221
1511 252
1512 178
1513 310
1514 285
1515 231
1516 78
1517 96
1518 150
1519 173
1520 400
1521 437
1522 30
1523 446
1524 192
1525 85
1526 447
1527 313
1528 438
1529 84
1530 283
1531 193
1532 101
1533 130
1534 219
1535 167
1536 402
1537 14
1538 138
1539 193
1540 312
1541 135
1542 78
1543 159
1544 205
1545 86
1546 448
1547 158
1548 158
1549 425
1550 265
1551 251
1552 423
1553 341
1554 106
1555 82
1556 334
1557 225
1558 406
1559 60
1560 439
1561 38
1562 91
1563 203
1564 181
1565 312
1566 93
1567 366
1568 251
1569 342
1570 449
1571 82
1572 391
1573 101
1574 345
1575 201
1576 415
1577 260
1578 173
1579 331
1580 181
1581 203
1582 154
1583 202
1584 59
1585 121
1586 0
1587 108
1588 82
1589 334
1590 67
1591 54
1592 278
1593 450
1594 423
1595 1
1596 158
1597 321
1598 158
1599 305
1600 372
1601 345
1602 332
1603 326
1604 50
1605 259
1606 401
1607 106
1608 71
1609 151
1610 173
1611 303
1612 96
1613 205
1614 9
1615 218
1616 34
1617 168
1618 25
1619 150
1620 421
1621 34
1622 150
1623 312
1624 106
1625 240
1626 113
1627 56
1628 81
1629 32
1630 334
1631 83
1632 276
1633 113
1634 26
1635 308
1636 331
1637 73
1638 441
1639 202
1640 397
1641 451
1642 381
1643 132
1644 338
1645 434
1646 242
1647 17
1648 41
1649 352
1650 44
1651 260
1652 232
1653 3
1654 89
1655 1
1656 352
1657 408
1658 253
1659 370
1660 94
1661 97
1662 244
1663 110
1664 321
1665 146
1666 178
1667 220
1668 225
1669 132
1670 240
1671 113
1672 434
1673 153
1674 415
1675 25
1676 195
1677 321
1678 396
1679 452
1680 156
1681 441
1682 387
1683 453
1684 381
1685 175
1686 81
1687 396
1688 59
1689 407
1690 389
1691 316
1692 277
1693 426
1694 439
1695 47
1696 90
1697 13
1698 271
1699 157
1700 169
1701 345
1702 47
1703 315
1704 50
1705 220
1706 108
1707 205
1708 108
1709 423
1710 377
1711 398
1712 34
1713 63
1714 87
1715 148
1716 106
1717 239
1718 178
1719 262
1720 362
1721 314
1722 367
1723 75
1724 13
1725 132
1726 30
1727 25
1728 108
1729 227
1730 404
1731 315
1732 2
1733 332
1734 173
1735 40
1736 203
1737 121
1738 77
1739 395
1740 350
1741 77
1742 228
1743 5
1744 175
1745 150
1746 252
1747 359
1748 454
1749 67
1750 188
1751 47
1752 216
1753 178
1754 455
1755 301
1756 402
1757 285
1758 121
1759 456
1760 356
1761 342
1762 353
1763 82
1764 308
1765 2
1766 254
1767 283
1768 364
1769 230
1770 0
1771 216
1772 154
1773 457
1774 406
1775 458
1776 459
1777 362
1778 249
1779 286
1780 61
1781 128
1782 85
1783 163
1784 332
1785 203
1786 225
1787 81
1788 162
1789 365
1790 122
1791 460
1792 232
1793 61
1794 285
1795 461
1796 269
1797 325
1798 462
1799 8
1800 337
1801 49
1802 281
1803 11
1804 345
1805 259
1806 307
1807 405
1808 294
1809 461
1810 259
1811 43
1812 235
1813 321
1814 191
1815 445
1816 379
1817 73
1818 169
1819 229
1820 433
1821 84
1822 108
1823 312
1824 182
1825 92
1826 101
1827 19
1828 196
1829 84
1830 370
1831 58
1832 397
1833 202
1834 288
1835 290
1836 0
1837 295
1838 195
1839 154
1840 135
1841 123
1842 329
1843 446
1844 167
1845 202
1846 238
1847 93
1848 281
1849 101
1850 214
1851 49
1852 452
1853 222
1854 137
1855 19
1856 68
1857 398
1858 205
1859 303
1860 137
1861 184
1862 73
1863 31
1864 73
1865 274
1866 74
1867 338
1868 109
1869 95
1870 150
1871 274
1872 354
1873 40
1874 110
1875 98
1876 88
1877 137
1878 244
1879 216
1880 186
1881 275
1882 71
1883 463
1884 332
1885 184
1886 459
1887 247
1888 31
1889 312
1890 339
1891 437
1892 19
1893 162
1894 269
1895 165
1896 34
1897 295
1898 274
1899 199
1900 269
1901 295
1902 108
1903 138
1904 303
1905 225
1906 388
1907 316
1908 214
1909 98
1910 322
1911 268
1912 389
1913 195
1914 202
1915 150
1916 351
1917 312
1918 244
1919 441
1920 20
1921 167
1922 339
1923 224
1924 341
1925 384
1926 352
1927 147
1928 225
1929 0
1930 236
1931 86
1932 34
1933 339
1934 169
1935 119
1936 101
1937 126
1938 93
1939 353
1940 25
1941 395
1942 88
1943 48
1944 4
1945 288
1946 397
1947 218
1948 385
1949 114
1950 306
1951 59
1952 69
1953 226
1954 57
1955 147
1956 402
1957 55
1958 122
1959 435
1960 167
1961 413
1962 174
1963 90
1964 228
1965 352
1966 279
1967 205
1968 442
1969 140
1970 128
1971 430
1972 78
1973 187
1974 387
1975 184
1976 322
1977 313
1978 285
1979 464
1980 228
1981 334
1982 166
1983 201
1984 206
1985 434
1986 268
1987 30
1988 187
1989 99
1990 173
1991 335
1992 383
1993 256
1994 167
1995 363
1996 33
1997 298
1998 75
1999 334
2000 313
2001 465
2002 389
2003 168
2004 256
2005 73
2006 135
2007 289
2008 146
2009 69
2010 72
2011 410
2012 71
2013 276
2014 249
2015 107
2016 383
2017 434
2018 168
2019 309
2020 158
2021 138
2022 278
2023 50
2024 172
2025 130
2026 166
2027 62
2028 354
2029 34
2030 402
2031 437
2032 134
2033 441
2034 203
2035 419
2036 316
2037 310
2038 332
2039 107
2040 326
2041 303
2042 173
2043 165
2044 310
2045 81
2046 23
2047 331
2048 26
2049 62
2050 315
2051 163
2052 147
2053 42
2054 398
2055 451
2056 15
2057 430
2058 71
2059 409
2060 331
2061 146
2062 263
2063 110
2064 281
2065 290
2066 185
2067 334
2068 0
2069 372
2070 17
2071 61
2072 167
2073 306
2074 165
2075 50
2076 189
2077 409
2078 312
2079 418
2080 173
2081 381
2082 426
2083 337
2084 406
2085 281
2086 121
2087 50
2088 433
2089 232
2090 466
2091 120
2092 234
2093 376
2094 66
2095 467
2096 74
2097 352
2098 321
2099 120
2100 304
2101 107
2102 437
2103 106
2104 307
2105 72
2106 163
2107 217
2108 262
2109 336
2110 175
2111 99
2112 181
2113 262
2114 68
2115 459
2116 138
2117 285
2118 142
2119 94
2120 82
2121 308
2122 199
2123 344
2124 214
2125 108
2126 296
2127 315
2128 134
2129 181
2130 257
2131 445
2132 334
2133 244
2134 74
2135 87
2136 5
2137 203
2138 380
2139 0
2140 249
2141 124
2142 468
2143 418
2144 372
2145 281
2146 127
2147 460
2148 342
2149 217
2150 336
2151 469
2152 201
2153 290
2154 295
2155 163
2156 220
2157 315
2158 128
2159 11
2160 381
2161 313
2162 430
2163 177
2164 423
2165 335
2166 306
2167 101
2168 156
2169 30
2170 168
2171 395
2172 278
2173 97
2174 171
2175 381
2176 435
2177 161
2178 252
2179 143
2180 55
2181 3
2182 152
2183 54
2184 195
2185 382
2186 383
2187 123
2188 242
2189 375
2190 470
2191 207
2192 232
2193 152
2194 175
2195 83
2196 337
2197 309
2198 290
2199 151
2200 244
2201 452
2202 315
2203 362
2204 304
2205 109
2206 192
2207 334
2208 173
2209 21
2210 313
2211 219
2212 215
2213 142
2214 262
2215 186
2216 220
2217 437
2218 340
2219 280
2220 251
2221 471
2222 50
2223 5
2224 373
2225 265
2226 222
2227 235
2228 314
2229 334
2230 220
2231 296
2232 391
2233 309
2234 332
2235 73
2236 334
2237 218
2238 274
2239 165
2240 160
2241 219
2242 22
2243 459
2244 124
2245 468
2246 240
2247 210
2248 400
2249 126
2250 71
2251 94
2252 225
2253 363
2254 274
2255 49
2256 197
2257 178
2258 354
2259 219
2260 218
2261 147
2262 397
2263 69
2264 106
2265 3
2266 135
2267 218
2268 107
2269 92
2270 152
2271 119
2272 97
2273 56
2274 0
2275 472
2276 156
2277 218
2278 91
2279 241
2280 231
2281 208
2282 404
2283 34
2284 334
2285 34
2286 22
2287 123
2288 49
2289 344
2290 147
2291 80
2292 322
2293 166
2294 169
2295 364
2296 34
2297 245
2298 347
2299 49
2300 290
2301 234
2302 409
2303 73
2304 10
2305 67
2306 473
2307 157
2308 0
2309 56
2310 215
2311 34
2312 312
2313 354
2314 183
2315 134
2316 445
2317 385
2318 81
2319 251
2320 218
2321 358
2322 306
2323 13
2324 116
2325 134
2326 114
2327 404
2328 137
2329 13
2330 474
2331 210
2332 306
2333 204
2334 96
2335 163
2336 201
2337 303
2338 124
2339 215
2340 288
2341 390
2342 230
2343 171
2344 317
2345 437
2346 107
2347 218
2348 353
2349 334
2350 315
2351 166
2352 454
2353 273
2354 296
2355 403
2356 303
2357 402
2358 327
2359 395
2360 233
2361 181
2362 279
2363 123
2364 308
2365 251
2366 182
2367 168
2368 106
2369 321
2370 106
2371 195
2372 32
2373 353
2374 168
2375 296
2376 235
2377 97
2378 475
2379 434
2380 72
2381 423
2382 169
2383 252
2384 305
2385 34
2386 442
2387 50
2388 49
2389 255
2390 235
2391 137
2392 73
2393 334
2394 287
2395 175
2396 186
2397 326
2398 304
2399 286
2400 124
2401 403
2402 233
2403 63
2404 362
2405 114
2406 476
2407 110
2408 259
2409 122
2410 165
2411 364
2412 269
2413 260
2414 55
2415 47
2416 206
2417 76
2418 55
2419 19
2420 313
2421 310
2422 112
2423 100
2424 407
2425 401
2426 274
2427 134
2428 439
2429 106
2430 114
2431 91
2432 86
2433 41
2434 82
2435 247
2436 161
2437 317
2438 50
2439 183
2440 168
2441 408
2442 128
2443 385
2444 169
2445 185
2446 280
2447 215
2448 373
2449 408
2450 3
2451 305
2452 436
2453 34
2454 34
2455 449
2456 200
2457 218
2458 89
2459 181
2460 167
2461 306
2462 414
2463 68
2464 373
2465 167
2466 240
2467 334
2468 97
2469 153
2470 422
2471 244
2472 379
2473 373
2474 158
2475 422
2476 76
2477 163
2478 138
2479 184
2480 326
2481 176
2482 162
2483 50
2484 110
2485 295
2486 373
2487 54
2488 419
2489 130
2490 313
2491 218
2492 348
2493 264
2494 339
2495 83
2496 46
2497 95
2498 273
2499 296
2500 303
2501 292
2502 148
2503 55
2504 95
2505 306
2506 423
2507 165
2508 64
2509 167
2510 334
2511 327
2512 85
2513 335
2514 198
2515 434
2516 323
2517 130
2518 125
2519 202
2520 19
2521 115
2522 397
2523 475
2524 137
2525 408
2526 200
2527 141
2528 3
2529 30
2530 304
2531 201
2532 203
2533 226
2534 140
2535 247
2536 447
2537 116
2538 157
2539 132
2540 34
2541 303
2542 477
2543 159
2544 177
2545 334
2546 235
2547 373
2548 40
2549 478
2550 292
2551 317
2552 320
2553 397
2554 287
2555 334
2556 408
2557 150
2558 51
2559 269
2560 337
2561 97
2562 295
2563 95
2564 126
2565 178
2566 290
2567 67
2568 73
2569 385
2570 244
2571 285
2572 272
2573 215
2574 408
2575 41
2576 166
2577 388
2578 401
2579 178
2580 24
2581 86
2582 306
2583 130
2584 122
2585 325
2586 163
2587 97
2588 402
2589 41
2590 153
2591 220
2592 73
2593 166
2594 390
2595 90
2596 138
2597 110
2598 339
2599 160
2600 13
2601 305
2602 89
2603 280
2604 321
2605 167
2606 5
2607 193
2608 439
2609 119
2610 94
2611 207
2612 279
2613 337
2614 77
2615 395
2616 0
2617 467
2618 301
2619 247
2620 171
2621 50
2622 233
2623 403
2624 209
2625 90
2626 406
2627 82
2628 338
2629 198
2630 13
2631 63
2632 34
2633 72
2634 249
2635 374
2636 71
2637 366
2638 83
2639 269
2640 327
2641 441
2642 334
2643 459
2644 408
2645 191
2646 106
2647 52
2648 381
2649 166
2650 340
2651 308
2652 332
2653 95
2654 11
2655 1
2656 373
2657 400
2658 89
2659 92
2660 282
2661 141
2662 479
2663 373
2664 304
2665 362
2666 69
2667 332
2668 32
2669 143
2670 350
2671 86
2672 185
2673 334
2674 366
2675 193
2676 71
2677 258
2678 162
2679 391
2680 70
2681 73
2682 319
2683 189
2684 300
2685 452
2686 381
2687 334
2688 429
2689 71
2690 322
2691 166
2692 381
2693 422
2694 429
2695 331
2696 290
2697 128
2698 431
2699 123
2700 76
2701 86
2702 42
2703 306
2704 77
2705 469
2706 50
2707 303
2708 328
2709 365
2710 73
2711 423
2712 312
2713 138
2714 189
2715 121
2716 123
2717 210
2718 282
2719 160
2720 87
2721 90
2722 345
2723 154
2724 472
2725 378
2726 234
2727 36
2728 412
2729 158
2730 121
2731 238
2732 412
2733 364
2734 480
2735 38
2736 202
2737 361
2738 19
2739 165
2740 338
2741 68
2742 472
2743 160
2744 80
2745 218
2746 320
2747 40
2748 34
2749 389
2750 380
2751 389
2752 112
2753 103
2754 98
2755 250
2756 120
2757 230
2758 116
2759 423
2760 30
2761 153
2762 196
2763 154
2764 230
2765 229
2766 269
2767 192
2768 469
2769 136
2770 233
2771 192
2772 154
2773 424
2774 95
2775 395
2776 273
2777 149
2778 321
2779 137
2780 14
2781 233
2782 323
2783 177
2784 81
2785 317
2786 470
2787 34
2788 238
2789 148
2790 332
2791 456
2792 94
2793 235
2794 142
2795 373
2796 34
2797 218
2798 220
2799 303
2800 389
2801 444
2802 286
2803 98
2804 105
2805 71
2806 164
2807 162
2808 75
2809 84
2810 475
2811 309
2812 284
2813 374
2814 116
2815 102
2816 162
2817 359
2818 438
2819 138
2820 138
2821 139
2822 81
2823 352
2824 195
2825 399
2826 457
2827 238
2828 48
2829 84
2830 67
2831 423
2832 304
2833 3
2834 184
2835 97
2836 434
2837 322
2838 145
2839 192
2840 116
2841 215
2842 481
2843 347
2844 180
2845 468
2846 34
2847 375
2848 244
2849 53
2850 120
2851 366
2852 348
2853 422
2854 275
2855 415
2856 241
2857 121
2858 65
2859 334
2860 153
2861 273
2862 414
2863 90
2864 81
2865 145
2866 201
2867 253
2868 27
2869 332
2870 162
2871 150
2872 241
2873 114
2874 441
2875 304
2876 310
2877 292
2878 341
2879 205
2880 139
2881 91
2882 121
2883 334
2884 348
2885 352
2886 256
2887 88
2888 13
2889 220
2890 230
2891 73
2892 469
2893 84
2894 112
2895 303
2896 123
2897 426
2898 371
2899 0
2900 139
2901 212
2902 229
2903 287
2904 234
2905 322
2906 164
2907 167
2908 232
2909 334
2910 307
2911 89
2912 73
2913 371
2914 383
2915 113
2916 379
2917 347
2918 278
2919 230
2920 263
2921 408
2922 345
2923 91
2924 301
2925 231
2926 395
2927 87
2928 358
2929 304
2930 408
2931 179
2932 295
2933 49
2934 372
2935 256
2936 315
2937 319
2938 49
2939 3
2940 166
2941 374
2942 105
2943 253
2944 283
2945 38
2946 167
2947 297
2948 307
2949 231
2950 434
2951 228
2952 388
2953 466
2954 32
2955 384
2956 467
2957 73
2958 385
2959 305
2960 374
2961 354
2962 253
2963 97
2964 123
2965 274
2966 303
2967 87
2968 123
2969 380
2970 192
2971 374
2972 353
2973 339
2974 379
2975 168
2976 84
2977 372
2978 247
2979 342
2980 109
2981 185
2982 160
2983 322
2984 230
2985 235
2986 386
2987 202
2988 27
2989 147
2990 55
2991 71
2992 234
2993 185
2994 411
2995 9
2996 201
2997 165
2998 172
2999 352
3000 0
3001 232
3002 85
3003 37
3004 430
3005 89
3006 364
3007 85
3008 430
3009 361
3010 410
3011 55
3012 249
3013 252
3014 171
3015 423
3016 86
3017 90
3018 107
3019 249
3020 165
3021 296
3022 423
3023 480
3024 177
3025 81
3026 312
3027 82
3028 182
3029 80
3030 422
3031 322
3032 389
3033 58
3034 456
3035 81
3036 296
3037 167
3038 109
3039 86
3040 67
3041 395
3042 248
3043 464
3044 232
3045 273
3046 383
3047 341
3048 218
3049 127
3050 51
3051 86
3052 1
3053 110
3054 134
3055 269
3056 135
3057 49
3058 3
3059 124
3060 459
3061 89
3062 182
3063 26
3064 128
3065 109
3066 82
3067 63
3068 84
3069 2
3070 71
3071 142
3072 430
3073 251
3074 128
3075 389
3076 304
3077 127
3078 337
3079 107
3080 242
3081 75
3082 269
3083 2
3084 353
3085 230
3086 300
3087 59
3088 244
3089 135
3090 331
3091 167
3092 86
3093 408
3094 232
3095 313
3096 426
3097 426
3098 383
3099 123
3100 303
3101 328
3102 358
3103 303
3104 254
3105 56
3106 296
3107 441
3108 19
3109 358
3110 273
3111 265
3112 235
3113 415
3114 376
3115 374
3116 312
3117 54
3118 82
3119 482
3120 215
3121 134
3122 156
3123 203
3124 128
3125 322
3126 8
3127 430
3128 383
3129 138
3130 457
3131 242
3132 274
3133 273
3134 124
3135 121
3136 276
3137 334
3138 5
3139 256
3140 273
3141 38
3142 223
3143 423
3144 167
3145 366
3146 128
3147 387
3148 3
3149 147
3150 56
3151 114
3152 92
3153 358
3154 220
3155 438
3156 312
3157 146
3158 74
3159 107
3160 440
3161 151
3162 339
3163 80
3164 141
3165 232
3166 120
3167 303
3168 438
3169 47
3170 414
3171 247
3172 315
3173 387
3174 245
3175 90
3176 339
3177 268
3178 106
3179 215
3180 36
3181 75
3182 71
3183 383
3184 246
3185 362
3186 71
3187 175
3188 98
3189 184
3190 112
3191 193
3192 306
3193 171
3194 1
3195 168
3196 249
3197 322
3198 463
3199 150
3200 422
3201 102
3202 30
3203 200
3204 331
3205 247
3206 173
3207 383
3208 220
3209 32
3210 434
3211 110
3212 359
3213 152
3214 34
3215 290
3216 215
3217 322
3218 49
3219 59
3220 106
3221 403
3222 295
3223 108
3224 409
3225 90
3226 430
3227 414
3228 167
3229 247
3230 103
3231 303
3232 171
3233 216
3234 220
3235 483
3236 173
3237 76
3238 339
3239 55
3240 334
3241 196
3242 325
3243 277
3244 383
3245 203
3246 389
3247 53
3248 216
3249 441
3250 49
3251 82
3252 230
3253 118
3254 100
3255 372
3256 251
3257 387
3258 74
3259 78
3260 389
3261 233
3262 49
3263 218
3264 225
3265 100
3266 421
3267 3
3268 107
3269 103
3270 453
3271 414
3272 2
3273 268
3274 24
3275 313
3276 352
3277 196
3278 78
3279 358
3280 235
3281 225
3282 292
3283 435
3284 28
3285 385
3286 89
3287 106
3288 54
3289 342
3290 91
3291 51
3292 224
3293 167
3294 20
3295 71
3296 30
3297 285
3298 312
3299 264
3300 274
3301 422
3302 156
3303 366
3304 76
3305 61
3306 408
3307 7
3308 19
3309 438
3310 10
3311 356
3312 106
3313 51
3314 137
3315 225
3316 259
3317 227
3318 102
3319 81
3320 224
3321 41
3322 152
3323 422
3324 27
3325 307
3326 49
3327 30
3328 301
3329 360
3330 175
3331 464
3332 428
3333 296
3334 137
3335 295
3336 212
3337 273
3338 230
3339 91
3340 458
3341 212
3342 315
3343 234
3344 345
3345 352
3346 78
3347 408
3348 47
3349 123
3350 168
3351 259
3352 363
3353 120
3354 399
3355 90
3356 397
3357 220
3358 286
3359 30
3360 303
3361 482
3362 309
3363 366
3364 198
3365 273
3366 290
3367 62
3368 89
3369 181
3370 76
3371 130
3372 268
3373 19
3374 218
3375 0
3376 358
3377 41
3378 266
3379 142
3380 220
3381 247
3382 381
3383 14
3384 296
3385 81
3386 238
3387 65
3388 47
3389 96
3390 230
3391 312
3392 322
3393 358
3394 90
3395 78
3396 366
3397 402
3398 205
3399 5
3400 374
3401 241
3402 380
3403 145
3404 283
3405 226
3406 406
3407 135
3408 389
3409 2
3410 385
3411 51
3412 162
3413 68
3414 339
3415 326
3416 259
3417 148
3418 145
3419 246
3420 152
3421 342
3422 238
3423 227
3424 366
3425 55
3426 235
3427 394
3428 383
3429 363
3430 90
3431 261
3432 134
3433 10
3434 342
3435 379
3436 121
3437 108
3438 315
3439 298
3440 111
3441 182
3442 296
3443 484
3444 235
3445 17
3446 321
3447 81
3448 202
3449 173
3450 383
3451 238
3452 178
3453 198
3454 241
3455 109
3456 122
3457 192
3458 19
3459 304
3460 274
3461 406
3462 230
3463 383
3464 192
3465 5
3466 82
3467 52
3468 339
3469 1
3470 262
3471 217
3472 162
3473 77
3474 77
3475 0
3476 315
3477 205
3478 219
3479 315
3480 240
3481 434
3482 381
3483 287
3484 81
3485 257
3486 181
3487 81
3488 366
3489 235
3490 61
3491 139
3492 89
3493 230
3494 139
3495 225
3496 85
3497 2
3498 308
3499 372
3500 337
3501 151
3502 292
3503 391
3504 55
3505 90
3506 219
3507 285
3508 460
3509 434
3510 239
3511 156
3512 475
3513 426
3514 295
3515 161
3516 77
3517 244
3518 306
3519 259
3520 364
3521 441
3522 218
3523 139
3524 217
3525 8
3526 130
3527 61
3528 314
3529 146
3530 485
3531 151
3532 434
3533 486
3534 40
3535 379
3536 144
3537 419
3538 306
3539 45
3540 317
3541 358
3542 108
3543 173
3544 62
3545 352
3546 441
3547 47
3548 73
3549 0
3550 310
3551 364
3552 487
3553 112
3554 244
3555 291
3556 114
3557 478
3558 215
3559 78
3560 225
3561 282
3562 203
3563 441
3564 380
3565 403
3566 162
3567 437
3568 415
3569 61
3570 123
3571 441
3572 333
3573 334
3574 435
3575 218
3576 192
3577 332
3578 110
3579 363
3580 254
3581 337
3582 379
3583 75
3584 34
3585 308
3586 251
3587 352
3588 387
3589 352
3590 339
3591 196
3592 124
3593 389
3594 89
3595 379
3596 70
3597 41
3598 406
3599 156
3600 55
3601 71
3602 139
3603 175
3604 480
3605 330
3606 310
3607 482
3608 358
3609 171
3610 41
3611 220
3612 63
3613 0
3614 13
3615 276
3616 334
3617 387
3618 51
3619 108
3620 62
3621 240
3622 137
3623 381
3624 463
3625 15
3626 178
3627 101
3628 142
3629 130
3630 96
3631 28
3632 456
3633 215
3634 163
3635 318
3636 429
3637 412
3638 298
3639 402
3640 128
3641 329
3642 151
3643 301
3644 334
3645 75
3646 410
3647 62
3648 201
3649 218
3650 307
3651 67
3652 98
3653 435
3654 358
3655 379
3656 97
3657 288
3658 263
3659 306
3660 89
3661 24
3662 101
3663 440
3664 230
3665 81
3666 337
3667 180
3668 225
3669 0
3670 24
3671 82
3672 408
3673 123
3674 134
3675 260
3676 233
3677 143
3678 327
3679 34
3680 488
3681 94
3682 268
3683 95
3684 88
3685 202
3686 123
3687 218
3688 155
3689 455
3690 49
3691 402
3692 89
3693 232
3694 216
3695 63
3696 68
3697 260
3698 281
3699 181
3700 135
3701 339
3702 196
3703 331
3704 322
3705 376
3706 469
3707 142
3708 419
3709 321
3710 295
3711 489
3712 220
3713 234
3714 172
3715 139
3716 398
3717 73
3718 296
3719 278
3720 137
3721 329
3722 469
3723 106
3724 338
3725 12
3726 158
3727 455
3728 81
3729 61
3730 379
3731 86
3732 310
3733 277
3734 166
3735 387
3736 132
3737 398
3738 71
3739 484
3740 411
3741 268
3742 203
3743 138
3744 104
3745 376
3746 441
3747 363
3748 312
3749 342
3750 65
3751 174
3752 173
3753 90
3754 244
3755 203
3756 381
3757 238
3758 307
3759 154
3760 434
3761 41
3762 311
3763 167
3764 384
3765 167
3766 306
3767 195
3768 345
3769 77
3770 137
3771 345
3772 121
3773 462
3774 0
3775 282
3776 158
3777 381
3778 66
3779 310
3780 81
3781 81
3782 334
3783 288
3784 40
3785 435
3786 316
3787 201
3788 30
3789 275
3790 173
3791 241
3792 334
3793 21
3794 315
3795 32
3796 132
3797 241
3798 302
3799 339
3800 288
3801 478
3802 108
3803 389
3804 262
3805 80
3806 142
3807 60
3808 13
3809 72
3810 230
3811 151
3812 248
3813 80
3814 173
3815 167
3816 347
3817 308
3818 108
3819 146
3820 362
3821 138
3822 182
3823 203
3824 14
3825 365
3826 21
3827 135
3828 230
3829 135
3830 109
3831 389
3832 261
3833 240
3834 422
3835 0
3836 34
3837 422
3838 421
3839 23
3840 82
3841 193
3842 441
3843 310
3844 34
3845 415
3846 127
3847 408
3848 268
3849 463
3850 137
3851 186
3852 322
3853 202
3854 236
3855 460
3856 407
3857 241
3858 365
3859 195
3860 464
3861 286
3862 106
3863 181
3864 34
3865 480
3866 178
3867 150
3868 306
3869 364
3870 408
3871 137
3872 96
3873 379
3874 81
3875 61
3876 50
3877 342
3878 309
3879 231
3880 296
3881 304
3882 75
3883 225
3884 349
3885 34
3886 318
3887 97
3888 283
3889 75
3890 215
3891 288
3892 490
3893 402
3894 306
3895 256
3896 144
3897 334
3898 410
3899 289
3900 136
3901 76
3902 0
3903 178
3904 126
3905 247
3906 209
3907 450
3908 115
3909 358
3910 211
3911 84
3912 167
3913 72
3914 247
3915 240
3916 407
3917 239
3918 423
3919 61
3920 386
3921 441
3922 73
3923 167
3924 334
3925 182
3926 168
3927 435
3928 422
3929 129
3930 98
3931 34
3932 387
3933 16
3934 3
3935 49
3936 278
3937 230
3938 87
3939 238
3940 435
3941 89
3942 353
3943 113
3944 422
3945 34
3946 435
3947 49
3948 50
3949 195
3950 253
3951 378
3952 491
3953 351
3954 274
3955 205
3956 315
3957 414
3958 268
3959 90
3960 61
3961 334
3962 215
3963 175
3964 70
3965 67
3966 304
3967 300
3968 238
3969 122
3970 395
3971 434
3972 285
3973 13
3974 158
3975 2
3976 387
3977 265
3978 380
3979 52
3980 77
3981 313
3982 201
3983 249
3984 268
3985 251
3986 167
3987 244
3988 2
3989 122
3990 97
3991 167
3992 0
3993 351
3994 11
3995 313
3996 338
3997 366
3998 274
3999 345
4000 193
4001 113
4002 199
4003 45
4004 3
4005 244
4006 121
4007 201
4008 343
4009 150
4010 230
4011 49
4012 85
4013 342
4014 402
4015 142
4016 288
4017 394
4018 212
4019 325
4020 487
4021 114
4022 309
4023 193
4024 146
4025 56
4026 218
4027 301
4028 147
4029 314
4030 105
4031 57
4032 230
4033 30
4034 128
4035 200
4036 409
4037 136
4038 130
4039 97
4040 334
4041 230
4042 337
4043 263
4044 184
4045 42
4046 105
4047 154
4048 260
4049 301
4050 68
4051 261
4052 167
4053 471
4054 199
4055 105
4056 50
4057 269
4058 345
4059 240
4060 429
4061 313
4062 381
4063 136
4064 125
4065 52
4066 30
4067 307
4068 313
4069 75
4070 303
4071 313
4072 354
4073 63
4074 5
4075 72
4076 202
4077 181
4078 182
4079 97
4080 320
4081 384
4082 353
4083 242
4084 140
4085 429
4086 225
4087 106
4088 313
4089 275
4090 235
4091 174
4092 111
4093 167
4094 136
4095 30
4096 193
4097 190
4098 166
4099 251
4100 94
4101 303
4102 151
4103 218
4104 173
4105 256
4106 414
4107 408
4108 292
4109 49
4110 171
4111 371
4112 285
4113 158
4114 94
4115 374
4116 235
4117 231
4118 41
4119 276
4120 304
4121 285
4122 149
4123 43
4124 381
4125 165
4126 13
4127 292
4128 264
4129 366
4130 288
4131 148
4132 357
4133 178
4134 94
4135 353
4136 315
4137 73
4138 287
4139 30
4140 183
4141 181
4142 1
4143 381
4144 247
4145 409
4146 415
4147 47
4148 306
4149 95
4150 19
4151 30
4152 305
4153 57
4154 154
4155 368
4156 296
4157 8
4158 463
4159 315
4160 34
4161 96
4162 303
4163 168
4164 421
4165 304
4166 68
4167 298
4168 63
4169 2
4170 303
4171 306
4172 244
4173 108
4174 276
4175 140
4176 61
4177 300
4178 81
4179 97
4180 71
4181 388
4182 96
4183 247
4184 95
4185 359
4186 308
4187 215
4188 47
4189 203
4190 97
4191 309
4192 307
4193 193
4194 159
4195 309
4196 306
4197 156
4198 235
4199 238
4200 245
4201 242
4202 376
4203 161
4204 110
4205 160
4206 54
4207 181
4208 229
4209 20
4210 11
4211 171
4212 0
4213 334
4214 492
4215 240
4216 106
4217 68
4218 414
4219 184
4220 0
4221 163
4222 156
4223 203
4224 314
4225 403
4226 409
4227 334
4228 438
4229 11
4230 171
4231 171
4232 244
4233 317
4234 94
4235 380
4236 244
4237 422
4238 123
4239 61
4240 372
4241 156
4242 276
4243 289
4244 178
4245 251
4246 159
4247 135
4248 108
4249 167
4250 304
4251 476
4252 167
4253 285
4254 387
4255 301
4256 334
4257 49
4258 430
4259 342
4260 33
4261 437
4262 65
4263 274
4264 166
4265 4
4266 408
4267 39
4268 87
4269 22
4270 397
4271 244
4272 310
4273 107
4274 19
4275 269
4276 146
4277 304
4278 182
4279 226
4280 184
4281 240
4282 235
4283 151
4284 50
4285 364
4286 225
4287 412
4288 181
4289 165
4290 135
4291 458
4292 215
4293 334
4294 204
4295 230
4296 224
4297 50
4298 493
4299 474
4300 2
4301 127
4302 162
4303 133
4304 94
4305 230
4306 22
4307 73
4308 143
4309 292
4310 286
4311 61
4312 216
4313 306
4314 288
4315 281
4316 424
4317 238
4318 34
4319 471
4320 373
4321 363
4322 230
4323 402
4324 310
4325 251
4326 67
4327 153
4328 44
4329 89
4330 50
4331 94
4332 102
4333 162
4334 122
4335 334
4336 268
4337 57
4338 85
4339 226
4340 181
4341 334
4342 121
4343 70
4344 55
4345 201
4346 262
4347 414
4348 367
4349 322
4350 62
4351 281
4352 166
4353 80
4354 373
4355 245
4356 287
4357 26
4358 55
4359 94
4360 224
4361 231
4362 40
4363 235
4364 434
4365 333
4366 334
4367 55
4368 403
4369 463
4370 338
4371 446
4372 343
4373 246
4374 82
4375 163
4376 276
4377 73
4378 282
4379 106
4380 201
4381 314
4382 89
4383 359
4384 41
4385 224
4386 81
4387 435
4388 124
4389 349
4390 365
4391 219
4392 138
4393 268
4394 463
4395 228
4396 364
4397 197
4398 276
4399 286
4400 334
4401 489
4402 18
4403 38
4404 387
4405 3
4406 32
4407 50
4408 87
4409 195
4410 77
4411 292
4412 204
4413 373
4414 185
4415 230
4416 314
4417 215
4418 13
4419 182
4420 26
4421 55
4422 30
4423 355
4424 148
4425 135
4426 127
4427 212
4428 28
4429 41
4430 373
4431 235
4432 291
4433 77
4434 364
4435 40
4436 303
4437 166
4438 322
4439 141
4440 13
4441 233
4442 408
4443 41
4444 445
4445 435
4446 119
4447 403
4448 182
4449 491
4450 312
4451 124
4452 175
4453 167
4454 3
4455 430
4456 226
4457 494
4458 34
4459 182
4460 292
4461 219
4462 304
4463 193
4464 95
4465 137
4466 107
4467 364
4468 462
4469 38
4470 309
4471 304
4472 254
4473 495
4474 72
4475 235
4476 278
4477 47
4478 40
4479 67
4480 373
4481 298
4482 120
4483 235
4484 216
4485 125
4486 251
4487 152
4488 52
4489 65
4490 106
4491 314
4492 107
4493 137
4494 84
4495 40
4496 153
4497 286
4498 140
4499 437
4500 364
4501 227
4502 376
4503 165
4504 166
4505 162
4506 60
4507 69
4508 281
4509 288
4510 453
4511 315
4512 409
4513 74
4514 373
4515 351
4516 306
4517 178
4518 403
4519 197
4520 3
4521 77
4522 25
4523 306
4524 53
4525 139
4526 72
4527 164
4528 225
4529 288
4530 316
4531 259
4532 141
4533 318
4534 303
4535 193
4536 139
4537 150
4538 287
4539 94
4540 281
4541 218
4542 308
4543 231
4544 133
4545 278
4546 222
4547 248
4548 201
4549 358
4550 303
4551 168
4552 200
4553 292
4554 247
4555 300
4556 470
4557 78
4558 322
4559 250
4560 334
4561 28
4562 274
4563 489
4564 429
4565 373
4566 296
4567 129
4568 105
4569 95
4570 201
4571 135
4572 403
4573 374
4574 300
4575 55
4576 53
4577 38
4578 28
4579 319
4580 349
4581 440
4582 110
4583 63
4584 235
4585 51
4586 50
4587 44
4588 192
4589 96
4590 422
4591 11
4592 458
4593 235
4594 148
4595 94
4596 240
4597 363
4598 334
4599 197
4600 198
4601 238
4602 303
4603 104
4604 326
4605 150
4606 124
4607 269
4608 244
4609 330
4610 385
4611 286
4612 261
4613 76
4614 374
4615 108
4616 173
4617 372
4618 200
4619 369
4620 186
4621 419
4622 411
4623 306
4624 77
4625 164
4626 368
4627 124
4628 78
4629 289
4630 449
4631 136
4632 406
4633 156
4634 163
4635 210
4636 67
4637 90
4638 286
4639 68
4640 89
4641 107
4642 425
4643 112
4644 200
4645 190
4646 176
4647 107
4648 95
4649 195
4650 360
4651 25
4652 337
4653 41
4654 50
4655 373
4656 201
4657 288
4658 40
4659 47
4660 115
4661 322
4662 203
4663 48
4664 202
4665 287
4666 403
4667 72
4668 110
4669 251
4670 94
4671 94
4672 162
4673 238
4674 147
4675 423
4676 137
4677 67
4678 344
4679 310
4680 10
4681 273
4682 200
4683 96
4684 129
4685 225
4686 132
4687 3
4688 89
4689 195
4690 22
4691 72
4692 152
4693 87
4694 166
4695 449
4696 94
4697 254
4698 107
4699 238
4700 234
4701 290
4702 232
4703 104
4704 244
4705 81
4706 362
4707 55
4708 110
4709 246
4710 435
4711 71
4712 225
4713 232
4714 44
4715 373
4716 268
4717 331
4718 366
4719 177
4720 77
4721 334
4722 73
4723 234
4724 5
4725 462
4726 128
4727 98
4728 98
4729 433
4730 151
4731 94
4732 185
4733 210
4734 383
4735 462
4736 3
4737 51
4738 55
4739 345
4740 269
4741 303
4742 83
4743 461
4744 386
4745 134
4746 332
4747 138
4748 475
4749 455
4750 431
4751 382
4752 218
4753 133
4754 312
4755 429
4756 304
4757 137
4758 378
4759 496
4760 154
4761 50
4762 422
4763 81
4764 419
4765 234
4766 49
4767 3
4768 353
4769 119
4770 251
4771 232
4772 338
4773 334
4774 272
4775 3
4776 141
4777 285
4778 55
4779 127
4780 131
4781 345
4782 107
4783 435
4784 372
4785 132
4786 55
4787 409
4788 399
4789 333
4790 125
4791 362
4792 228
4793 303
4794 295
4795 106
4796 248
4797 238
4798 368
4799 108
4800 182
4801 235
4802 422
4803 455
4804 385
4805 171
4806 352
4807 137
4808 205
4809 305
4810 296
4811 355
4812 346
4813 91
4814 364
4815 80
4816 156
4817 358
4818 104
4819 154
4820 372
4821 364
4822 38
4823 124
4824 2
4825 488
4826 150
4827 98
4828 247
4829 75
4830 104
4831 152
4832 115
4833 142
4834 23
4835 73
4836 195
4837 80
4838 163
4839 383
4840 19
4841 196
4842 128
4843 128
4844 113
4845 414
4846 38
4847 94
4848 373
4849 80
4850 82
4851 383
4852 266
4853 23
4854 364
4855 124
4856 345
4857 19
4858 132
4859 303
4860 82
4861 220
4862 152
4863 353
4864 71
4865 170
4866 229
4867 230
4868 223
4869 80
4870 373
4871 3
4872 49
4873 2
4874 30
4875 30
4876 32
4877 300
4878 303
4879 292
4880 334
4881 303
4882 165
4883 280
4884 334
4885 339
4886 331
4887 247
4888 49
4889 462
4890 46
4891 410
4892 334
4893 488
4894 315
4895 238
4896 405
4897 142
4898 395
4899 138
4900 176
4901 373
4902 220
4903 292
4904 275
4905 154
4906 273
4907 173
4908 114
4909 138
4910 186
4911 80
4912 38
4913 345
4914 266
4915 84
4916 72
4917 444
4918 295
4919 191
4920 85
4921 201
4922 335
4923 227
4924 392
4925 379
4926 310
4927 26
4928 292
4929 309
4930 424
4931 167
4932 91
4933 345
4934 326
4935 366
4936 196
4937 91
4938 372
4939 364
4940 151
4941 124
4942 123
4943 47
4944 266
4945 220
4946 67
4947 295
4948 98
4949 431
4950 358
4951 127
4952 128
4953 154
4954 207
4955 279
4956 91
4957 138
4958 342
4959 379
4960 345
4961 49
4962 385
4963 334
4964 251
4965 402
4966 91
4967 342
4968 228
4969 364
4970 395
4971 278
4972 379
4973 182
4974 238
4975 334
4976 55
4977 274
4978 81
4979 86
4980 327
4981 297
4982 295
4983 205
4984 20
4985 497
4986 34
4987 362
4988 137
4989 169
4990 238
4991 371
4992 153
4993 114
4994 47
4995 3
4996 303
4997 379
4998 252
4999 93
5000 136
5001 132
5002 414
5003 89
5004 72
5005 216
5006 431
5007 236
5008 154
5009 2
5010 71
5011 48
5012 2
5013 274
5014 385
5015 167
5016 376
5017 345
5018 462
5019 327
5020 185
5021 356
5022 167
5023 381
5024 401
5025 259
5026 16
5027 199
5028 379
5029 242
5030 192
5031 35
5032 184
5033 75
5034 243
5035 398
5036 83
5037 228
5038 373
5039 202
5040 405
5041 221
5042 0
5043 424
5044 235
5045 394
5046 361
5047 358
5048 121
5049 80
5050 84
5051 374
5052 270
5053 440
5054 234
5055 38
5056 133
5057 423
5058 339
5059 247
5060 462
5061 195
5062 9
5063 195
5064 315
5065 27
5066 303
5067 168
5068 109
5069 309
5070 395
5071 247
5072 253
5073 235
5074 373
5075 167
5076 75
5077 3
5078 47
5079 381
5080 376
5081 373
5082 218
5083 342
5084 147
5085 80
5086 29
5087 455
5088 197
5089 301
5090 419
5091 201
5092 444
5093 123
5094 108
5095 86
5096 403
5097 49
5098 26
5099 89
5100 249
5101 98
5102 303
5103 199
5104 110
5105 322
5106 168
5107 91
5108 90
5109 212
5110 168
5111 135
5112 13
5113 215
5114 77
5115 469
5116 409
5117 342
5118 108
5119 415
5120 113
5121 49
5122 72
5123 84
5124 268
5125 321
5126 386
5127 124
5128 253
5129 128
5130 220
5131 304
5132 247
5133 334
5134 232
5135 220
5136 315
5137 171
5138 192
5139 175
5140 234
5141 142
5142 121
5143 422
5144 108
5145 411
5146 43
5147 107
5148 273
5149 153
5150 206
5151 238
5152 329
5153 268
5154 476
5155 460
5156 295
5157 342
5158 86
5159 231
5160 441
5161 322
5162 181
5163 295
5164 186
5165 231
5166 382
5167 235
5168 225
5169 164
5170 366
5171 455
5172 274
5173 101
5174 423
5175 103
5176 106
5177 56
5178 312
5179 71
5180 95
5181 108
5182 251
5183 137
5184 283
5185 315
5186 312
5187 383
5188 303
5189 273
5190 307
5191 71
5192 414
5193 171
5194 124
5195 175
5196 249
5197 339
5198 303
5199 210
5200 137
5201 403
5202 310
5203 313
5204 376
5205 395
5206 289
5207 171
5208 138
5209 376
5210 271
5211 120
5212 423
5213 409
5214 81
5215 323
5216 233
5217 81
5218 230
5219 189
5220 402
5221 167
5222 135
5223 171
5224 498
5225 196
5226 437
5227 430
5228 435
5229 252
5230 167
5231 452
5232 406
5233 339
5234 38
5235 306
5236 61
5237 72
5238 204
5239 295
5240 389
5241 372
5242 167
5243 108
5244 80
5245 105
5246 61
5247 215
5248 395
5249 30
5250 137
5251 381
5252 255
5253 289
5254 338
5255 376
5256 182
5257 203
5258 78
5259 135
5260 244
5261 274
5262 414
5263 151
5264 89
5265 203
5266 334
5267 107
5268 295
5269 295
5270 430
5271 410
5272 3
5273 408
5274 103
5275 34
5276 196
5277 288
5278 499
5279 247
5280 203
5281 238
5282 3
5283 295
5284 80
5285 395
5286 108
5287 1
5288 230
5289 286
5290 22
5291 197
5292 268
5293 89
5294 193
5295 47
5296 296
5297 71
5298 30
5299 128
5300 124
5301 146
5302 69
5303 306
5304 389
5305 422
5306 478
5307 295
5308 146
5309 47
5310 314
5311 117
5312 216
5313 350
5314 383
5315 303
5316 18
5317 71
5318 359
5319 140
5320 205
5321 268
5322 197
5323 431
5324 106
5325 34
5326 155
5327 356
5328 303
5329 38
5330 334
5331 89
5332 379
5333 218
5334 30
5335 108
5336 109
5337 124
5338 34
5339 143
5340 77
5341 112
5342 340
5343 262
5344 22
5345 372
5346 196
5347 106
5348 356
5349 273
5350 226
5351 22
5352 220
5353 312
5354 125
5355 155
5356 379
5357 229
5358 56
5359 432
5360 341
5361 106
5362 161
5363 464
5364 1
5365 379
5366 381
5367 432
5368 345
5369 315
5370 389
5371 89
5372 218
5373 161
5374 205
5375 259
5376 91
5377 159
5378 81
5379 235
5380 105
5381 137
5382 389
5383 370
5384 253
5385 92
5386 101
5387 430
5388 98
5389 0
5390 141
5391 181
5392 173
5393 231
5394 364
5395 2
5396 225
5397 220
5398 412
5399 94
5400 468
5401 280
5402 259
5403 68
5404 312
5405 303
5406 363
5407 205
5408 496
5409 296
5410 138
5411 202
5412 414
5413 318
5414 237
5415 288
5416 1
5417 441
5418 383
5419 84
5420 387
5421 135
5422 286
5423 237
5424 200
5425 22
5426 14
5427 77
5428 358
5429 85
5430 202
5431 47
5432 387
5433 20
5434 40
5435 381
5436 348
5437 191
5438 381
5439 212
5440 106
5441 219
5442 437
5443 56
5444 290
5445 305
5446 220
5447 285
5448 164
5449 181
5450 197
5451 230
5452 230
5453 179
5454 216
5455 47
5456 251
5457 109
5458 183
5459 47
5460 164
5461 258
5462 230
5463 106
5464 232
5465 306
5466 225
5467 152
5468 381
5469 378
5470 364
5471 135
5472 395
5473 310
5474 334
5475 41
5476 165
5477 173
5478 171
5479 76
5480 312
5481 89
5482 441
5483 108
5484 406
5485 379
5486 48
5487 109
5488 426
5489 238
5490 177
5491 467
5492 0
5493 196
5494 352
5495 61
5496 141
5497 205
5498 53
5499 311
5500 93
5501 205
5502 251
5503 162
5504 41
5505 34
5506 280
5507 2
5508 175
5509 306
5510 52
5511 296
5512 231
5513 259
5514 334
5515 173
5516 3
5517 123
5518 396
5519 259
5520 61
5521 244
5522 198
5523 374
5524 251
5525 251
5526 435
5527 285
5528 389
5529 1
5530 71
5531 275
5532 389
5533 358
5534 306
5535 300
5536 205
5537 479
5538 376
5539 168
5540 44
5541 218
5542 25
5543 432
5544 128
5545 468
5546 301
5547 78
5548 30
5549 76
5550 137
5551 126
5552 164
5553 286
5554 81
5555 352
5556 359
5557 243
5558 30
5559 32
5560 181
5561 415
5562 387
5563 295
5564 56
5565 44
5566 0
5567 196
5568 40
5569 240
5570 259
5571 395
5572 155
5573 387
5574 121
5575 34
5576 192
5577 244
5578 106
5579 244
5580 123
5581 90
5582 49
5583 249
5584 418
5585 311
5586 358
5587 458
5588 430
5589 47
5590 459
5591 427
5592 152
5593 233
5594 159
5595 195
5596 202
5597 437
5598 268
5599 192
5600 298
5601 282
5602 108
5603 349
5604 137
5605 240
5606 125
5607 235
5608 115
5609 106
5610 441
5611 150
5612 175
5613 0
5614 181
5615 128
5616 387
5617 274
5618 389
5619 199
5620 390
5621 325
5622 240
5623 467
5624 262
5625 67
5626 74
5627 383
5628 121
5629 240
5630 71
5631 160
5632 235
5633 287
5634 223
5635 123
5636 247
5637 30
5638 67
5639 419
5640 138
5641 196
5642 288
5643 158
5644 152
5645 41
5646 137
5647 275
5648 262
5649 334
5650 281
5651 381
5652 47
5653 151
5654 77
5655 106
5656 402
5657 148
5658 306
5659 334
5660 130
5661 95
5662 146
5663 131
5664 142
5665 181
5666 387
5667 315
5668 142
5669 50
5670 381
5671 252
5672 379
5673 272
5674 322
5675 192
5676 201
5677 136
5678 238
5679 204
5680 193
5681 47
5682 455
5683 123
5684 0
5685 50
5686 345
5687 34
5688 317
5689 334
5690 68
5691 101
5692 189
5693 128
5694 111
5695 338
5696 165
5697 387
5698 97
5699 363
5700 283
5701 173
5702 334
5703 322
5704 181
5705 197
5706 101
5707 39
5708 34
5709 244
5710 163
5711 310
5712 94
5713 168
5714 387
5715 334
5716 13
5717 51
5718 200
5719 98
5720 127
5721 106
5722 262
5723 137
5724 210
5725 61
5726 13
5727 249
5728 380
5729 89
5730 464
5731 289
5732 181
5733 358
5734 142
5735 413
5736 166
5737 223
5738 423
5739 67
5740 240
5741 275
5742 57
5743 275
5744 83
5745 200
5746 137
5747 331
5748 98
5749 494
5750 357
5751 146
5752 106
5753 268
5754 71
5755 436
5756 312
5757 441
5758 183
5759 355
5760 398
5761 227
5762 23
5763 34
5764 246
5765 268
5766 175
5767 89
5768 94
5769 331
5770 98
5771 67
5772 196
5773 178
5774 354
5775 71
5776 394
5777 285
5778 441
5779 408
5780 435
5781 268
5782 345
5783 72
5784 209
5785 150
5786 202
5787 238
5788 202
5789 250
5790 416
5791 214
5792 94
5793 271
5794 408
5795 387
5796 150
5797 203
5798 441
5799 202
5800 457
5801 390
5802 123
5803 61
5804 259
5805 89
5806 115
5807 149
5808 384
5809 313
5810 20
5811 443
5812 181
5813 34
5814 137
5815 149
5816 316
5817 182
5818 288
5819 334
5820 37
5821 305
5822 162
5823 162
5824 364
5825 451
5826 284
5827 30
5828 312
5829 323
5830 255
5831 147
5832 168
5833 89
5834 306
5835 142
5836 322
5837 464
5838 260
5839 431
5840 61
5841 43
5842 122
5843 410
5844 222
5845 491
5846 310
5847 295
5848 0
5849 373
5850 255
5851 201
5852 366
5853 106
5854 166
5855 410
5856 213
5857 382
5858 130
5859 334
5860 402
5861 414
5862 163
5863 310
5864 0
5865 37
5866 237
5867 166
5868 202
5869 400
5870 109
5871 492
5872 40
5873 435
5874 406
5875 408
5876 264
5877 266
5878 467
5879 234
5880 135
5881 326
5882 315
5883 103
5884 34
5885 368
5886 331
5887 21
5888 460
5889 173
5890 184
5891 3
5892 244
5893 38
5894 162
5895 334
5896 352
5897 203
5898 239
5899 34
5900 203
5901 142
5902 47
5903 269
5904 259
5905 106
5906 334
5907 364
5908 220
5909 280
5910 268
5911 415
5912 303
5913 334
5914 178
5915 232
5916 303
5917 137
5918 416
5919 381
5920 218
5921 381
5922 251
5923 77
5924 257
5925 421
5926 36
5927 232
5928 113
5929 381
5930 48
5931 352
5932 123
5933 20
5934 380
5935 256
5936 290
5937 217
5938 167
5939 101
5940 20
5941 50
5942 180
5943 81
5944 92
5945 309
5946 305
5947 94
5948 439
5949 166
5950 243
5951 315
5952 260
5953 162
5954 244
5955 136
5956 106
5957 72
5958 313
5959 167
5960 184
5961 257
5962 181
5963 20
5964 238
5965 338
5966 453
5967 143
5968 327
5969 100
5970 225
5971 147
5972 30
5973 202
5974 342
5975 437
5976 136
5977 335
5978 202
5979 332
5980 0
5981 321
5982 268
5983 73
5984 440
5985 54
5986 34
5987 372
5988 381
5989 352
5990 422
5991 323
5992 234
5993 89
5994 138
5995 225
5996 108
5997 47
5998 105
5999 71
6000 97
6001 178
6002 437
6003 385
6004 77
6005 52
6006 366
6007 303
6008 276
6009 247
6010 201
6011 74
6012 257
6013 135
6014 106
6015 185
6016 299
6017 249
6018 13
6019 107
6020 255
6021 73
6022 307
6023 73
6024 266
6025 106
6026 49
6027 435
6028 366
6029 312
6030 34
6031 77
6032 422
6033 67
6034 441
6035 140
6036 483
6037 361
6038 137
6039 107
6040 3
6041 470
6042 252
6043 71
6044 437
6045 137
6046 89
6047 27
6048 200
6049 91
6050 294
6051 155
6052 301
6053 304
6054 91
6055 73
6056 430
6057 185
6058 181
6059 27
6060 318
6061 165
6062 161
6063 295
6064 402
6065 59
6066 244
6067 97
6068 80
6069 161
6070 60
6071 109
6072 341
6073 342
6074 435
6075 2
6076 396
6077 233
6078 34
6079 170
6080 84
6081 44
6082 279
6083 19
6084 334
6085 365
6086 437
6087 28
6088 380
6089 469
6090 247
6091 81
6092 30
6093 68
6094 385
6095 164
6096 93
6097 345
6098 130
6099 244
6100 3
6101 256
6102 165
6103 187
6104 147
6105 236
6106 327
6107 422
6108 269
6109 106
6110 364
6111 308
6112 160
6113 312
6114 195
6115 464
6116 3
6117 309
6118 203
6119 366
6120 13
6121 195
6122 486
6123 269
6124 98
6125 195
6126 389
6127 312
6128 165
6129 315
6130 155
6131 403
6132 14
6133 221
6134 24
6135 25
6136 419
6137 201
6138 334
6139 123
6140 232
6141 285
6142 135
6143 163
6144 429
6145 290
6146 394
6147 292
6148 195
6149 173
6150 422
6151 331
6152 195
6153 398
6154 500
6155 47
6156 2
6157 329
6158 243
6159 110
6160 71
6161 304
6162 34
6163 23
6164 339
6165 191
6166 94
6167 352
6168 463
6169 451
6170 351
6171 99
6172 137
6173 258
6174 226
6175 107
6176 196
6177 441
6178 243
6179 434
6180 182
6181 166
6182 385
6183 430
6184 94
6185 68
6186 306
6187 363
6188 68
6189 379
6190 495
6191 307
6192 417
6193 38
6194 121
6195 281
6196 131
6197 182
6198 275
6199 429
6200 225
6201 387
6202 263
6203 290
6204 150
6205 304
6206 259
6207 244
6208 165
6209 68
6210 101
6211 303
6212 457
6213 129
6214 275
6215 493
6216 221
6217 240
6218 69
6219 424
6220 464
6221 193
6222 138
6223 151
6224 138
6225 304
6226 257
6227 148
6228 442
6229 385
6230 173
6231 377
6232 69
6233 198
6234 47
6235 47
6236 424
6237 76
6238 334
6239 138
6240 0
6241 251
6242 150
6243 246
6244 73
6245 274
6246 334
6247 72
6248 342
6249 334
6250 303
6251 34
6252 107
6253 290
6254 124
6255 106
6256 193
6257 135
6258 146
6259 167
6260 112
6261 131
6262 437
6263 193
6264 157
6265 303
6266 415
6267 13
6268 5
6269 64
6270 235
6271 244
6272 296
6273 432
6274 78
6275 167
6276 166
6277 212
6278 147
6279 83
6280 274
6281 321
6282 51
6283 72
6284 163
6285 202
6286 342
6287 422
6288 156
6289 191
6290 46
6291 256
6292 86
6293 249
6294 71
6295 166
6296 182
6297 474
6298 403
6299 304
6300 59
6301 389
6302 233
6303 161
6304 72
6305 203
6306 313
6307 150
6308 306
6309 337
6310 430
6311 72
6312 162
6313 315
6314 156
6315 435
6316 334
6317 72
6318 240
6319 152
6320 81
6321 112
6322 94
6323 215
6324 127
6325 43
6326 295
6327 203
6328 314
6329 76
6330 182
6331 108
6332 356
6333 219
6334 430
6335 100
6336 38
6337 0
6338 0
6339 153
6340 303
6341 303
6342 92
6343 201
6344 439
6345 205
6346 334
6347 303
6348 218
6349 471
6350 250
6351 22
6352 185
6353 30
6354 167
6355 407
6356 324
6357 483
6358 107
6359 285
6360 408
6361 197
6362 50
6363 314
6364 202
6365 225
6366 168
6367 0
6368 310
6369 13
6370 37
6371 234
6372 138
6373 390
6374 288
6375 448
6376 244
6377 251
6378 379
6379 215
6380 163
6381 303
6382 85
6383 34
6384 500
6385 3
6386 63
6387 166
6388 235
6389 200
6390 438
6391 33
6392 296
6393 276
6394 22
6395 201
6396 219
6397 216
6398 150
6399 182
6400 202
6401 94
6402 167
6403 501
6404 89
6405 159
6406 0
6407 150
6408 409
6409 334
6410 317
6411 138
6412 147
6413 110
6414 91
6415 199
6416 406
6417 82
6418 322
6419 171
6420 287
6421 166
6422 0
6423 3
6424 55
6425 402
6426 410
6427 230
6428 167
6429 309
6430 52
6431 290
6432 201
6433 221
6434 434
6435 78
6436 121
6437 473
6438 348
6439 316
6440 216
6441 316
6442 163
6443 363
6444 259
6445 137
6446 395
6447 312
6448 326
6449 392
6450 193
6451 272
6452 327
6453 174
6454 41
6455 163
6456 228
6457 322
6458 303
6459 201
6460 159
6461 146
6462 314
6463 384
6464 76
6465 208
6466 137
6467 188
6468 303
6469 306
6470 326
6471 88
6472 97
6473 41
6474 124
6475 55
6476 309
6477 200
6478 101
6479 235
6480 356
6481 296
6482 312
6483 56
6484 13
6485 373
6486 19
6487 0
6488 73
6489 198
6490 46
6491 256
6492 1
6493 109
6494 124
6495 244
6496 201
6497 366
6498 30
6499 364
6500 169
6501 34
6502 65
6503 0
6504 169
6505 69
6506 233
6507 200
6508 322
6509 222
6510 260
6511 208
6512 305
6513 137
6514 150
6515 201
6516 47
6517 135
6518 278
6519 3
6520 96
6521 376
6522 308
6523 150
6524 202
6525 173
6526 220
6527 166
6528 234
6529 263
6530 396
6531 403
6532 437
6533 32
6534 334
6535 13
6536 250
6537 496
6538 296
6539 34
6540 390
6541 260
6542 235
6543 394
6544 413
6545 334
6546 127
6547 393
6548 438
6549 167
6550 329
6551 285
6552 422
6553 218
6554 119
6555 176
6556 140
6557 307
6558 104
6559 329
6560 95
6561 458
6562 491
6563 126
6564 182
6565 90
6566 304
6567 366
6568 240
6569 284
6570 162
6571 422
6572 166
6573 201
6574 38
6575 196
6576 144
6577 95
6578 20
6579 84
6580 44
6581 105
6582 309
6583 73
6584 376
6585 73
6586 292
6587 339
6588 438
6589 136
6590 136
6591 178
6592 225
6593 35
6594 47
6595 247
6596 75
6597 491
6598 397
6599 107
6600 236
6601 213
6602 195
6603 19
6604 441
6605 231
6606 149
6607 292
6608 334
6609 394
6610 316
6611 12
6612 13
6613 163
6614 202
6615 286
6616 166
6617 55
6618 322
6619 13
6620 161
6621 303
6622 89
6623 153
6624 30
6625 30
6626 202
6627 233
6628 208
6629 19
6630 458
6631 318
6632 320
6633 73
6634 496
6635 1
6636 486
6637 480
6638 107
6639 61
6640 480
6641 262
6642 218
6643 403
6644 167
6645 406
6646 406
6647 356
6648 51
6649 65
6650 303
6651 121
6652 34
6653 30
6654 55
6655 34
6656 364
6657 16
6658 319
6659 437
6660 282
6661 411
6662 5
6663 238
6664 373
6665 194
6666 388
6667 238
6668 28
6669 316
6670 429
6671 372
6672 78
6673 41
6674 218
6675 38
6676 358
6677 71
6678 403
6679 96
6680 189
6681 450
6682 56
6683 159
6684 166
6685 494
6686 306
6687 484
6688 276
6689 263
6690 194
6691 306
6692 36
6693 471
6694 164
6695 20
6696 311
6697 181
6698 372
6699 96
6700 84
6701 14
6702 296
6703 39
6704 425
6705 336
6706 440
6707 250
6708 71
6709 217
6710 229
6711 124
6712 166
6713 408
6714 482
6715 99
6716 422
6717 358
6718 476
6719 259
6720 280
6721 102
6722 3
6723 373
6724 50
6725 65
6726 198
6727 84
6728 118
6729 452
6730 312
6731 364
6732 321
6733 107
6734 357
6735 441
6736 232
6737 235
6738 137
6739 19
6740 119
6741 8
6742 423
6743 339
6744 376
6745 288
6746 150
6747 22
6748 192
6749 69
6750 90
6751 41
6752 327
6753 230
6754 303
6755 83
6756 345
6757 202
6758 160
6759 30
6760 83
6761 74
6762 118
6763 215
6764 381
6765 446
6766 216
6767 436
6768 421
6769 409
6770 423
6771 89
6772 380
6773 308
6774 381
6775 94
6776 233
6777 342
6778 34
6779 138
6780 41
6781 395
6782 128
6783 155
6784 172
6785 339
6786 285
6787 303
6788 47
6789 322
6790 268
6791 162
6792 198
6793 303
6794 406
6795 173
6796 73
6797 332
6798 235
6799 218
6800 304
6801 366
6802 374
6803 291
6804 73
6805 196
6806 150
6807 235
6808 376
6809 107
6810 222
6811 322
6812 13
6813 381
6814 195
6815 445
6816 366
6817 402
6818 107
6819 153
6820 19
6821 188
6822 463
6823 403
6824 399
6825 19
6826 234
6827 3
6828 213
6829 202
6830 396
6831 314
6832 304
6833 269
6834 220
6835 296
6836 415
6837 437
6838 304
6839 265
6840 71
6841 34
6842 443
6843 365
6844 481
6845 267
6846 213
6847 124
6848 410
6849 260
6850 110
6851 408
6852 345
6853 287
6854 314
6855 163
6856 491
6857 124
6858 416
6859 72
6860 410
6861 230
6862 182
6863 132
6864 150
6865 385
6866 49
6867 322
6868 359
6869 137
6870 397
6871 395
6872 451
6873 298
6874 124
6875 163
6876 51
6877 195
6878 371
6879 34
6880 168
6881 178
6882 501
6883 240
6884 215
6885 175
6886 39
6887 358
6888 327
6889 345
6890 34
6891 300
6892 245
6893 85
6894 51
6895 347
6896 101
6897 7
6898 34
6899 201
6900 269
6901 496
6902 338
6903 68
6904 196
6905 192
6906 87
6907 109
6908 133
6909 238
6910 476
6911 183
6912 410
6913 447
6914 442
6915 334
6916 55
6917 142
6918 72
6919 232
6920 377
6921 266
6922 196
6923 80
6924 65
6925 124
6926 142
6927 364
6928 303
6929 55
6930 499
6931 334
6932 178
6933 260
6934 145
6935 176
6936 440
6937 406
6938 200
6939 155
6940 115
6941 34
6942 286
6943 153
6944 23
6945 303
6946 49
6947 107
6948 218
6949 241
6950 313
6951 234
6952 380
6953 383
6954 243
6955 162
6956 139
6957 280
6958 335
6959 313
6960 366
6961 377
6962 292
6963 167
6964 80
6965 256
6966 445
6967 30
6968 383
6969 381
6970 253
6971 423
6972 315
6973 238
6974 114
6975 114
6976 374
6977 282
6978 128
6979 334
6980 182
6981 222
6982 121
6983 354
6984 199
6985 327
6986 230
6987 285
6988 113
6989 410
6990 366
6991 123
6992 372
6993 68
6994 121
6995 426
6996 82
6997 9
6998 374
6999 364
7000 59
7001 442
7002 184
7003 132
7004 105
7005 437
7006 306
7007 62
7008 304
7009 211
7010 285
7011 163
7012 192
7013 322
7014 3
7015 121
7016 34
7017 280
7018 34
7019 89
7020 90
7021 338
7022 128
7023 2
7024 339
7025 375
7026 315
7027 186
7028 147
7029 268
7030 342
7031 162
7032 273
7033 242
7034 358
7035 121
7036 81
7037 352
7038 52
7039 90
7040 303
7041 218
7042 108
7043 137
7044 315
7045 71
7046 192
7047 342
7048 58
7049 63
7050 381
7051 496
7052 165
7053 259
7054 464
7055 381
7056 273
7057 251
7058 296
7059 34
7060 0
7061 220
7062 241
7063 271
7064 430
7065 353
7066 259
7067 128
7068 309
7069 123
7070 27
7071 374
7072 438
7073 98
7074 434
7075 415
7076 423
7077 414
7078 29
7079 54
7080 162
7081 121
7082 226
7083 374
7084 34
7085 74
7086 32
7087 142
7088 91
7089 0
7090 232
7091 72
7092 303
7093 373
7094 366
7095 73
7096 422
7097 381
7098 372
7099 169
7100 280
7101 304
7102 332
7103 346
7104 377
7105 128
7106 245
7107 451
7108 95
7109 13
7110 321
7111 406
7112 3
7113 487
7114 358
7115 273
7116 146
7117 483
7118 230
7119 5
7120 322
7121 430
7122 171
7123 273
7124 403
7125 234
7126 334
7127 440
7128 247
7129 364
7130 497
7131 217
7132 196
7133 98
7134 342
7135 119
7136 372
7137 2
7138 315
7139 219
7140 426
7141 5
7142 235
7143 379
7144 137
7145 474
7146 379
7147 292
7148 379
7149 268
7150 159
7151 414
7152 210
7153 403
7154 437
7155 146
7156 322
7157 326
7158 167
7159 200
7160 89
7161 353
7162 251
7163 309
7164 429
7165 315
7166 441
7167 379
7168 38
7169 322
7170 295
7171 206
7172 269
7173 108
7174 344
7175 440
7176 101
7177 334
7178 437
7179 402
7180 406
7181 312
7182 422
7183 358
7184 136
7185 121
7186 61
7187 306
7188 403
7189 114
7190 238
7191 203
7192 278
7193 192
7194 306
7195 283
7196 97
7197 123
7198 245
7199 461
7200 315
7201 381
7202 101
7203 46
7204 72
7205 137
7206 385
7207 403
7208 55
7209 296
7210 381
7211 8
7212 13
7213 434
7214 234
7215 245
7216 430
7217 195
7218 69
7219 385
7220 295
7221 390
7222 181
7223 242
7224 342
7225 98
7226 259
7227 81
7228 108
7229 245
7230 203
7231 334
7232 357
7233 76
7234 256
7235 207
7236 452
7237 360
7238 259
7239 389
7240 259
7241 434
7242 228
7243 42
7244 366
7245 373
7246 81
7247 345
7248 424
7249 397
7250 76
7251 48
7252 109
7253 430
7254 128
7255 56
7256 315
7257 171
7258 234
7259 65
7260 34
7261 334
7262 445
7263 286
7264 90
7265 163
7266 276
7267 339
7268 75
7269 146
7270 383
7271 235
7272 36
7273 248
7274 47
7275 431
7276 426
7277 303
7278 229
7279 403
7280 339
7281 422
7282 151
7283 201
7284 353
7285 196
7286 360
7287 121
7288 273
7289 123
7290 342
7291 306
7292 271
7293 106
7294 145
7295 0
7296 435
7297 458
7298 226
7299 162
7300 259
7301 151
7302 2
7303 331
7304 218
7305 164
7306 205
7307 441
7308 268
7309 121
7310 379
7311 78
7312 177
7313 372
7314 173
7315 0
7316 373
7317 185
7318 408
7319 395
7320 203
7321 422
7322 136
7323 120
7324 432
7325 51
7326 164
7327 218
7328 48
7329 364
7330 93
7331 465
7332 47
7333 434
7334 255
7335 71
7336 0
7337 118
7338 83
7339 395
7340 147
7341 225
7342 252
7343 315
7344 123
7345 295
7346 438
7347 238
7348 383
7349 118
7350 358
7351 364
7352 78
7353 167
7354 197
7355 304
7356 334
7357 203
7358 264
7359 286
7360 290
7361 286
7362 358
7363 468
7364 446
7365 108
7366 184
7367 295
7368 441
7369 167
7370 173
7371 218
7372 322
7373 84
7374 55
7375 135
7376 393
7377 120
7378 2
7379 121
7380 438
7381 381
7382 123
7383 315
7384 438
7385 374
7386 173
7387 225
7388 296
7389 251
7390 81
7391 295
7392 249
7393 89
7394 89
7395 200
7396 385
7397 251
7398 435
7399 319
7400 235
7401 295
7402 101
7403 81
7404 166
7405 236
7406 377
7407 218
7408 372
7409 81
7410 21
7411 402
7412 342
7413 226
7414 438
7415 140
7416 403
7417 101
7418 81
7419 154
7420 387
7421 312
7422 18
7423 196
7424 416
7425 264
7426 306
7427 49
7428 230
7429 181
7430 328
7431 132
7432 371
7433 365
7434 169
7435 338
7436 409
7437 410
7438 89
7439 402
7440 316
7441 303
7442 40
7443 228
7444 156
7445 255
7446 281
7447 268
7448 226
7449 61
7450 197
7451 173
7452 366
7453 402
7454 273
7455 281
7456 30
7457 443
7458 214
7459 363
7460 10
7461 148
7462 194
7463 238
7464 275
7465 218
7466 51
7467 102
7468 163
7469 63
7470 81
7471 194
7472 162
7473 218
7474 193
7475 219
7476 54
7477 426
7478 437
7479 287
7480 292
7481 138
7482 85
7483 383
7484 68
7485 40
7486 156
7487 27
7488 123
7489 408
7490 288
7491 0
7492 90
7493 256
7494 209
7495 71
7496 249
7497 191
7498 225
7499 364
7500 136
7501 350
7502 81
7503 306
7504 238
7505 340
7506 47
7507 350
7508 367
7509 364
7510 28
7511 396
7512 259
7513 381
7514 273
7515 251
7516 357
7517 374
7518 108
7519 408
7520 61
7521 312
7522 441
7523 340
7524 123
7525 310
7526 310
7527 427
7528 55
7529 434
7530 202
7531 247
7532 167
7533 363
7534 204
7535 372
7536 255
7537 101
7538 30
7539 35
7540 198
7541 137
7542 268
7543 383
7544 379
7545 373
7546 121
7547 56
7548 383
7549 72
7550 230
7551 218
7552 315
7553 259
7554 205
7555 185
7556 265
7557 271
7558 80
7559 243
7560 74
7561 135
7562 352
7563 315
7564 106
7565 396
7566 389
7567 306
7568 139
7569 317
7570 205
7571 233
7572 402
7573 89
7574 181
7575 38
7576 278
7577 395
7578 441
7579 153
7580 61
7581 460
7582 218
7583 71
7584 78
7585 366
7586 358
7587 381
7588 387
7589 268
7590 385
7591 200
7592 287
7593 98
7594 173
7595 109
7596 241
7597 144
7598 415
7599 135
7600 306
7601 50
7602 422
7603 175
7604 303
7605 35
7606 301
7607 219
7608 258
7609 281
7610 192
7611 315
7612 469
7613 380
7614 238
7615 387
7616 325
7617 315
7618 216
7619 211
7620 128
7621 128
7622 192
7623 175
7624 122
7625 312
7626 322
7627 81
7628 281
7629 178
7630 163
7631 244
7632 200
7633 150
7634 226
7635 327
7636 396
7637 98
7638 86
7639 278
7640 120
7641 322
7642 202
7643 415
7644 426
7645 235
7646 106
7647 372
7648 123
7649 195
7650 379
7651 147
7652 366
7653 71
7654 426
7655 464
7656 438
7657 316
7658 49
7659 167
7660 196
7661 251
7662 201
7663 441
7664 71
7665 266
7666 494
7667 281
7668 153
7669 216
7670 95
7671 310
7672 315
7673 402
7674 366
7675 378
7676 150
7677 348
7678 330
7679 434
7680 10
7681 366
7682 47
7683 244
7684 181
7685 315
7686 175
7687 177
7688 342
7689 484
7690 9
7691 374
7692 321
7693 171
7694 312
7695 423
7696 81
7697 89
7698 268
7699 327
7700 151
7701 25
7702 111
7703 442
7704 250
7705 415
7706 352
7707 136
7708 50
7709 150
7710 90
7711 337
7712 120
7713 411
7714 306
7715 409
7716 47
7717 381
7718 24
7719 63
7720 67
7721 345
7722 373
7723 273
7724 322
7725 441
7726 314
7727 269
7728 329
7729 205
7730 32
7731 17
7732 331
7733 345
7734 297
7735 173
7736 395
7737 50
7738 282
7739 166
7740 77
7741 137
7742 106
7743 202
7744 69
7745 261
7746 67
7747 465
7748 205
7749 164
7750 322
7751 453
7752 123
7753 232
7754 81
7755 225
7756 273
7757 370
7758 195
7759 290
7760 192
7761 406
7762 497
7763 454
7764 364
7765 449
7766 160
7767 165
7768 72
7769 71
7770 198
7771 211
7772 362
7773 338
7774 306
7775 71
7776 268
7777 316
7778 178
7779 127
7780 94
7781 374
7782 148
7783 211
7784 312
7785 201
7786 344
7787 448
7788 252
7789 352
7790 112
7791 199
7792 128
7793 316
7794 152
7795 432
7796 427
7797 261
7798 30
7799 151
7800 433
7801 310
7802 59
7803 225
7804 159
7805 435
7806 49
7807 328
7808 402
7809 66
7810 432
7811 357
7812 30
7813 422
7814 167
7815 441
7816 408
7817 71
7818 364
7819 209
7820 157
7821 123
7822 71
7823 2
7824 332
7825 315
7826 322
7827 73
7828 49
7829 286
7830 178
7831 406
7832 66
7833 238
7834 128
7835 402
7836 197
7837 358
7838 73
7839 100
7840 363
7841 363
7842 244
7843 232
7844 260
7845 80
7846 284
7847 139
7848 148
7849 468
7850 268
7851 107
7852 218
7853 136
7854 234
7855 180
7856 437
7857 47
7858 402
7859 219
7860 318
7861 422
7862 123
7863 135
7864 30
7865 430
7866 97
7867 112
7868 457
7869 89
7870 357
7871 456
7872 3
7873 152
7874 73
7875 73
7876 310
7877 34
7878 310
7879 97
7880 174
7881 410
7882 148
7883 128
7884 40
7885 128
7886 494
7887 377
7888 259
7889 383
7890 148
7891 486
7892 418
7893 173
7894 459
7895 19
7896 50
7897 437
7898 406
7899 366
7900 142
7901 268
7902 18
7903 72
7904 63
7905 422
7906 91
7907 230
7908 13
7909 97
7910 381
7911 389
7912 447
7913 130
7914 34
7915 13
7916 64
7917 306
7918 188
7919 240
7920 175
7921 362
7922 182
7923 234
7924 288
7925 373
7926 295
7927 81
7928 48
7929 493
7930 13
7931 0
7932 3
7933 395
7934 128
7935 442
7936 112
7937 50
7938 260
7939 502
7940 337
7941 50
7942 0
7943 503
7944 2
7945 368
7946 41
7947 182
7948 201
7949 81
7950 67
7951 175
7952 2
7953 302
7954 212
7955 402
7956 259
7957 175
7958 313
7959 315
7960 225
7961 395
7962 251
7963 73
7964 8
7965 381
7966 81
7967 53
7968 345
7969 504
7970 137
7971 387
7972 8
7973 101
7974 81
7975 334
7976 46
7977 232
7978 268
7979 72
7980 91
7981 303
7982 215
7983 81
7984 278
7985 342
7986 473
7987 395
7988 352
7989 72
7990 90
7991 97
7992 175
7993 247
7994 34
7995 0
7996 322
7997 312
7998 81
7999 147
8000 257
8001 67
8002 338
8003 73
8004 19
8005 389
8006 106
8007 327
8008 133
8009 487
8010 123
8011 0
8012 182
8013 71
8014 58
8015 356
8016 303
8017 435
8018 80
8019 111
8020 274
8021 371
8022 323
8023 106
8024 268
8025 295
8026 50
8027 288
8028 98
8029 315
8030 342
8031 182
8032 230
8033 140
8034 304
8035 22
8036 80
8037 90
8038 89
8039 384
8040 132
8041 422
8042 214
8043 137
8044 228
8045 108
8046 483
8047 13
8048 80
8049 247
8050 247
8051 80
8052 334
8053 90
8054 422
8055 435
8056 77
8057 312
8058 123
8059 67
8060 309
8061 249
8062 218
8063 415
8064 345
8065 468
8066 199
8067 150
8068 239
8069 366
8070 166
8071 285
8072 35
8073 91
8074 167
8075 38
8076 259
8077 173
8078 431
8079 135
8080 435
8081 81
8082 19
8083 303
8084 409
8085 19
8086 122
8087 268
8088 71
8089 344
8090 195
8091 314
8092 364
8093 13
8094 331
8095 422
8096 326
8097 118
8098 169
8099 51
8100 418
8101 402
8102 75
8103 478
8104 366
8105 303
8106 409
8107 71
8108 374
8109 113
8110 288
8111 89
8112 398
8113 322
8114 177
8115 91
8116 334
8117 322
8118 61
8119 437
8120 193
8121 334
8122 259
8123 90
8124 234
8125 203
8126 308
8127 185
8128 122
8129 402
8130 108
8131 196
8132 28
8133 301
8134 147
8135 295
8136 308
8137 402
8138 107
8139 3
8140 309
8141 202
8142 65
8143 268
8144 382
8145 142
8146 251
8147 354
8148 107
8149 345
8150 49
8151 460
8152 159
8153 135
8154 364
8155 313
8156 123
8157 67
8158 97
8159 419
8160 107
8161 73
8162 82
8163 269
8164 80
8165 75
8166 345
8167 437
8168 285
8169 238
8170 397
8171 306
8172 97
8173 265
8174 73
8175 165
8176 318
8177 73
8178 234
8179 109
8180 86
8181 469
8182 106
8183 153
8184 225
8185 72
8186 376
8187 364
8188 130
8189 175
8190 389
8191 441
8192 135
8193 68
8194 146
8195 19
8196 422
8197 337
8198 161
8199 258
8200 165
8201 448
8202 350
8203 406
8204 305
8205 90
8206 310
8207 397
8208 312
8209 3
8210 342
8211 106
8212 189
8213 168
8214 266
8215 10
8216 426
8217 239
8218 304
8219 234
8220 292
8221 259
8222 195
8223 244
8224 169
8225 228
8226 408
8227 165
8228 357
8229 140
8230 334
8231 327
8232 196
8233 49
8234 401
8235 251
8236 233
8237 274
8238 26
8239 394
8240 358
8241 50
8242 73
8243 0
8244 352
8245 156
8246 408
8247 368
8248 419
8249 455
8250 190
8251 256
8252 449
8253 333
8254 311
8255 410
8256 366
8257 272
8258 498
8259 165
8260 346
8261 234
8262 220
8263 81
8264 217
8265 469
8266 13
8267 310
8268 215
8269 296
8270 153
8271 35
8272 334
8273 71
8274 67
8275 301
8276 77
8277 34
8278 19
8279 147
8280 50
8281 73
8282 26
8283 388
8284 125
8285 63
8286 342
8287 56
8288 420
8289 71
8290 83
8291 385
8292 252
8293 437
8294 421
8295 259
8296 30
8297 195
8298 226
8299 323
8300 430
8301 452
8302 434
8303 505
8304 25
8305 0
8306 334
8307 19
8308 230
8309 438
8310 409
8311 233
8312 215
8313 403
8314 385
8315 103
8316 100
8317 170
8318 77
8319 159
8320 219
8321 100
8322 435
8323 94
8324 303
8325 108
8326 506
8327 171
8328 276
8329 78
8330 134
8331 327
8332 364
8333 262
8334 384
8335 235
8336 50
8337 367
8338 181
8339 445
8340 106
8341 262
8342 80
8343 89
8344 38
8345 216
8346 229
8347 289
8348 160
8349 244
8350 95
8351 19
8352 67
8353 466
8354 458
8355 216
8356 348
8357 210
8358 114
8359 292
8360 204
8361 195
8362 152
8363 11
8364 80
8365 423
8366 2
8367 281
8368 334
8369 483
8370 441
8371 441
8372 97
8373 313
8374 55
8375 203
8376 304
8377 218
8378 464
8379 63
8380 256
8381 440
8382 437
8383 364
8384 21
8385 437
8386 89
8387 423
8388 24
8389 182
8390 72
8391 296
8392 247
8393 414
8394 122
8395 233
8396 327
8397 430
8398 327
8399 154
8400 327
8401 408
8402 152
8403 262
8404 338
8405 94
8406 402
8407 215
8408 82
8409 292
8410 196
8411 464
8412 215
8413 225
8414 169
8415 346
8416 107
8417 406
8418 168
8419 338
8420 249
8421 122
8422 429
8423 288
8424 245
8425 354
8426 193
8427 89
8428 458
8429 334
8430 169
8431 504
8432 437
8433 153
8434 461
8435 2
8436 465
8437 283
8438 26
8439 471
8440 426
8441 272
8442 363
8443 377
8444 334
8445 257
8446 464
8447 364
8448 426
8449 294
8450 48
8451 55
8452 229
8453 91
8454 106
8455 135
8456 312
8457 306
8458 72
8459 160
8460 26
8461 403
8462 373
8463 0
8464 247
8465 225
8466 406
8467 316
8468 106
8469 286
8470 200
8471 334
8472 361
8473 107
8474 138
8475 86
8476 316
8477 285
8478 290
8479 165
8480 416
8481 292
8482 448
8483 106
8484 168
8485 247
8486 364
8487 364
8488 406
8489 76
8490 11
8491 13
8492 85
8493 326
8494 303
8495 166
8496 326
8497 112
8498 166
8499 409
8500 228
8501 423
8502 437
8503 308
8504 107
8505 285
8506 372
8507 163
8508 137
8509 290
8510 42
8511 28
8512 3
8513 289
8514 458
8515 313
8516 37
8517 64
8518 342
8519 455
8520 303
8521 195
8522 72
8523 351
8524 259
8525 287
8526 497
8527 107
8528 364
8529 285
8530 32
8531 251
8532 106
8533 366
8534 117
8535 331
8536 352
8537 274
8538 235
8539 281
8540 112
8541 198
8542 292
8543 34
8544 260
8545 72
8546 40
8547 250
8548 206
8549 13
8550 166
8551 124
8552 132
8553 317
8554 30
8555 166
8556 145
8557 372
8558 312
8559 41
8560 28
8561 166
8562 387
8563 182
8564 268
8565 11
8566 262
8567 95
8568 114
8569 162
8570 494
8571 249
8572 278
8573 275
8574 22
8575 326
8576 430
8577 326
8578 364
8579 165
8580 17
8581 202
8582 318
8583 309
8584 14
8585 372
8586 215
8587 148
8588 183
8589 7
8590 284
8591 125
8592 240
8593 368
8594 290
8595 435
8596 106
8597 406
8598 292
8599 41
8600 334
8601 290
8602 63
8603 175
8604 218
8605 268
8606 38
8607 112
8608 27
8609 118
8610 322
8611 59
8612 166
8613 308
8614 73
8615 422
8616 406
8617 367
8618 422
8619 451
8620 40
8621 286
8622 358
8623 216
8624 231
8625 74
8626 375
8627 334
8628 316
8629 386
8630 112
8631 321
8632 423
8633 441
8634 358
8635 238
8636 306
8637 403
8638 97
8639 37
8640 124
8641 371
8642 50
8643 198
8644 13
8645 121
8646 78
8647 256
8648 218
8649 226
8650 216
8651 304
8652 219
8653 164
8654 408
8655 55
8656 10
8657 278
8658 219
8659 40
8660 92
8661 374
8662 408
8663 231
8664 95
8665 315
8666 140
8667 411
8668 192
8669 448
8670 362
8671 500
8672 285
8673 235
8674 496
8675 423
8676 41
8677 158
8678 40
8679 41
8680 13
8681 110
8682 306
8683 366
8684 435
8685 55
8686 410
8687 190
8688 268
8689 406
8690 67
8691 290
8692 136
8693 182
8694 244
8695 371
8696 135
8697 137
8698 339
8699 101
8700 215
8701 303
8702 415
8703 63
8704 318
8705 441
8706 151
8707 108
8708 162
8709 252
8710 327
8711 327
8712 215
8713 31
8714 59
8715 302
8716 238
8717 27
8718 148
8719 408
8720 149
8721 107
8722 197
8723 210
8724 274
8725 159
8726 306
8727 162
8728 162
8729 397
8730 374
8731 22
8732 32
8733 182
8734 257
8735 385
8736 247
8737 244
8738 124
8739 347
8740 287
8741 34
8742 306
8743 40
8744 19
8745 20
8746 292
8747 400
8748 467
8749 441
8750 303
8751 30
8752 92
8753 163
8754 304
8755 309
8756 120
8757 334
8758 432
8759 192
8760 115
8761 466
8762 427
8763 51
8764 260
8765 459
8766 153
8767 274
8768 331
8769 51
8770 34
8771 285
8772 106
8773 337
8774 500
8775 322
8776 381
8777 137
8778 334
8779 371
8780 374
8781 302
8782 98
8783 292
8784 30
8785 322
8786 478
8787 41
8788 206
8789 234
8790 77
8791 230
8792 84
8793 319
8794 51
8795 3
8796 17
8797 143
8798 376
8799 160
8800 226
8801 104
8802 293
8803 322
8804 304
8805 152
8806 249
8807 162
8808 240
8809 230
8810 358
8811 153
8812 309
8813 309
8814 232
8815 142
8816 11
8817 196
8818 407
8819 303
8820 19
8821 49
8822 278
8823 259
8824 257
8825 50
8826 0
8827 415
8828 162
8829 359
8830 376
8831 32
8832 402
8833 359
8834 192
8835 179
8836 286
8837 479
8838 437
8839 41
8840 191
8841 107
8842 196
8843 171
8844 57
8845 83
8846 238
8847 366
8848 232
8849 126
8850 196
8851 451
8852 338
8853 339
8854 133
8855 49
8856 205
8857 307
8858 458
8859 303
8860 84
8861 310
8862 269
8863 229
8864 321
8865 419
8866 323
8867 189
8868 80
8869 182
8870 406
8871 238
8872 194
8873 3
8874 6
8875 49
8876 303
8877 287
8878 437
8879 342
8880 456
8881 403
8882 25
8883 295
8884 9
8885 220
8886 173
8887 50
8888 90
8889 341
8890 167
8891 19
8892 306
8893 312
8894 62
8895 49
8896 49
8897 72
8898 353
8899 141
8900 317
8901 34
8902 125
8903 56
8904 78
8905 450
8906 190
8907 91
8908 44
8909 162
8910 38
8911 419
8912 188
8913 290
8914 306
8915 406
8916 137
8917 77
8918 445
8919 84
8920 317
8921 374
8922 352
8923 422
8924 234
8925 11
8926 417
8927 40
8928 322
8929 121
8930 196
8931 272
8932 120
8933 429
8934 34
8935 14
8936 364
8937 158
8938 380
8939 64
8940 435
8941 66
8942 385
8943 72
8944 208
8945 385
8946 303
8947 230
8948 372
8949 368
8950 291
8951 322
8952 34
8953 167
8954 84
8955 153
8956 410
8957 234
8958 196
8959 51
8960 152
8961 434
8962 175
8963 304
8964 355
8965 479
8966 367
8967 91
8968 88
8969 38
8970 438
8971 374
8972 163
8973 138
8974 325
8975 100
8976 90
8977 34
8978 137
8979 334
8980 53
8981 446
8982 437
8983 34
8984 398
8985 310
8986 168
8987 196
8988 49
8989 332
8990 231
8991 47
8992 441
8993 502
8994 123
8995 268
8996 383
8997 358
8998 252
8999 34
9000 192
9001 238
9002 268
9003 304
9004 86
9005 54
9006 226
9007 383
9008 151
9009 287
9010 358
9011 79
9012 373
9013 338
9014 124
9015 128
9016 34
9017 84
9018 403
9019 374
9020 55
9021 268
9022 379
9023 49
9024 408
9025 390
9026 216
9027 499
9028 381
9029 345
9030 395
9031 322
9032 230
9033 49
9034 303
9035 51
9036 49
9037 437
9038 377
9039 111
9040 49
9041 201
9042 268
9043 377
9044 434
9045 166
9046 340
9047 312
9048 108
9049 121
9050 256
9051 51
9052 239
9053 51
9054 402
9055 303
9056 273
9057 2
9058 175
9059 383
9060 275
9061 423
9062 147
9063 89
9064 441
9065 0
9066 47
9067 231
9068 89
9069 22
9070 488
9071 106
9072 13
9073 334
9074 51
9075 103
9076 138
9077 168
9078 382
9079 353
9080 203
9081 122
9082 306
9083 192
9084 256
9085 312
9086 88
9087 161
9088 230
9089 231
9090 170
9091 415
9092 259
9093 38
9094 22
9095 278
9096 359
9097 373
9098 362
9099 270
9100 13
9101 21
9102 182
9103 334
9104 166
9105 375
9106 182
9107 295
9108 70
9109 332
9110 216
9111 253
9112 64
9113 402
9114 69
9115 454
9116 342
9117 98
9118 209
9119 373
9120 497
9121 494
9122 312
9123 115
9124 203
9125 457
9126 162
9127 133
9128 146
9129 372
9130 49
9131 124
9132 220
9133 164
9134 182
9135 161
9136 452
9137 146
9138 107
9139 73
9140 181
9141 278
9142 372
9143 329
9144 167
9145 402
9146 315
9147 64
9148 366
9149 82
9150 203
9151 230
9152 90
9153 97
9154 171
9155 306
9156 165
9157 129
9158 430
9159 497
9160 403
9161 219
9162 306
9163 247
9164 2
9165 193
9166 55
9167 345
9168 182
9169 386
9170 205
9171 49
9172 437
9173 147
9174 378
9175 80
9176 3
9177 234
9178 128
9179 109
9180 140
9181 440
9182 108
9183 295
9184 124
9185 89
9186 339
9187 268
9188 434
9189 303
9190 387
9191 106
9192 214
9193 342
9194 140
9195 159
9196 142
9197 55
9198 272
9199 423
9200 440
9201 136
9202 296
9203 90
9204 84
9205 292
9206 273
9207 441
9208 329
9209 28
9210 126
9211 90
9212 434
9213 322
9214 150
9215 342
9216 128
9217 441
9218 237
9219 163
9220 363
9221 153
9222 66
9223 87
9224 175
9225 410
9226 403
9227 309
9228 90
9229 118
9230 159
9231 204
9232 145
9233 3
9234 332
9235 154
9236 34
9237 47
9238 315
9239 357
9240 409
9241 251
9242 205
9243 106
9244 26
9245 243
9246 283
9247 401
9248 45
9249 231
9250 318
9251 19
9252 422
9253 300
9254 249
9255 121
9256 306
9257 67
9258 2
9259 387
9260 322
9261 308
9262 304
9263 345
9264 221
9265 249
9266 68
9267 106
9268 171
9269 50
9270 345
9271 196
9272 61
9273 69
9274 34
9275 181
9276 137
9277 307
9278 135
9279 238
9280 205
9281 89
9282 385
9283 106
9284 305
9285 200
9286 154
9287 111
9288 123
9289 360
9290 65
9291 306
9292 507
9293 388
9294 207
9295 231
9296 414
9297 428
9298 107
9299 381
9300 205
9301 313
9302 71
9303 153
9304 137
9305 293
9306 146
9307 146
9308 61
9309 76
9310 157
9311 67
9312 389
9313 193
9314 465
9315 175
9316 84
9317 192
9318 106
9319 313
9320 435
9321 218
9322 224
9323 121
9324 81
9325 0
9326 255
9327 232
9328 290
9329 128
9330 56
9331 175
9332 69
9333 134
9334 34
9335 230
9336 430
9337 156
9338 67
9339 396
9340 128
9341 151
9342 364
9343 276
9344 366
9345 458
9346 295
9347 334
9348 448
9349 47
9350 268
9351 173
9352 245
9353 225
9354 167
9355 84
9356 123
9357 138
9358 200
9359 244
9360 196
9361 403
9362 389
9363 306
9364 317
9365 345
9366 353
9367 352
9368 121
9369 244
9370 381
9371 322
9372 98
9373 61
9374 240
9375 251
9376 379
9377 134
9378 89
9379 167
9380 30
9381 345
9382 230
9383 441
9384 47
9385 312
9386 163
9387 375
9388 234
9389 444
9390 108
9391 0
9392 285
9393 383
9394 387
9395 352
9396 378
9397 189
9398 247
9399 197
9400 152
9401 90
9402 252
9403 358
9404 218
9405 309
9406 27
9407 345
9408 200
9409 185
9410 290
9411 0
9412 458
9413 434
9414 383
9415 364
9416 342
9417 251
9418 304
9419 134
9420 276
9421 334
9422 405
9423 374
9424 132
9425 358
9426 262
9427 105
9428 167
9429 358
9430 128
9431 251
9432 435
9433 55
9434 374
9435 76
9436 22
9437 34
9438 100
9439 105
9440 135
9441 461
9442 458
9443 124
9444 22
9445 315
9446 176
9447 153
9448 481
9449 196
9450 259
9451 62
9452 74
9453 356
9454 281
9455 284
9456 285
9457 295
9458 214
9459 287
9460 0
9461 82
9462 171
9463 297
9464 334
9465 304
9466 146
9467 91
9468 251
9469 387
9470 51
9471 108
9472 281
9473 167
9474 200
9475 146
9476 226
9477 281
9478 101
9479 78
9480 47
9481 438
9482 61
9483 345
9484 435
9485 90
9486 334
9487 167
9488 32
9489 182
9490 109
9491 342
9492 322
9493 303
9494 300
9495 352
9496 364
9497 387
9498 315
9499 63
9500 178
9501 282
9502 128
9503 49
9504 106
9505 93
9506 169
9507 81
9508 304
9509 123
9510 90
9511 101
9512 402
9513 90
9514 176
9515 373
9516 1
9517 86
9518 41
9519 161
9520 411
9521 464
9522 121
9523 272
9524 193
9525 285
9526 426
9527 440
9528 281
9529 389
9530 334
9531 381
9532 145
9533 98
9534 218
9535 423
9536 163
9537 88
9538 167
9539 181
9540 303
9541 389
9542 381
9543 81
9544 34
9545 395
9546 189
9547 137
9548 342
9549 78
9550 185
9551 178
9552 61
9553 49
9554 440
9555 231
9556 203
9557 385
9558 71
9559 107
9560 24
9561 394
9562 85
9563 39
9564 196
9565 422
9566 281
9567 15
9568 450
9569 162
9570 225
9571 500
9572 16
9573 87
9574 146
9575 106
9576 178
9577 36
9578 356
9579 267
9580 441
9581 203
9582 41
9583 134
9584 322
9585 430
9586 483
9587 205
9588 437
9589 135
9590 312
9591 32
9592 268
9593 458
9594 422
9595 383
9596 434
9597 61
9598 77
9599 173
9600 30
9601 203
9602 121
9603 434
9604 322
9605 252
9606 345
9607 345
9608 224
9609 395
9610 399
9611 173
9612 281
9613 77
9614 203
9615 240
9616 268
9617 313
9618 133
9619 463
9620 19
9621 435
9622 10
9623 218
9624 148
9625 256
9626 508
9627 397
9628 253
9629 165
9630 181
9631 197
9632 334
9633 215
9634 434
9635 389
9636 365
9637 253
9638 285
9639 162
9640 426
9641 310
9642 387
9643 229
9644 441
9645 205
9646 75
9647 313
9648 168
9649 123
9650 103
9651 92
9652 218
9653 178
9654 200
9655 35
9656 196
9657 427
9658 206
9659 402
9660 34
9661 424
9662 273
9663 352
9664 179
9665 218
9666 310
9667 77
9668 61
9669 218
9670 225
9671 479
9672 259
9673 284
9674 47
9675 121
9676 247
9677 334
9678 34
9679 419
9680 169
9681 129
9682 350
9683 400
9684 366
9685 281
9686 389
9687 315
9688 314
9689 426
9690 204
9691 158
9692 91
9693 272
9694 343
9695 252
9696 252
9697 387
9698 139
9699 310
9700 82
9701 330
9702 427
9703 96
9704 196
9705 40
9706 339
9707 174
9708 201
9709 464
9710 139
9711 26
9712 268
9713 334
9714 32
9715 30
9716 193
9717 0
9718 42
9719 116
9720 98
9721 87
9722 308
9723 97
9724 240
9725 393
9726 434
9727 372
9728 362
9729 138
9730 81
9731 366
9732 238
9733 167
9734 201
9735 123
9736 123
9737 137
9738 165
9739 146
9740 433
9741 50
9742 142
9743 159
9744 236
9745 316
9746 89
9747 345
9748 383
9749 288
9750 441
9751 414
9752 112
9753 81
9754 218
9755 395
9756 334
9757 167
9758 101
9759 345
9760 110
9761 384
9762 285
9763 297
9764 313
9765 93
9766 167
9767 395
9768 364
9769 115
9770 128
9771 34
9772 350
9773 395
9774 84
9775 40
9776 379
9777 101
9778 30
9779 137
9780 183
9781 262
9782 26
9783 252
9784 63
9785 331
9786 233
9787 437
9788 34
9789 89
9790 310
9791 437
9792 51
9793 86
9794 381
9795 47
9796 350
9797 369
9798 101
9799 266
9800 276
9801 390
9802 123
9803 352
9804 269
9805 166
9806 345
9807 395
9808 28
9809 322
9810 303
9811 366
9812 257
9813 197
9814 81
9815 56
9816 32
9817 137
9818 135
9819 73
9820 443
9821 351
9822 206
9823 320
9824 345
9825 407
9826 236
9827 251
9828 108
9829 242
9830 162
9831 295
9832 335
9833 185
9834 342
9835 150
9836 306
9837 268
9838 381
9839 463
9840 90
9841 246
9842 285
9843 322
9844 34
9845 101
9846 358
9847 334
9848 317
9849 67
9850 497
9851 363
9852 366
9853 490
9854 94
9855 123
9856 34
9857 40
9858 355
9859 379
9860 89
9861 71
9862 334
9863 358
9864 188
9865 238
9866 135
9867 440
9868 218
9869 184
9870 90
9871 220
9872 172
9873 322
9874 222
9875 366
9876 156
9877 484
9878 234
9879 201
9880 13
9881 97
9882 126
9883 145
9884 234
9885 181
9886 394
9887 389
9888 30
9889 203
9890 47
9891 268
9892 218
9893 306
9894 408
9895 295
9896 323
9897 113
9898 13
9899 276
9900 50
9901 160
9902 477
9903 71
9904 97
9905 218
9906 353
9907 191
9908 495
9909 73
9910 175
9911 334
9912 457
9913 224
9914 0
9915 38
9916 164
9917 75
9918 268
9919 84
9920 434
9921 435
9922 165
9923 71
9924 123
9925 338
9926 422
9927 61
9928 86
9929 35
9930 240
9931 296
9932 322
9933 13
9934 101
9935 178
9936 244
9937 218
9938 103
9939 337
9940 162
9941 227
9942 203
9943 178
9944 27
9945 189
9946 287
9947 295
9948 408
9949 0
9950 15
9951 52
9952 402
9953 414
9954 498
9955 225
9956 105
9957 90
9958 181
9959 30
9960 80
9961 49
9962 435
9963 259
9964 190
9965 437
9966 408
9967 78
9968 34
9969 110
9970 67
9971 306
9972 268
9973 114
9974 414
9975 381
9976 159
9977 63
9978 232
9979 412
9980 410
9981 422
9982 296
9983 185
9984 259
9985 238
9986 142
9987 89
9988 374
9989 97
9990 34
9991 72
9992 32
9993 287
9994 121
9995 99
9996 481
9997 97
9998 130
9999 228
10000 379
10001 352
10002 202
10003 410
10004 342
10005 381
10006 138
10007 426
10008 228
10009 225
10010 202
10011 154
10012 146
10013 152
10014 334
10015 13
10016 51
10017 284
10018 414
10019 429
10020 364
10021 166
10022 288
10023 24
10024 401
10025 334
10026 455
10027 13
10028 244
10029 422
10030 238
10031 426
10032 122
10033 337
10034 303
10035 415
10036 181
10037 310
10038 265
10039 61
10040 37
10041 310
10042 244
10043 91
10044 19
10045 306
10046 238
10047 34
10048 137
10049 288
10050 148
10051 447
10052 178
10053 402
10054 71
10055 257
10056 207
10057 295
10058 142
10059 203
10060 218
10061 78
10062 49
10063 225
10064 364
10065 334
10066 30
10067 91
10068 15
10069 123
10070 306
10071 40
10072 410
10073 201
10074 441
10075 312
10076 162
10077 30
10078 385
10079 215
10080 274
10081 37
10082 73
10083 16
10084 91
10085 65
10086 296
10087 326
10088 201
10089 176
10090 195
10091 435
10092 326
10093 212
10094 61
10095 381
10096 306
10097 13
10098 47
10099 48
10100 249
10101 306
10102 178
10103 166
10104 30
10105 376
10106 135
10107 0
10108 394
10109 91
10110 137
10111 399
10112 106
10113 109
10114 3
10115 145
10116 352
10117 440
10118 80
10119 352
10120 108
10121 202
10122 426
10123 89
10124 288
10125 342
10126 91
10127 389
10128 71
10129 107
10130 303
10131 437
10132 251
10133 45
10134 158
10135 71
10136 288
10137 243
10138 303
10139 479
10140 225
10141 181
10142 205
10143 171
10144 303
10145 306
10146 240
10147 251
10148 184
10149 243
10150 334
10151 387
10152 437
10153 3
10154 182
10155 226
10156 72
10157 165
10158 232
10159 173
10160 285
10161 342
10162 312
10163 285
10164 154
10165 315
10166 339
10167 133
10168 181
10169 259
10170 19
10171 135
10172 49
10173 265
10174 301
10175 177
10176 218
10177 137
10178 394
10179 177
10180 389
10181 304
10182 14
10183 97
10184 75
10185 298
10186 292
10187 36
10188 109
10189 293
10190 310
10191 98
10192 182
10193 353
10194 220
10195 288
10196 291
10197 345
10198 376
10199 288
10200 283
10201 30
10202 226
10203 113
10204 181
10205 422
10206 322
10207 215
10208 50
10209 403
10210 161
10211 49
10212 154
10213 259
10214 147
10215 77
10216 334
10217 259
10218 390
10219 259
10220 110
10221 201
10222 167
10223 422
10224 319
10225 135
10226 193
10227 285
10228 437
10229 437
10230 173
10231 201
10232 422
10233 195
10234 240
10235 34
10236 185
10237 225
10238 232
10239 350
10240 352
10241 301
10242 327
10243 219
10244 142
10245 154
10246 219
10247 244
10248 184
10249 219
10250 231
10251 59
10252 182
10253 214
10254 306
10255 56
10256 372
10257 94
10258 422
10259 269
10260 329
10261 369
10262 322
10263 314
10264 408
10265 105
10266 408
10267 72
10268 256
10269 401
10270 167
10271 334
10272 331
10273 408
10274 169
10275 470
10276 285
10277 331
10278 53
10279 235
10280 146
10281 52
10282 407
10283 232
10284 124
10285 71
10286 403
10287 366
10288 61
10289 107
10290 181
10291 408
10292 249
10293 184
10294 309
10295 276
10296 379
10297 405
10298 215
10299 249
10300 162
10301 103
10302 180
10303 135
10304 13
10305 166
10306 507
10307 310
10308 235
10309 405
10310 307
10311 272
10312 153
10313 178
10314 212
10315 84
10316 76
10317 116
10318 107
10319 19
10320 84
10321 373
10322 286
10323 235
10324 394
10325 292
10326 438
10327 115
10328 443
10329 251
10330 315
10331 306
10332 167
10333 49
10334 330
10335 72
10336 200
10337 408
10338 317
10339 93
10340 445
10341 279
10342 235
10343 73
10344 310
10345 147
10346 11
10347 72
10348 220
10349 429
10350 334
10351 281
10352 30
10353 181
10354 94
10355 114
10356 321
10357 44
10358 167
10359 230
10360 435
10361 408
10362 196
10363 244
10364 142
10365 233
10366 319
10367 176
10368 215
10369 379
10370 202
10371 252
10372 228
10373 30
10374 327
10375 228
10376 292
10377 168
10378 308
10379 337
10380 334
10381 400
10382 232
10383 503
10384 97
10385 385
10386 108
10387 283
10388 32
10389 135
10390 56
10391 137
10392 173
10393 299
10394 332
10395 364
10396 140
10397 448
10398 153
10399 244
10400 3
10401 327
10402 366
10403 192
10404 124
10405 187
10406 153
10407 202
10408 225
10409 306
10410 153
10411 309
10412 204
10413 0
10414 153
10415 162
10416 438
10417 142
10418 301
10419 50
10420 303
10421 34
10422 234
10423 176
10424 414
10425 72
10426 306
10427 247
10428 380
10429 489
10430 252
10431 309
10432 34
10433 124
10434 167
10435 201
10436 438
10437 234
10438 89
10439 34
10440 178
10441 385
10442 0
10443 315
10444 244
10445 267
10446 434
10447 143
10448 55
10449 272
10450 305
10451 19
10452 355
10453 363
10454 403
10455 2
10456 192
10457 309
10458 385
10459 30
10460 121
10461 402
10462 19
10463 192
10464 2
10465 94
10466 381
10467 34
10468 389
10469 32
10470 9
10471 334
10472 262
10473 112
10474 13
10475 235
10476 334
10477 370
10478 287
10479 313
10480 244
10481 137
10482 306
10483 438
10484 21
10485 171
10486 178
10487 286
10488 319
10489 167
10490 468
10491 292
10492 150
10493 292
10494 105
10495 11
10496 160
10497 399
10498 437
10499 414
10500 334
10501 438
10502 208
10503 363
10504 18
10505 377
10506 234
10507 281
10508 435
10509 268
10510 327
10511 435
10512 23
10513 385
10514 68
10515 202
10516 334
10517 167
10518 272
10519 184
10520 358
10521 137
10522 167
10523 72
10524 318
10525 347
10526 334
10527 383
10528 160
10529 275
10530 334
10531 385
10532 50
10533 124
10534 169
10535 19
10536 327
10537 195
10538 430
10539 423
10540 422
10541 106
10542 85
10543 199
10544 235
10545 89
10546 372
10547 107
10548 303
10549 171
10550 286
10551 244
10552 310
10553 309
10554 89
10555 148
10556 322
10557 32
10558 319
10559 327
10560 38
10561 260
10562 216
10563 409
10564 137
10565 264
10566 68
10567 359
10568 133
10569 125
10570 316
10571 106
10572 48
10573 303
10574 252
10575 472
10576 197
10577 97
10578 306
10579 4
10580 304
10581 22
10582 462
10583 134
10584 148
10585 373
10586 34
10587 373
10588 274
10589 111
10590 501
10591 262
10592 137
10593 247
10594 168
10595 84
10596 26
10597 278
10598 288
10599 55
10600 166
10601 150
10602 437
10603 201
10604 203
10605 437
10606 204
10607 233
10608 239
10609 364
10610 322
10611 247
10612 85
10613 77
10614 282
10615 134
10616 2
10617 303
10618 137
10619 244
10620 233
10621 112
10622 312
10623 30
10624 94
10625 220
10626 166
10627 358
10628 249
10629 86
10630 312
10631 192
10632 280
10633 85
10634 3
10635 471
10636 412
10637 373
10638 388
10639 215
10640 174
10641 40
10642 215
10643 364
10644 122
10645 372
10646 152
10647 423
10648 494
10649 265
10650 89
10651 257
10652 150
10653 97
10654 162
10655 400
10656 288
10657 43
10658 312
10659 363
10660 496
10661 216
10662 435
10663 332
10664 166
10665 150
10666 268
10667 271
10668 157
10669 454
10670 264
10671 366
10672 462
10673 339
10674 219
10675 68
10676 259
10677 49
10678 290
10679 290
10680 34
10681 34
10682 410
10683 61
10684 385
10685 19
10686 72
10687 107
10688 459
10689 105
10690 85
10691 312
10692 89
10693 124
10694 197
10695 322
10696 95
10697 197
10698 403
10699 106
10700 78
10701 74
10702 163
10703 165
10704 268
10705 25
10706 152
10707 30
10708 334
10709 163
10710 339
10711 172
10712 65
10713 403
10714 90
10715 310
10716 326
10717 137
10718 235
10719 441
10720 468
10721 313
10722 422
10723 56
10724 339
10725 356
10726 343
10727 300
10728 97
10729 141
10730 334
10731 267
10732 177
10733 437
10734 95
10735 306
10736 239
10737 406
10738 465
10739 478
10740 24
10741 38
10742 137
10743 195
10744 306
10745 203
10746 153
10747 86
10748 202
10749 410
10750 21
10751 173
10752 317
10753 410
10754 36
10755 409
10756 317
10757 268
10758 344
10759 339
10760 435
10761 308
10762 345
10763 306
10764 71
10765 423
10766 89
10767 399
10768 91
10769 345
10770 358
10771 438
10772 502
10773 441
10774 502
10775 425
10776 403
10777 428
10778 112
10779 193
10780 58
10781 162
10782 284
10783 406
10784 337
10785 114
10786 50
10787 306
10788 84
10789 162
10790 196
10791 171
10792 78
10793 423
10794 247
10795 192
10796 256
10797 197
10798 423
10799 486
10800 403
10801 46
10802 200
10803 107
10804 105
10805 171
10806 206
10807 72
10808 403
10809 453
10810 377
10811 489
10812 406
10813 283
10814 358
10815 370
10816 269
10817 61
10818 152
10819 268
10820 339
10821 312
10822 66
10823 50
10824 98
10825 306
10826 153
10827 366
10828 273
10829 322
10830 288
10831 162
10832 13
10833 261
10834 72
10835 49
10836 49
10837 67
10838 104
10839 196
10840 215
10841 97
10842 139
10843 297
10844 151
10845 77
10846 167
10847 51
10848 142
10849 178
10850 246
10851 68
10852 312
10853 61
10854 289
10855 19
10856 137
10857 462
10858 153
10859 381
10860 362
10861 76
10862 124
10863 105
10864 322
10865 234
10866 278
10867 86
10868 162
10869 452
10870 205
10871 373
10872 90
10873 312
10874 201
10875 298
10876 151
10877 269
10878 202
10879 317
10880 342
10881 162
10882 358
10883 151
10884 196
10885 94
10886 121
10887 160
10888 328
10889 34
10890 195
10891 154
10892 171
10893 370
10894 254
10895 233
10896 484
10897 71
10898 88
10899 389
10900 153
10901 162
10902 196
10903 334
10904 304
10905 327
10906 469
10907 112
10908 380
10909 49
10910 55
10911 278
10912 322
10913 131
10914 11
10915 232
10916 345
10917 46
10918 107
10919 339
10920 494
10921 148
10922 207
10923 84
10924 59
10925 509
10926 220
10927 163
10928 222
10929 201
10930 312
10931 75
10932 425
10933 266
10934 401
10935 325
10936 175
10937 107
10938 244
10939 286
10940 374
10941 437
10942 381
10943 128
10944 96
10945 127
10946 446
10947 303
10948 395
10949 395
10950 184
10951 229
10952 345
10953 49
10954 205
10955 381
10956 208
10957 342
10958 456
10959 345
10960 63
10961 366
10962 503
10963 286
10964 71
10965 137
10966 49
10967 153
10968 175
10969 304
10970 345
10971 293
10972 304
10973 27
10974 81
10975 2
10976 268
10977 107
10978 271
10979 257
10980 176
10981 395
10982 278
10983 71
10984 247
10985 373
10986 75
10987 71
10988 437
10989 298
10990 303
10991 216
10992 292
10993 90
10994 361
10995 55
10996 334
10997 322
10998 3
10999 273
11000 38
11001 255
11002 143
11003 230
11004 262
11005 223
11006 292
11007 379
11008 244
11009 40
11010 247
11011 371
11012 95
11013 3
11014 285
11015 67
11016 13
11017 128
11018 339
11019 345
11020 121
11021 305
11022 322
11023 322
11024 338
11025 235
11026 167
11027 353
11028 375
11029 257
11030 358
11031 416
11032 131
11033 130
11034 121
11035 315
11036 123
11037 334
11038 306
11039 21
11040 225
11041 251
11042 395
11043 334
11044 195
11045 411
11046 342
11047 341
11048 178
11049 241
11050 146
11051 36
11052 80
11053 222
11054 196
11055 253
11056 48
11057 501
11058 207
11059 337
11060 422
11061 264
11062 71
11063 238
11064 121
11065 128
11066 295
11067 342
11068 315
11069 309
11070 153
11071 40
11072 71
11073 273
11074 121
11075 366
11076 461
11077 233
11078 310
11079 268
11080 102
11081 381
11082 364
11083 356
11084 259
11085 91
11086 244
11087 117
11088 85
11089 334
11090 244
11091 163
11092 22
11093 450
11094 153
11095 109
11096 385
11097 334
11098 381
11099 47
11100 128
11101 49
11102 182
11103 89
11104 410
11105 437
11106 339
11107 426
11108 373
11109 105
11110 268
11111 91
11112 440
11113 105
11114 424
11115 366
11116 108
11117 372
11118 263
11119 41
11120 259
11121 175
11122 379
11123 146
11124 123
11125 167
11126 437
11127 403
11128 231
11129 166
11130 89
11131 346
11132 437
11133 0
11134 366
11135 315
11136 115
11137 38
11138 342
11139 205
11140 121
11141 247
11142 416
11143 352
11144 146
11145 423
11146 71
11147 383
11148 356
11149 196
11150 48
11151 106
11152 334
11153 361
11154 122
11155 123
11156 381
11157 275
11158 81
11159 352
11160 33
11161 50
11162 112
11163 395
11164 220
11165 203
11166 13
11167 306
11168 187
11169 167
11170 251
11171 235
11172 162
11173 71
11174 89
11175 308
11176 358
11177 408
11178 345
11179 73
11180 496
11181 441
11182 80
11183 137
11184 16
11185 251
11186 141
11187 313
11188 335
11189 67
11190 263
11191 309
11192 366
11193 166
11194 247
11195 268
11196 84
11197 372
11198 108
11199 426
11200 335
11201 167
11202 395
11203 137
11204 247
11205 374
11206 259
11207 274
11208 67
11209 142
11210 383
11211 383
11212 231
11213 411
11214 470
11215 128
11216 379
11217 14
11218 106
11219 381
11220 230
11221 454
11222 21
11223 328
11224 337
11225 28
11226 89
11227 315
11228 342
11229 91
11230 47
11231 162
11232 437
11233 345
11234 352
11235 147
11236 361
11237 23
11238 220
11239 319
11240 456
11241 334
11242 373
11243 468
11244 397
11245 49
11246 89
11247 339
11248 101
11249 128
11250 312
11251 135
11252 389
11253 104
11254 195
11255 264
11256 34
11257 373
11258 0
11259 409
11260 353
11261 137
11262 383
11263 230
11264 59
11265 171
11266 146
11267 247
11268 420
11269 455
11270 358
11271 226
11272 220
11273 220
11274 205
11275 301
11276 108
11277 182
11278 247
11279 242
11280 245
11281 153
11282 342
11283 34
11284 388
11285 423
11286 34
11287 315
11288 356
11289 292
11290 350
11291 103
11292 166
11293 156
11294 389
11295 56
11296 402
11297 234
11298 480
11299 162
11300 218
11301 75
11302 218
11303 67
11304 175
11305 463
11306 389
11307 247
11308 123
11309 415
11310 50
11311 402
11312 225
11313 268
11314 356
11315 231
11316 175
11317 306
11318 14
11319 402
11320 342
11321 259
11322 331
11323 156
11324 154
11325 402
11326 372
11327 327
11328 312
11329 422
11330 364
11331 345
11332 83
11333 364
11334 288
11335 55
11336 238
11337 84
11338 422
11339 389
11340 374
11341 394
11342 295
11343 372
11344 357
11345 33
11346 200
11347 345
11348 309
11349 107
11350 108
11351 262
11352 242
11353 225
11354 158
11355 422
11356 123
11357 192
11358 261
11359 123
11360 370
11361 71
11362 252
11363 313
11364 98
11365 273
11366 49
11367 61
11368 435
11369 345
11370 389
11371 303
11372 249
11373 106
11374 358
11375 68
11376 441
11377 124
11378 268
11379 345
11380 107
11381 437
11382 106
11383 133
11384 395
11385 312
11386 402
11387 342
11388 345
11389 193
11390 102
11391 336
11392 423
11393 398
11394 225
11395 88
11396 94
11397 326
11398 203
11399 478
11400 414
11401 137
11402 230
11403 315
11404 366
11405 167
11406 345
11407 408
11408 422
11409 259
11410 123
11411 249
11412 106
11413 421
11414 84
11415 51
11416 167
11417 47
11418 408
11419 358
11420 259
11421 251
11422 106
11423 366
11424 120
11425 249
11426 205
11427 498
11428 358
11429 91
11430 444
11431 228
11432 273
11433 55
11434 303
11435 345
11436 196
11437 208
11438 140
11439 362
11440 232
11441 182
11442 334
11443 439
11444 175
11445 90
11446 102
11447 216
11448 245
11449 310
11450 167
11451 342
11452 218
11453 152
11454 259
11455 426
11456 220
11457 403
11458 218
11459 437
11460 452
11461 259
11462 101
11463 197
11464 208
11465 256
11466 437
11467 454
11468 322
11469 164
11470 379
11471 179
11472 61
11473 106
11474 364
11475 89
11476 437
11477 464
11478 78
11479 127
11480 230
11481 137
11482 285
11483 320
11484 370
11485 154
11486 207
11487 312
11488 76
11489 499
11490 193
11491 32
11492 315
11493 345
11494 220
11495 366
11496 402
11497 167
11498 216
11499 203
11500 181
11501 216
11502 185
11503 230
11504 383
11505 84
11506 235
11507 47
11508 70
11509 281
11510 205
11511 306
11512 342
11513 51
11514 270
11515 225
11516 286
11517 292
11518 47
11519 381
11520 286
11521 163
11522 225
11523 352
11524 167
11525 306
11526 203
11527 84
11528 27
11529 0
11530 464
11531 22
11532 288
11533 317
11534 81
11535 249
11536 387
11537 422
11538 250
11539 374
11540 348
11541 364
11542 175
11543 94
11544 311
11545 358
11546 402
11547 135
11548 364
11549 372
11550 135
11551 23
11552 189
11553 98
11554 288
11555 106
11556 107
11557 85
11558 40
11559 380
11560 286
11561 280
11562 70
11563 366
11564 89
11565 129
11566 128
11567 319
11568 184
11569 322
11570 458
11571 181
11572 352
11573 295
11574 389
11575 383
11576 78
11577 198
11578 422
11579 220
11580 432
11581 241
11582 86
11583 199
11584 502
11585 373
11586 243
11587 71
11588 110
11589 273
11590 233
11591 204
11592 122
11593 381
11594 315
11595 406
11596 129
11597 435
11598 261
11599 352
11600 56
11601 257
11602 196
11603 421
11604 251
11605 398
11606 303
11607 322
11608 202
11609 47
11610 443
11611 106
11612 345
11613 49
11614 507
11615 101
11616 259
11617 322
11618 389
11619 362
11620 178
11621 259
11622 437
11623 205
11624 402
11625 310
11626 288
11627 201
11628 238
11629 105
11630 316
11631 78
11632 399
11633 310
11634 143
11635 259
11636 120
11637 421
11638 292
11639 51
11640 137
11641 355
11642 215
11643 106
11644 101
11645 71
11646 435
11647 334
11648 216
11649 89
11650 183
11651 403
11652 357
11653 220
11654 73
11655 274
11656 244
11657 203
11658 56
11659 326
11660 258
11661 89
11662 220
11663 57
11664 402
11665 238
11666 50
11667 435
11668 373
11669 422
11670 89
11671 175
11672 260
11673 218
11674 108
11675 244
11676 73
11677 230
11678 47
11679 277
11680 90
11681 438
11682 240
11683 14
11684 0
11685 360
11686 296
11687 0
11688 287
11689 171
11690 268
11691 65
11692 77
11693 92
11694 112
11695 162
11696 327
11697 136
11698 150
11699 441
11700 17
11701 73
11702 31
11703 106
11704 123
11705 506
11706 0
11707 57
11708 312
11709 327
11710 121
11711 205
11712 119
11713 218
11714 251
11715 77
11716 486
11717 422
11718 446
11719 270
11720 342
11721 137
11722 310
11723 203
11724 59
11725 353
11726 450
11727 148
11728 322
11729 374
11730 203
11731 49
11732 316
11733 148
11734 60
11735 74
11736 156
11737 410
11738 47
11739 90
11740 130
11741 181
11742 146
11743 220
11744 10
11745 268
11746 288
11747 63
11748 128
11749 202
11750 345
11751 150
11752 435
11753 458
11754 25
11755 33
11756 114
11757 420
11758 44
11759 238
11760 314
11761 334
11762 105
11763 130
11764 135
11765 200
11766 345
11767 195
11768 288
11769 296
11770 59
11771 364
11772 395
11773 63
11774 82
11775 285
11776 49
11777 306
11778 373
11779 407
11780 135
11781 281
11782 446
11783 106
11784 259
11785 137
11786 123
11787 230
11788 339
11789 106
11790 406
11791 75
11792 244
11793 180
11794 310
11795 399
11796 357
11797 34
11798 411
11799 121
11800 273
11801 108
11802 241
11803 97
11804 0
11805 82
11806 399
11807 244
11808 435
11809 230
11810 26
11811 352
11812 40
11813 271
11814 435
11815 281
11816 73
11817 334
11818 41
11819 301
11820 86
11821 47
11822 314
11823 30
11824 441
11825 466
11826 322
11827 389
11828 475
11829 73
11830 234
11831 203
11832 394
11833 212
11834 244
11835 150
11836 87
11837 97
11838 383
11839 72
11840 98
11841 403
11842 165
11843 402
11844 303
11845 363
11846 226
11847 435
11848 173
11849 308
11850 314
11851 273
11852 154
11853 238
11854 175
11855 288
11856 38
11857 415
11858 290
11859 269
11860 90
11861 174
11862 326
11863 15
11864 282
11865 339
11866 334
11867 121
11868 181
11869 458
11870 110
11871 232
11872 220
11873 332
11874 137
11875 218
11876 268
11877 36
11878 287
11879 452
11880 366
11881 30
11882 297
11883 283
11884 372
11885 135
11886 57
11887 410
11888 334
11889 465
11890 137
11891 283
11892 389
11893 150
11894 32
11895 256
11896 202
11897 153
11898 430
11899 434
11900 301
11901 482
11902 240
11903 94
11904 81
11905 345
11906 251
11907 268
11908 121
11909 220
11910 23
11911 230
11912 282
11913 0
11914 372
11915 354
11916 287
11917 121
11918 225
11919 268
11920 128
11921 232
11922 422
11923 298
11924 148
11925 34
11926 32
11927 505
11928 228
11929 286
11930 345
11931 285
11932 28
11933 210
11934 312
11935 140
11936 259
11937 191
11938 201
11939 295
11940 203
11941 303
11942 435
11943 379
11944 165
11945 376
11946 196
11947 395
11948 244
11949 409
11950 71
11951 150
11952 137
11953 245
11954 101
11955 353
11956 451
11957 342
11958 327
11959 124
11960 210
11961 172
11962 106
11963 322
11964 175
11965 124
11966 26
11967 296
11968 38
11969 50
11970 98
11971 259
11972 50
11973 290
11974 342
11975 106
11976 435
11977 3
11978 0
11979 73
11980 132
11981 364
11982 47
11983 50
11984 178
11985 90
11986 83
11987 301
11988 251
11989 25
11990 312
11991 89
11992 281
11993 197
11994 173
11995 374
11996 406
11997 339
11998 446
11999 370
12000 322
12001 94
12002 440
12003 135
12004 195
12005 130
12006 109
12007 334
12008 34
12009 381
12010 441
12011 198
12012 63
12013 91
12014 410
12015 401
12016 0
12017 389
12018 441
12019 288
12020 334
12021 78
12022 106
12023 403
12024 32
12025 58
12026 80
12027 381
12028 403
12029 81
12030 288
12031 7
12032 2
12033 74
12034 366
12035 507
12036 224
12037 237
12038 34
12039 244
12040 34
12041 168
12042 90
12043 438
12044 97
12045 389
12046 181
12047 30
12048 232
12049 228
12050 363
12051 352
12052 234
12053 334
12054 67
12055 5
12056 123
12057 334
12058 383
12059 479
12060 97
12061 387
12062 345
12063 192
12064 34
12065 91
12066 73
12067 260
12068 63
12069 256
12070 34
12071 371
12072 89
12073 91
12074 415
12075 81
12076 154
12077 306
12078 0
12079 80
12080 0
12081 137
12082 71
12083 234
12084 353
12085 468
12086 322
12087 215
12088 345
12089 14
12090 81
12091 98
12092 201
12093 389
12094 230
12095 288
12096 435
12097 435
12098 202
12099 34
12100 318
12101 288
12102 441
12103 343
12104 423
12105 89
12106 50
12107 273
12108 387
12109 2
12110 437
12111 313
12112 233
12113 90
12114 28
12115 441
12116 20
12117 362
12118 322
12119 106
12120 504
12121 169
12122 358
12123 50
12124 199
12125 123
12126 474
12127 195
12128 285
12129 221
12130 179
12131 114
12132 422
12133 288
12134 47
12135 230
12136 13
12137 115
12138 121
12139 14
12140 42
12141 273
12142 105
12143 184
12144 155
12145 260
12146 402
12147 73
12148 123
12149 268
12150 301
12151 327
12152 110
12153 168
12154 262
12155 164
12156 309
12157 345
12158 281
12159 273
12160 2
12161 381
12162 167
12163 50
12164 298
12165 49
12166 123
12167 341
12168 77
12169 106
12170 207
12171 327
12172 147
12173 105
12174 21
12175 491
12176 315
12177 422
12178 178
12179 146
12180 229
12181 304
12182 94
12183 75
12184 178
12185 430
12186 483
12187 138
12188 304
12189 281
12190 364
12191 19
12192 332
12193 389
12194 167
12195 322
12196 342
