0 0
1 1
2 2
3 3
4 4
5 5
6 6
7 7
8 8
9 9
10 10
11 11
12 12
13 13
14 14
15 15
16 16
17 17
18 18
19 19
20 20
21 14
22 12
23 10
24 16
25 21
26 22
27 23
28 24
29 1
30 13
31 25
32 24
33 26
34 27
35 28
36 7
37 27
38 29
39 30
40 9
41 31
42 32
43 32
44 24
45 33
46 21
47 30
48 34
49 32
50 19
51 35
52 36
53 28
54 37
55 4
56 21
57 23
58 38
59 2
60 20
61 24
62 39
63 23
64 24
65 38
66 28
67 40
68 41
69 9
70 4
71 3
72 31
73 41
74 21
75 7
76 8
77 8
78 2
79 22
80 42
81 43
82 2
83 44
84 15
85 30
86 30
87 11
88 36
89 37
90 45
91 30
92 44
93 46
94 14
95 36
96 34
97 11
98 11
99 9
100 28
101 26
102 33
103 9
104 39
105 5
106 44
107 18
108 7
109 5
110 18
111 23
112 7
113 47
114 34
115 2
116 46
117 48
118 23
119 18
120 7
121 16
122 32
123 44
124 47
125 32
126 34
127 11
128 49
129 22
130 15
131 22
132 11
133 14
134 20
135 8
136 9
137 11
138 21
139 43
140 40
141 10
142 43
143 40
144 6
145 11
146 16
147 44
148 21
149 7
150 46
151 40
152 48
153 43
154 20
155 45
156 0
157 17
158 11
159 12
160 22
161 18
162 50
163 2
164 4
165 15
166 26
167 31
168 51
169 42
170 52
171 9
172 31
173 4
174 11
175 6
176 4
177 35
178 16
179 10
180 11
181 12
182 24
183 2
184 46
185 30
186 41
187 51
188 53
189 12
190 51
191 31
192 50
193 35
194 44
195 6
196 21
197 5
198 42
199 12
200 38
201 8
202 29
203 34
204 31
205 46
206 26
207 6
208 30
209 48
210 11
211 37
212 30
213 8
214 45
215 19
216 17
217 54
218 21
219 21
220 7
221 21
222 52
223 41
224 1
225 39
226 25
227 41
228 41
229 18
230 5
231 32
232 39
233 22
234 21
235 5
236 17
237 28
238 46
239 48
240 55
241 3
242 11
243 14
244 37
245 32
246 42
247 8
248 28
249 55
250 31
251 43
252 19
253 37
254 45
255 12
256 1
257 7
258 31
259 45
260 11
261 31
262 22
263 11
264 11
265 45
266 0
267 31
268 16
269 30
270 18
271 34
272 48
273 46
274 26
275 11
276 46
277 6
278 21
279 29
280 9
281 11
282 22
283 51
284 31
285 35
286 38
287 47
288 27
289 14
290 5
291 3
292 42
293 21
294 19
295 2
296 1
297 53
298 52
299 11
300 5
301 4
302 12
303 23
304 19
305 15
306 21
307 8
308 38
309 41
310 21
311 44
312 45
313 41
314 37
315 47
316 42
317 22
318 50
319 11
320 44
321 26
322 24
323 16
324 51
325 40
326 47
327 25
328 29
329 44
330 50
331 26
332 46
333 34
334 7
335 46
336 54
337 40
338 28
339 10
340 18
341 37
342 32
343 9
344 15
345 56
346 7
347 10
348 42
349 49
350 26
351 20
352 15
353 33
354 14
355 2
356 45
357 18
358 24
359 17
360 17
361 40
362 0
363 12
364 2
365 30
366 23
367 1
368 34
369 11
370 12
371 45
372 11
373 11
374 7
375 39
376 5
377 49
378 21
379 32
380 47
381 56
382 27
383 23
384 33
385 22
386 22
387 12
388 26
389 30
390 45
391 52
392 12
393 37
394 8
395 23
396 53
397 37
398 17
399 20
400 38
401 31
402 23
403 31
404 11
405 19
406 49
407 7
408 0
409 5
410 12
411 36
412 42
413 44
414 10
415 53
416 35
417 31
418 28
419 38
420 36
421 1
422 49
423 26
424 22
425 42
426 32
427 46
428 5
429 44
430 36
431 11
432 5
433 23
434 26
435 18
436 10
437 22
438 15
439 39
440 30
441 21
442 32
443 21
444 22
445 11
446 7
447 52
448 23
449 32
450 47
451 43
452 24
453 22
454 42
455 23
456 7
457 50
458 12
459 2
460 52
461 26
462 41
463 46
464 25
465 11
466 55
467 44
468 5
469 34
470 41
471 45
472 9
473 5
474 5
475 10
476 42
477 42
478 22
479 3
480 27
481 42
482 16
483 26
484 17
485 0
486 31
487 27
488 12
489 21
490 42
491 28
492 31
493 31
494 37
495 30
496 11
497 35
498 40
499 23
500 22
501 14
502 1
503 25
504 46
505 29
506 55
507 53
508 22
509 8
510 26
511 49
512 50
513 24
514 46
515 11
516 37
517 23
518 12
519 2
520 23
521 20
522 12
523 45
524 29
525 31
526 47
527 14
528 26
529 5
530 23
531 8
532 45
533 53
534 30
535 46
536 33
537 7
538 4
539 0
540 21
541 23
542 27
543 19
544 5
545 0
546 1
547 44
548 26
549 9
550 31
551 7
552 2
553 42
554 12
555 31
556 17
557 41
558 18
559 30
560 29
561 24
562 53
563 35
564 36
565 24
566 47
567 24
568 22
569 50
570 1
571 11
572 47
573 38
574 28
575 11
576 42
577 26
578 26
579 35
580 38
581 42
582 48
583 36
584 46
585 46
586 21
587 14
588 27
589 5
590 36
591 4
592 1
593 35
594 23
595 50
596 14
597 37
598 20
599 14
600 5
601 8
602 0
603 34
604 50
605 31
606 4
607 9
608 3
609 40
610 1
611 41
612 47
613 14
614 46
615 3
616 27
617 14
618 30
619 48
620 34
621 4
622 5
623 17
624 0
625 16
626 27
627 11
628 50
629 46
630 38
631 23
632 34
633 31
634 49
635 14
636 7
637 21
638 7
639 3
640 7
641 22
642 50
643 11
644 14
645 42
646 4
647 50
648 40
649 26
650 46
651 50
652 12
653 23
654 42
655 41
656 30
657 45
658 42
659 31
660 21
661 23
662 27
663 33
664 45
665 40
666 35
667 16
668 40
669 14
670 54
671 17
672 13
673 53
674 11
675 23
676 18
677 50
678 10
679 30
680 56
681 0
682 35
683 49
684 40
685 4
686 46
687 9
688 35
689 51
690 20
691 55
692 24
693 8
694 37
695 38
696 23
697 11
698 19
699 22
700 24
701 13
702 4
703 2
704 15
705 11
706 41
707 34
708 30
709 5
710 4
711 54
712 38
713 7
714 31
715 28
716 23
717 22
718 17
719 49
720 29
721 35
722 16
723 7
724 42
725 46
726 42
727 30
728 51
729 18
730 21
731 5
732 11
733 50
734 23
735 4
736 5
737 38
738 36
739 46
740 16
741 31
742 7
743 39
744 21
745 15
746 30
747 14
748 30
749 2
750 7
751 23
752 0
753 39
754 17
755 30
756 48
757 16
758 52
759 12
760 38
761 10
762 12
763 2
764 2
765 34
766 7
767 35
768 8
769 53
770 11
771 51
772 21
773 11
774 55
775 31
776 49
777 22
778 11
779 31
780 11
781 54
782 46
783 29
784 34
785 7
786 28
787 30
788 21
789 34
790 11
791 22
792 30
793 55
794 40
795 11
796 14
797 2
798 28
799 17
800 12
801 41
802 14
803 50
804 48
805 26
806 21
807 52
808 4
809 13
810 12
811 42
812 23
813 36
814 47
815 2
816 54
817 52
818 50
819 17
820 32
821 43
822 30
823 36
824 36
825 32
826 29
827 32
828 40
829 17
830 16
831 11
832 27
833 17
834 29
835 1
836 22
837 32
838 46
839 46
840 42
841 55
842 42
843 37
844 1
845 30
846 23
847 14
848 38
849 26
850 21
851 34
852 42
853 23
854 14
855 14
856 12
857 32
858 41
859 26
860 40
861 37
862 20
863 50
864 11
865 2
866 56
867 21
868 12
869 14
870 46
871 34
872 26
873 31
874 11
875 11
876 52
877 19
878 8
879 28
880 12
881 30
882 12
883 23
884 35
885 7
886 1
887 55
888 36
889 22
890 8
891 36
892 39
893 5
894 5
895 26
896 49
897 11
898 11
899 49
900 22
901 16
902 23
903 32
904 20
905 11
906 11
907 38
908 18
909 22
910 0
911 23
912 24
913 34
914 40
915 28
916 0
917 5
918 30
919 28
920 16
921 29
922 21
923 38
924 11
925 37
926 8
927 30
928 7
929 25
930 8
931 11
932 19
933 29
934 48
935 30
936 8
937 35
938 34
939 29
940 0
941 53
942 28
943 22
944 42
945 32
946 45
947 3
948 7
949 34
950 42
951 0
952 36
953 11
954 49
955 7
956 29
957 21
958 16
959 36
960 8
961 33
962 50
963 9
964 11
965 12
966 28
967 53
968 25
969 31
970 41
971 7
972 53
973 17
974 45
975 11
976 31
977 26
978 39
979 14
980 10
981 34
982 19
983 55
984 48
985 17
986 14
987 11
988 22
989 3
990 20
991 11
992 7
993 45
994 53
995 5
996 8
997 31
998 47
999 23
1000 5
1001 21
1002 48
1003 40
1004 44
1005 7
1006 5
1007 45
1008 16
1009 11
1010 39
1011 41
1012 23
1013 18
1014 44
1015 33
1016 35
1017 15
1018 7
1019 21
1020 2
1021 36
1022 2
1023 53
1024 4
1025 7
1026 28
1027 46
1028 38
1029 46
1030 48
1031 42
1032 23
1033 18
1034 31
1035 36
1036 25
1037 5
1038 7
1039 11
1040 46
1041 6
1042 46
1043 32
1044 21
1045 47
1046 50
1047 22
1048 38
1049 47
1050 14
1051 15
1052 5
1053 35
1054 14
1055 4
1056 26
1057 50
1058 20
1059 46
1060 11
1061 2
1062 19
1063 46
1064 51
1065 24
1066 6
1067 1
1068 27
1069 11
1070 37
1071 41
1072 42
1073 48
1074 7
1075 50
1076 10
1077 18
1078 38
1079 21
1080 49
1081 14
1082 23
1083 20
1084 28
1085 16
1086 5
1087 55
1088 22
1089 46
1090 19
1091 16
1092 19
1093 42
1094 16
1095 20
1096 48
1097 42
1098 11
1099 29
1100 9
1101 51
1102 11
1103 1
1104 26
1105 55
1106 40
1107 30
1108 44
1109 27
1110 23
1111 15
1112 4
1113 14
1114 21
1115 9
1116 27
1117 16
1118 33
1119 45
1120 46
1121 11
1122 4
1123 6
1124 7
1125 28
1126 35
1127 28
1128 36
1129 30
1130 29
1131 45
1132 21
1133 16
1134 30
1135 2
1136 9
1137 30
1138 11
1139 23
1140 14
1141 11
1142 56
1143 25
1144 16
1145 50
1146 23
1147 8
1148 12
1149 54
1150 36
1151 26
1152 36
1153 29
1154 4
1155 2
1156 7
1157 37
1158 32
1159 31
1160 8
1161 28
1162 41
1163 37
1164 5
1165 14
1166 38
1167 7
1168 50
1169 46
1170 49
1171 5
1172 21
1173 25
1174 51
1175 36
1176 28
1177 12
1178 37
1179 10
1180 8
1181 47
1182 7
1183 45
1184 18
1185 4
1186 10
1187 29
1188 18
1189 1
1190 26
1191 41
1192 52
1193 37
1194 45
1195 55
1196 53
1197 12
1198 31
1199 35
1200 17
1201 14
1202 24
1203 23
1204 40
1205 14
1206 36
1207 29
1208 17
1209 25
1210 8
1211 20
1212 38
1213 32
1214 12
1215 31
1216 42
1217 25
1218 9
1219 11
1220 35
1221 39
1222 48
1223 53
1224 10
1225 53
1226 30
1227 55
1228 5
1229 6
1230 40
1231 4
1232 16
1233 50
1234 1
1235 10
1236 54
1237 10
1238 40
1239 47
1240 14
1241 31
1242 13
1243 35
1244 1
1245 22
1246 11
1247 7
1248 20
1249 52
1250 8
1251 20
1252 36
1253 44
1254 50
1255 43
1256 28
1257 11
1258 52
1259 33
1260 11
1261 22
1262 18
1263 56
1264 36
1265 9
1266 0
1267 8
1268 47
1269 33
1270 14
1271 30
1272 53
1273 22
1274 31
1275 14
1276 11
1277 17
1278 47
1279 2
1280 11
1281 14
1282 39
1283 22
1284 28
1285 34
1286 39
1287 28
1288 43
1289 5
1290 11
1291 22
1292 29
1293 18
1294 32
1295 12
1296 31
1297 3
1298 52
1299 7
1300 30
1301 36
1302 23
1303 10
1304 18
1305 20
1306 12
1307 50
1308 35
1309 20
1310 3
1311 51
1312 24
1313 28
1314 30
1315 28
1316 23
1317 19
1318 0
1319 9
1320 30
1321 40
1322 37
1323 11
1324 33
1325 4
1326 15
1327 8
1328 9
1329 36
1330 17
1331 8
1332 12
1333 27
1334 13
1335 22
1336 40
1337 53
1338 23
1339 34
1340 40
1341 45
1342 44
1343 51
1344 5
1345 47
1346 5
1347 27
1348 29
1349 45
1350 21
1351 46
1352 17
1353 11
1354 5
1355 2
1356 29
1357 55
1358 4
1359 11
1360 30
1361 23
1362 32
1363 22
1364 6
1365 51
1366 23
1367 38
1368 26
1369 8
1370 23
1371 54
1372 46
1373 9
1374 38
1375 53
1376 55
1377 7
1378 29
1379 35
1380 1
1381 24
1382 26
1383 16
1384 4
1385 14
1386 9
1387 30
1388 0
1389 5
1390 2
1391 0
1392 11
1393 31
1394 34
1395 46
1396 20
1397 39
1398 56
1399 47
1400 53
1401 17
1402 16
1403 38
1404 35
1405 34
1406 28
1407 42
1408 41
1409 5
1410 51
1411 20
1412 29
1413 42
1414 15
1415 12
1416 4
1417 21
1418 40
1419 28
1420 25
1421 20
1422 40
1423 11
1424 17
1425 5
1426 2
1427 39
1428 22
1429 26
1430 30
1431 35
1432 46
1433 50
1434 22
1435 23
1436 50
1437 45
1438 10
1439 22
1440 18
1441 50
1442 14
1443 39
1444 4
1445 7
1446 23
1447 45
1448 14
1449 9
1450 43
1451 32
1452 46
1453 22
1454 1
1455 11
1456 13
1457 8
1458 46
1459 23
1460 8
1461 1
1462 30
1463 21
1464 28
1465 15
1466 3
1467 31
1468 4
1469 55
1470 11
1471 48
1472 55
1473 31
1474 34
1475 25
1476 31
1477 3
1478 35
1479 54
1480 50
1481 22
1482 16
1483 11
1484 17
1485 44
1486 21
1487 38
1488 34
1489 50
1490 14
1491 11
1492 40
1493 38
1494 53
1495 11
1496 11
1497 7
1498 54
1499 43
1500 45
1501 11
1502 43
1503 23
1504 3
1505 11
1506 21
1507 39
1508 6
1509 42
1510 37
1511 48
1512 33
1513 31
1514 7
1515 24
1516 8
1517 7
1518 47
1519 8
1520 52
1521 21
1522 22
1523 40
1524 43
1525 53
1526 12
1527 1
1528 2
1529 44
1530 47
1531 43
1532 10
1533 54
1534 55
1535 11
1536 20
1537 34
1538 48
1539 40
1540 47
1541 24
1542 50
1543 11
1544 27
1545 23
1546 46
1547 14
1548 8
1549 19
1550 28
1551 17
1552 8
1553 16
1554 23
1555 38
1556 11
1557 12
1558 36
1559 50
1560 11
1561 5
1562 12
1563 22
1564 10
1565 16
1566 34
1567 16
1568 4
1569 53
1570 30
1571 26
1572 29
1573 17
1574 50
1575 45
1576 16
1577 4
1578 46
1579 14
1580 14
1581 30
1582 44
1583 26
1584 15
1585 26
1586 42
1587 7
1588 55
1589 40
1590 31
1591 38
1592 10
1593 14
1594 51
1595 41
1596 0
1597 38
1598 11
1599 26
1600 11
1601 46
1602 18
1603 14
1604 34
1605 8
1606 0
1607 47
1608 46
1609 15
1610 10
1611 11
1612 19
1613 20
1614 12
1615 50
1616 49
1617 42
1618 56
1619 11
1620 47
1621 37
1622 9
1623 14
1624 16
1625 32
1626 5
1627 2
1628 23
1629 15
1630 25
1631 40
1632 34
1633 40
1634 1
1635 35
1636 50
1637 53
1638 27
1639 0
1640 14
1641 14
1642 52
1643 6
1644 49
1645 38
1646 11
1647 7
1648 38
1649 54
1650 22
1651 53
1652 47
1653 37
1654 41
1655 6
1656 4
1657 26
1658 47
1659 10
1660 42
1661 3
1662 10
1663 17
1664 23
1665 12
1666 36
1667 21
1668 12
1669 17
1670 14
1671 50
1672 34
1673 28
1674 29
1675 54
1676 22
1677 37
1678 14
1679 35
1680 45
1681 0
1682 3
1683 45
1684 34
1685 49
1686 7
1687 32
1688 26
1689 6
1690 6
1691 45
1692 23
1693 39
1694 46
1695 32
1696 22
1697 49
1698 18
1699 2
1700 22
1701 13
1702 1
1703 7
1704 17
1705 19
1706 45
1707 37
1708 3
1709 22
1710 22
1711 30
1712 26
1713 42
1714 28
1715 55
1716 11
1717 32
1718 30
1719 54
1720 52
1721 47
1722 43
1723 49
1724 44
1725 18
1726 29
1727 23
1728 9
1729 11
1730 21
1731 9
1732 42
1733 23
1734 52
1735 1
1736 2
1737 12
1738 14
1739 27
1740 14
1741 4
1742 53
1743 49
1744 9
1745 30
1746 30
1747 48
1748 30
1749 14
1750 37
1751 1
1752 44
1753 12
1754 5
1755 38
1756 11
1757 44
1758 13
1759 9
1760 55
1761 25
1762 34
1763 11
1764 40
1765 15
1766 9
1767 34
1768 21
1769 51
1770 30
1771 44
1772 46
1773 3
1774 44
1775 7
1776 21
1777 20
1778 9
1779 10
1780 30
1781 1
1782 23
1783 40
1784 36
1785 44
1786 46
1787 46
1788 20
1789 2
1790 36
1791 2
1792 48
1793 43
1794 17
1795 47
1796 35
1797 46
1798 35
1799 36
1800 28
1801 16
1802 28
1803 35
1804 40
1805 35
1806 26
1807 6
1808 11
1809 22
1810 19
1811 49
1812 1
1813 4
1814 35
1815 42
1816 26
1817 11
1818 43
1819 6
1820 56
1821 40
1822 23
1823 22
1824 22
1825 39
1826 37
1827 11
1828 56
1829 23
1830 30
1831 3
1832 4
1833 21
1834 23
1835 37
1836 47
1837 2
1838 7
1839 15
1840 27
1841 31
1842 28
1843 15
1844 49
1845 17
1846 34
1847 18
1848 25
1849 39
1850 47
1851 10
1852 12
1853 29
1854 11
1855 45
1856 14
1857 39
1858 24
1859 29
1860 48
1861 8
1862 26
1863 20
1864 52
1865 22
1866 12
1867 37
1868 14
1869 39
1870 17
1871 31
1872 7
1873 0
1874 42
1875 3
1876 42
1877 36
1878 48
1879 45
1880 23
1881 35
1882 52
1883 12
1884 22
1885 29
1886 11
1887 35
1888 52
1889 12
1890 14
1891 46
1892 14
1893 37
1894 28
1895 38
1896 5
1897 23
1898 39
1899 45
1900 5
1901 12
1902 6
1903 18
1904 49
1905 15
1906 26
1907 47
1908 50
1909 29
1910 31
1911 35
1912 40
1913 10
1914 46
1915 56
1916 38
1917 11
1918 1
1919 41
1920 7
1921 40
1922 11
1923 39
1924 23
1925 10
1926 50
1927 31
1928 6
1929 37
1930 36
1931 38
1932 32
1933 31
1934 34
1935 10
1936 8
1937 42
1938 18
1939 11
1940 39
1941 35
1942 46
1943 18
1944 16
1945 25
1946 30
1947 6
1948 14
1949 18
1950 28
1951 3
1952 32
1953 31
1954 44
1955 30
1956 42
1957 2
1958 28
1959 8
1960 51
1961 35
1962 25
1963 2
1964 21
1965 32
1966 14
1967 5
1968 50
1969 2
1970 24
1971 12
1972 14
1973 30
1974 36
1975 54
1976 43
1977 26
1978 4
1979 32
1980 40
1981 48
1982 50
1983 37
1984 18
1985 20
1986 4
1987 38
1988 21
1989 11
1990 32
1991 46
1992 26
1993 7
1994 11
1995 17
1996 4
1997 35
1998 32
1999 39
2000 16
2001 40
2002 39
2003 10
2004 56
2005 21
2006 32
2007 44
2008 3
2009 1
2010 0
2011 21
2012 3
2013 26
2014 2
2015 52
2016 7
2017 42
2018 31
2019 16
2020 20
2021 20
2022 20
2023 49
2024 15
2025 26
2026 34
2027 24
2028 35
2029 42
2030 0
2031 46
2032 20
2033 2
2034 38
2035 51
2036 26
2037 25
2038 5
2039 39
2040 7
2041 14
2042 48
2043 7
2044 10
2045 10
2046 21
2047 47
2048 4
2049 29
2050 46
2051 11
2052 43
2053 1
2054 34
2055 24
2056 27
2057 19
2058 33
2059 3
2060 31
2061 31
2062 44
2063 2
2064 47
2065 17
2066 26
2067 12
2068 18
2069 28
2070 30
2071 24
2072 20
2073 42
2074 35
2075 0
2076 52
2077 56
2078 15
2079 26
2080 43
2081 20
2082 22
2083 26
2084 5
2085 2
2086 36
2087 21
2088 52
2089 12
2090 33
2091 2
2092 40
2093 46
2094 50
2095 0
2096 16
2097 14
2098 12
2099 43
2100 27
2101 52
2102 46
2103 20
2104 21
2105 54
2106 16
2107 3
2108 14
2109 17
2110 55
2111 23
2112 22
2113 7
2114 5
2115 4
2116 1
2117 49
2118 44
2119 0
2120 38
2121 46
2122 14
2123 28
2124 54
2125 7
2126 21
2127 18
2128 12
2129 38
2130 14
2131 40
2132 53
2133 30
2134 47
2135 18
2136 11
2137 18
2138 42
2139 33
2140 5
2141 31
2142 46
2143 13
2144 46
2145 3
2146 37
2147 42
2148 11
2149 38
2150 23
2151 21
2152 17
2153 17
2154 36
2155 12
2156 30
2157 46
2158 5
2159 7
2160 38
2161 23
2162 4
2163 36
2164 26
2165 18
2166 40
2167 26
2168 37
2169 5
2170 31
2171 21
2172 56
2173 21
2174 44
2175 2
2176 37
2177 14
2178 22
2179 40
2180 41
2181 55
2182 47
2183 5
2184 12
2185 33
2186 6
2187 5
2188 46
2189 22
2190 56
2191 2
2192 2
2193 34
2194 38
2195 19
2196 19
2197 17
2198 37
2199 54
2200 14
2201 53
2202 12
2203 35
2204 16
2205 50
2206 56
2207 45
2208 42
2209 48
2210 5
2211 32
2212 17
2213 5
2214 4
2215 46
2216 36
2217 30
2218 24
2219 31
2220 30
2221 39
2222 14
2223 25
2224 35
2225 21
2226 0
2227 6
2228 18
2229 38
2230 29
2231 22
2232 12
2233 2
2234 17
2235 37
2236 20
2237 23
2238 1
2239 26
2240 31
2241 16
2242 28
2243 3
2244 17
2245 52
2246 47
2247 18
2248 37
2249 21
2250 16
2251 56
2252 53
2253 6
2254 38
2255 14
2256 25
2257 45
2258 20
2259 12
2260 35
2261 32
2262 7
2263 22
2264 49
2265 27
2266 55
2267 37
2268 46
2269 25
2270 22
2271 37
2272 23
2273 35
2274 9
2275 52
2276 27
2277 28
2278 45
2279 16
2280 7
2281 20
2282 25
2283 49
2284 20
2285 56
2286 22
2287 20
2288 34
2289 39
2290 13
2291 5
2292 33
2293 46
2294 17
2295 22
2296 17
2297 4
2298 1
2299 40
2300 26
2301 12
2302 33
2303 12
2304 4
2305 19
2306 11
2307 36
2308 51
2309 0
2310 53
2311 21
2312 27
2313 38
2314 28
2315 2
2316 53
2317 27
2318 17
2319 35
2320 27
2321 22
2322 1
2323 46
2324 23
2325 45
2326 41
2327 37
2328 47
2329 12
2330 42
2331 39
2332 46
2333 30
2334 29
2335 38
2336 0
2337 11
2338 39
2339 22
2340 20
2341 44
2342 1
2343 11
2344 44
2345 31
2346 54
2347 8
2348 6
2349 40
2350 47
2351 42
2352 31
2353 5
2354 28
2355 50
2356 24
2357 24
2358 16
2359 14
2360 20
2361 2
2362 1
2363 50
2364 21
2365 48
2366 13
2367 11
2368 19
2369 54
2370 9
2371 56
2372 19
2373 22
2374 28
2375 2
2376 42
2377 22
2378 42
2379 14
2380 6
2381 49
2382 40
2383 7
2384 32
2385 11
2386 16
2387 20
2388 4
2389 32
2390 44
2391 6
2392 8
2393 25
2394 36
2395 43
2396 51
2397 47
2398 32
2399 22
2400 4
2401 37
2402 8
2403 14
2404 52
2405 5
2406 34
2407 9
2408 6
2409 37
2410 12
2411 11
2412 21
2413 4
2414 4
2415 22
2416 21
2417 8
2418 24
2419 0
2420 11
2421 45
2422 39
2423 41
2424 5
2425 35
2426 46
2427 46
2428 44
2429 40
2430 11
2431 42
2432 47
2433 3
2434 12
2435 5
2436 36
2437 34
2438 17
2439 7
2440 2
2441 31
2442 6
2443 39
2444 26
2445 38
2446 30
2447 0
2448 53
2449 3
2450 14
2451 31
2452 7
2453 14
2454 40
2455 36
2456 21
2457 24
2458 19
2459 32
2460 24
2461 46
2462 14
2463 9
2464 18
2465 2
2466 12
2467 14
2468 23
2469 27
2470 13
2471 3
2472 1
2473 30
2474 11
2475 50
2476 12
2477 23
2478 24
2479 24
2480 37
2481 40
2482 37
2483 23
2484 48
2485 31
2486 31
2487 26
2488 46
2489 46
2490 1
2491 45
2492 25
2493 35
2494 9
2495 15
2496 38
2497 39
2498 7
2499 31
2500 35
2501 30
2502 14
2503 3
2504 45
2505 31
2506 45
2507 17
2508 35
2509 30
2510 38
2511 20
2512 15
2513 46
2514 21
2515 10
2516 22
2517 18
2518 21
2519 29
2520 36
2521 34
2522 30
2523 38
2524 52
2525 12
2526 3
2527 8
2528 46
2529 32
2530 31
2531 29
2532 46
2533 7
2534 10
2535 45
2536 32
2537 22
2538 49
2539 7
2540 6
2541 12
2542 11
2543 34
2544 44
2545 39
2546 24
2547 24
2548 38
2549 16
2550 44
2551 46
2552 52
2553 24
2554 24
2555 56
2556 48
2557 23
2558 2
2559 32
2560 23
2561 47
2562 29
2563 8
2564 26
2565 30
2566 44
2567 37
2568 11
2569 11
2570 17
2571 50
2572 47
2573 23
2574 9
2575 46
2576 23
2577 26
2578 45
2579 13
2580 34
2581 15
2582 26
2583 7
2584 5
2585 38
2586 12
2587 42
2588 29
2589 22
2590 11
2591 7
2592 11
2593 28
2594 21
2595 50
2596 29
2597 26
2598 7
2599 19
2600 29
2601 3
2602 52
2603 50
2604 27
2605 1
2606 50
2607 28
2608 14
2609 15
2610 37
2611 14
2612 21
2613 11
2614 45
2615 47
2616 8
2617 16
2618 36
2619 31
2620 17
2621 36
2622 16
2623 4
2624 3
2625 29
2626 36
2627 44
2628 28
2629 34
2630 20
2631 49
2632 26
2633 46
2634 7
2635 27
2636 5
2637 32
2638 53
2639 9
2640 43
2641 21
2642 16
2643 41
2644 50
2645 15
2646 50
2647 6
2648 30
2649 27
2650 19
2651 8
2652 30
2653 41
2654 39
2655 32
2656 23
2657 56
2658 28
2659 2
2660 15
2661 50
2662 7
2663 0
2664 29
2665 14
2666 12
2667 30
2668 30
2669 35
2670 9
2671 19
2672 1
2673 11
2674 38
2675 22
2676 5
2677 56
2678 46
2679 12
2680 50
2681 34
2682 18
2683 56
2684 49
2685 49
2686 21
2687 8
2688 29
2689 11
2690 2
2691 2
2692 23
2693 0
2694 38
2695 15
2696 48
2697 31
2698 46
2699 2
2700 11
2701 41
2702 14
2703 22
2704 1
2705 2
2706 30
2707 4
2708 5
2709 15
2710 52
2711 56
2712 44
2713 4
2714 22
2715 7
2716 8
2717 11
2718 21
2719 18
2720 53
2721 5
2722 14
2723 34
2724 35
2725 3
2726 45
2727 5
2728 12
2729 10
2730 49
2731 1
2732 11
2733 26
2734 32
2735 17
2736 23
2737 54
2738 14
2739 35
2740 22
2741 2
2742 46
2743 20
2744 0
2745 13
2746 11
2747 44
2748 7
2749 34
2750 16
2751 18
2752 3
2753 5
2754 26
2755 52
2756 27
2757 46
2758 1
2759 31
2760 39
2761 21
2762 17
2763 11
2764 23
2765 35
2766 11
2767 22
2768 41
2769 32
2770 44
2771 49
2772 42
2773 51
2774 44
2775 21
2776 46
2777 42
2778 12
2779 28
2780 26
2781 35
2782 27
2783 23
2784 46
2785 38
2786 11
2787 41
2788 2
2789 11
2790 18
2791 23
2792 44
2793 7
2794 55
2795 24
2796 17
2797 22
2798 16
2799 5
2800 16
2801 2
2802 48
2803 11
2804 1
2805 35
2806 55
2807 18
2808 17
2809 51
2810 11
2811 36
2812 40
2813 49
2814 20
2815 5
2816 48
2817 4
2818 4
2819 37
2820 11
2821 42
2822 17
2823 3
2824 11
2825 23
2826 49
2827 50
2828 22
2829 40
2830 38
2831 49
2832 7
2833 24
2834 44
2835 29
2836 21
2837 34
2838 39
2839 2
2840 2
2841 5
2842 16
2843 9
2844 36
2845 47
2846 5
2847 11
2848 22
2849 29
2850 53
2851 52
2852 24
2853 32
2854 42
2855 17
2856 21
2857 20
2858 8
2859 14
2860 15
2861 50
2862 4
2863 28
2864 11
2865 42
2866 7
2867 39
2868 30
2869 19
2870 30
2871 14
2872 56
2873 53
2874 0
2875 21
2876 47
2877 21
2878 29
2879 46
2880 23
2881 46
2882 11
2883 30
2884 11
2885 14
2886 44
2887 14
2888 36
2889 45
2890 22
2891 46
2892 2
2893 24
2894 42
2895 46
2896 10
2897 45
2898 30
2899 28
2900 46
2901 51
2902 22
2903 53
2904 2
2905 21
2906 11
2907 27
2908 49
2909 1
2910 29
2911 21
2912 46
2913 40
2914 56
2915 15
2916 11
2917 35
2918 20
2919 29
2920 16
2921 27
2922 4
2923 2
2924 47
2925 34
2926 17
2927 26
2928 13
2929 49
2930 26
2931 21
2932 5
2933 22
2934 21
2935 50
2936 38
2937 2
2938 30
2939 25
2940 11
2941 35
2942 2
2943 36
2944 14
2945 38
2946 16
2947 6
2948 36
2949 7
2950 12
2951 12
2952 7
2953 46
2954 32
2955 2
2956 30
2957 27
2958 50
2959 9
2960 41
2961 43
2962 3
2963 10
2964 4
2965 10
2966 11
2967 37
2968 11
2969 40
2970 44
2971 41
2972 8
2973 50
2974 30
2975 31
2976 32
2977 3
2978 0
2979 8
2980 46
2981 54
2982 46
2983 29
2984 8
2985 1
2986 43
2987 15
2988 0
2989 23
2990 26
2991 37
2992 40
2993 41
2994 46
2995 27
2996 55
2997 38
2998 2
2999 5
3000 44
3001 30
3002 35
3003 36
3004 49
3005 17
3006 3
3007 46
3008 30
3009 54
3010 11
3011 16
3012 28
3013 40
3014 41
3015 35
3016 53
3017 50
3018 48
3019 47
3020 21
3021 35
3022 35
3023 11
3024 5
3025 35
3026 7
3027 23
3028 22
3029 21
3030 46
3031 38
3032 35
3033 31
3034 4
3035 31
3036 54
3037 7
3038 44
3039 26
3040 48
3041 40
3042 16
3043 19
3044 31
3045 26
3046 5
3047 7
3048 36
3049 41
3050 23
3051 17
3052 23
3053 29
3054 5
3055 0
3056 9
3057 27
3058 11
3059 47
3060 46
3061 33
3062 30
3063 12
3064 4
3065 0
3066 28
3067 23
3068 52
3069 22
3070 43
3071 36
3072 31
3073 11
3074 21
3075 4
3076 5
3077 11
3078 2
3079 4
3080 10
3081 52
3082 12
3083 54
3084 18
3085 18
3086 32
3087 32
3088 9
3089 52
3090 46
3091 44
3092 14
3093 18
3094 39
3095 24
3096 8
3097 55
3098 31
3099 9
3100 28
3101 48
3102 11
3103 22
3104 7
3105 15
3106 38
3107 32
3108 11
3109 4
3110 14
3111 27
3112 26
3113 11
3114 10
3115 5
3116 53
3117 44
3118 44
3119 11
3120 35
3121 29
3122 42
3123 11
3124 0
3125 46
3126 55
3127 50
3128 50
3129 4
3130 26
3131 12
3132 53
3133 44
3134 22
3135 3
3136 23
3137 8
3138 27
3139 18
3140 30
3141 22
3142 12
3143 28
3144 14
3145 37
3146 16
3147 32
3148 56
3149 42
3150 3
3151 3
3152 52
3153 23
3154 37
3155 14
3156 32
3157 18
3158 41
3159 0
3160 43
3161 34
3162 11
3163 30
3164 2
3165 44
3166 56
3167 3
3168 3
3169 19
3170 42
3171 38
3172 2
3173 38
3174 34
3175 42
3176 8
3177 24
3178 4
3179 4
3180 50
3181 22
3182 1
3183 16
3184 17
3185 9
3186 46
3187 14
3188 38
3189 42
3190 37
3191 24
3192 39
3193 2
3194 53
3195 41
3196 40
3197 8
3198 46
3199 53
3200 29
3201 28
3202 16
3203 52
3204 47
3205 39
3206 11
3207 31
3208 4
3209 11
3210 4
3211 22
3212 23
3213 48
3214 56
3215 48
3216 50
3217 33
3218 14
3219 14
3220 8
3221 14
3222 23
3223 44
3224 53
3225 47
3226 14
3227 2
3228 2
3229 8
3230 28
3231 36
3232 52
3233 7
3234 38
3235 33
3236 29
3237 14
3238 44
3239 20
3240 22
3241 28
3242 16
3243 31
3244 32
3245 31
3246 42
3247 49
3248 22
3249 36
3250 23
3251 46
3252 26
3253 23
3254 38
3255 20
3256 11
3257 30
3258 2
3259 17
3260 15
3261 17
3262 26
3263 9
3264 12
3265 16
3266 12
3267 30
3268 3
3269 31
3270 21
3271 46
3272 43
3273 37
3274 22
3275 28
3276 23
3277 55
3278 26
3279 5
3280 50
3281 16
3282 42
3283 32
3284 21
3285 2
3286 6
3287 10
3288 1
3289 13
3290 48
3291 50
3292 21
3293 9
3294 22
3295 28
3296 5
3297 27
3298 11
3299 9
3300 26
3301 14
3302 43
3303 16
3304 14
3305 15
3306 53
3307 23
3308 2
3309 2
3310 42
3311 11
3312 43
3313 22
3314 5
3315 8
3316 32
3317 17
3318 32
3319 25
3320 36
3321 47
3322 17
3323 31
3324 0
3325 40
3326 48
3327 46
3328 51
3329 51
3330 37
3331 27
3332 45
3333 23
3334 50
3335 37
3336 35
3337 29
3338 32
3339 11
3340 40
3341 30
3342 11
3343 17
3344 24
3345 11
3346 27
3347 15
3348 34
3349 31
3350 38
3351 42
3352 46
3353 34
3354 17
3355 0
3356 2
3357 41
3358 42
3359 0
3360 15
3361 18
3362 11
3363 0
3364 50
3365 28
3366 7
3367 24
3368 48
3369 47
3370 5
3371 14
3372 26
3373 2
3374 18
3375 44
3376 23
3377 36
3378 16
3379 17
3380 5
3381 26
3382 32
3383 45
3384 22
3385 14
3386 12
3387 25
3388 29
3389 45
3390 45
3391 22
3392 30
3393 7
3394 45
3395 49
3396 56
3397 30
3398 47
3399 2
3400 12
3401 50
3402 47
3403 22
3404 41
3405 10
3406 12
3407 18
3408 46
3409 2
3410 31
3411 49
3412 7
3413 11
3414 15
3415 28
3416 51
3417 18
3418 2
3419 21
3420 13
3421 7
3422 11
3423 35
3424 11
3425 28
3426 40
3427 4
3428 35
3429 13
3430 31
3431 28
3432 44
3433 32
3434 29
3435 4
3436 4
3437 3
3438 27
3439 43
3440 17
3441 24
3442 46
3443 34
3444 17
3445 17
3446 23
3447 39
3448 41
3449 30
3450 10
3451 5
3452 16
3453 47
3454 2
3455 42
3456 47
3457 22
3458 31
3459 11
3460 37
3461 42
3462 38
3463 23
3464 40
3465 46
3466 31
3467 23
3468 36
3469 8
3470 8
3471 12
3472 24
3473 17
3474 22
3475 31
3476 44
3477 19
3478 45
3479 2
3480 19
3481 46
3482 11
3483 49
3484 31
3485 6
3486 28
3487 22
3488 3
3489 36
3490 7
3491 28
3492 17
3493 25
3494 34
3495 6
3496 42
3497 5
3498 14
3499 42
3500 11
3501 10
3502 5
3503 16
3504 7
3505 10
3506 7
3507 5
3508 11
3509 41
3510 53
3511 22
3512 21
3513 15
3514 47
3515 11
3516 44
3517 10
3518 43
3519 11
3520 28
3521 28
3522 12
3523 11
3524 11
3525 14
3526 11
3527 49
3528 6
3529 22
3530 42
3531 1
3532 23
3533 4
3534 11
3535 24
3536 50
3537 13
3538 50
3539 8
3540 50
3541 20
3542 21
3543 47
3544 9
3545 20
3546 10
3547 12
3548 21
3549 17
3550 23
3551 21
3552 45
3553 51
3554 5
3555 38
3556 21
3557 29
3558 20
3559 46
3560 11
3561 39
3562 32
3563 26
3564 48
3565 16
3566 38
3567 29
3568 3
3569 7
3570 36
3571 56
3572 7
3573 45
3574 31
3575 25
3576 38
3577 31
3578 53
3579 34
3580 30
3581 32
3582 8
3583 47
3584 45
3585 55
3586 31
3587 39
3588 3
3589 44
3590 7
3591 32
3592 8
3593 10
3594 12
3595 53
3596 40
3597 24
3598 4
3599 16
3600 30
3601 37
3602 11
3603 24
3604 41
3605 56
3606 49
3607 18
3608 9
3609 13
3610 40
3611 16
3612 3
3613 40
3614 31
3615 44
3616 20
3617 40
3618 3
3619 3
3620 23
3621 38
3622 27
3623 5
3624 40
3625 4
3626 22
3627 46
3628 17
3629 49
3630 17
3631 23
3632 23
3633 43
3634 5
3635 0
3636 8
3637 4
3638 26
3639 14
3640 3
3641 2
3642 50
3643 46
3644 30
3645 31
3646 49
3647 28
3648 22
3649 44
3650 20
3651 52
3652 36
3653 10
3654 30
3655 42
3656 4
3657 12
3658 2
3659 36
3660 17
3661 50
3662 20
3663 8
3664 29
3665 48
3666 5
3667 14
3668 3
3669 49
3670 16
3671 23
3672 49
3673 3
3674 44
3675 7
3676 29
3677 18
3678 28
3679 24
3680 46
3681 23
3682 17
3683 0
3684 38
3685 44
3686 56
3687 0
3688 40
3689 42
3690 4
3691 50
3692 38
3693 13
3694 31
3695 21
3696 3
3697 27
3698 22
3699 4
3700 20
3701 33
3702 31
3703 26
3704 30
3705 0
3706 19
3707 46
3708 13
3709 8
3710 31
3711 4
3712 19
3713 50
3714 42
3715 28
3716 8
3717 36
3718 26
3719 7
3720 14
3721 12
3722 46
3723 2
3724 12
3725 27
3726 28
3727 40
3728 31
3729 9
3730 14
3731 42
3732 14
3733 11
3734 33
3735 36
3736 56
3737 14
3738 38
3739 14
3740 8
3741 16
3742 41
3743 31
3744 22
3745 46
3746 22
3747 50
3748 51
3749 28
3750 5
3751 37
3752 26
3753 42
3754 11
3755 37
3756 24
3757 46
3758 51
3759 39
3760 31
3761 10
3762 10
3763 7
3764 30
3765 40
3766 28
3767 52
3768 36
3769 55
3770 40
3771 2
3772 5
3773 43
3774 44
3775 35
3776 28
3777 48
3778 52
3779 44
3780 10
3781 11
3782 7
3783 23
3784 38
3785 3
3786 31
3787 21
3788 18
3789 3
3790 37
3791 25
3792 21
3793 21
3794 52
3795 14
3796 18
3797 49
3798 34
3799 15
3800 36
3801 0
3802 52
3803 16
3804 9
3805 22
3806 7
3807 4
3808 31
3809 12
3810 11
3811 3
3812 48
3813 2
3814 34
3815 14
3816 10
3817 42
3818 19
3819 31
3820 54
3821 42
3822 8
3823 13
3824 55
3825 55
3826 37
3827 24
3828 22
3829 15
3830 46
3831 4
3832 38
3833 15
3834 30
3835 35
3836 40
3837 44
3838 13
3839 31
3840 15
3841 0
3842 5
3843 15
3844 7
3845 2
3846 1
3847 21
3848 46
3849 21
3850 11
3851 30
3852 42
3853 11
3854 22
3855 31
3856 4
3857 21
3858 14
3859 28
3860 40
3861 11
3862 21
3863 14
3864 21
3865 9
3866 3
3867 12
3868 34
3869 30
3870 46
3871 20
3872 42
3873 41
3874 28
3875 7
3876 0
3877 48
3878 11
3879 42
3880 42
3881 0
3882 15
3883 39
3884 48
3885 14
3886 34
3887 20
3888 11
3889 2
3890 14
3891 46
3892 36
3893 27
3894 50
3895 40
3896 56
3897 20
3898 46
3899 22
3900 11
3901 42
3902 21
3903 46
3904 23
3905 3
3906 48
3907 4
3908 34
3909 44
3910 48
3911 13
3912 3
3913 35
3914 20
3915 43
3916 18
3917 29
3918 26
3919 10
3920 26
3921 56
3922 15
3923 47
3924 36
3925 54
3926 8
3927 54
3928 54
3929 23
3930 9
3931 16
3932 3
3933 14
3934 11
3935 26
3936 33
3937 22
3938 10
3939 2
3940 27
3941 35
3942 28
3943 35
3944 21
3945 26
3946 20
3947 10
3948 46
3949 11
3950 8
3951 46
3952 38
3953 38
3954 18
3955 8
3956 18
3957 47
3958 31
3959 27
3960 36
3961 40
3962 29
3963 16
3964 50
3965 30
3966 0
3967 46
3968 17
3969 7
3970 10
3971 27
3972 37
3973 4
3974 7
3975 14
3976 26
3977 45
3978 46
3979 18
3980 44
3981 40
3982 39
3983 34
3984 34
3985 41
3986 31
3987 32
3988 36
3989 12
3990 28
3991 12
3992 22
3993 50
3994 41
3995 23
3996 44
3997 35
3998 3
3999 3
4000 4
4001 23
4002 30
4003 20
4004 23
4005 14
4006 0
4007 47
4008 14
4009 44
4010 5
4011 48
4012 7
4013 11
4014 34
4015 40
4016 40
4017 27
4018 38
4019 47
4020 22
4021 46
4022 28
4023 38
4024 25
4025 46
4026 20
4027 14
4028 36
4029 39
4030 49
4031 7
4032 12
4033 38
4034 7
4035 27
4036 10
4037 10
4038 7
4039 7
4040 44
4041 25
4042 11
4043 1
4044 35
4045 42
4046 3
4047 31
4048 9
4049 10
4050 48
4051 48
4052 5
4053 1
4054 5
4055 56
4056 19
4057 52
4058 5
4059 42
4060 40
4061 2
4062 22
4063 44
4064 4
4065 28
4066 30
4067 4
4068 46
4069 17
4070 53
4071 2
4072 8
4073 46
4074 0
4075 31
4076 14
4077 28
4078 20
4079 10
4080 18
4081 51
4082 30
4083 41
4084 28
4085 7
4086 30
4087 11
4088 5
4089 36
4090 14
4091 23
4092 10
4093 22
4094 22
4095 42
4096 17
4097 20
4098 48
4099 40
4100 33
4101 16
4102 50
4103 22
4104 42
4105 32
4106 35
4107 25
4108 16
4109 3
4110 21
4111 4
4112 46
4113 3
4114 42
4115 28
4116 0
4117 50
4118 14
4119 25
4120 8
4121 46
4122 38
4123 34
4124 11
4125 5
4126 41
4127 48
4128 35
4129 37
4130 37
4131 22
4132 3
4133 50
4134 23
4135 55
4136 36
4137 5
4138 5
4139 40
4140 52
4141 38
4142 41
4143 55
4144 23
4145 11
4146 11
4147 35
4148 47
4149 42
4150 14
4151 50
4152 4
4153 36
4154 26
4155 43
4156 46
4157 50
4158 47
4159 2
4160 38
4161 28
4162 14
4163 2
4164 51
4165 10
4166 2
4167 20
4168 54
4169 34
4170 2
4171 38
4172 29
4173 44
4174 25
4175 13
4176 24
4177 38
4178 2
4179 4
4180 21
4181 30
4182 46
4183 16
4184 35
4185 13
4186 48
4187 26
4188 11
4189 22
4190 29
4191 23
4192 52
4193 10
4194 54
4195 5
4196 36
4197 18
4198 8
4199 5
4200 35
4201 53
4202 18
4203 50
4204 20
4205 33
4206 8
4207 0
4208 52
4209 53
4210 16
4211 12
4212 0
4213 27
4214 23
4215 3
4216 37
4217 22
4218 14
4219 22
4220 52
4221 5
4222 3
4223 23
4224 22
4225 38
4226 5
4227 53
4228 5
4229 8
4230 14
4231 32
4232 13
4233 28
4234 56
4235 36
4236 25
4237 38
4238 11
4239 21
4240 46
4241 32
4242 12
4243 26
4244 42
4245 20
4246 37
4247 11
4248 47
4249 38
4250 31
4251 21
4252 6
4253 54
4254 42
4255 41
4256 51
4257 38
4258 23
4259 48
4260 42
4261 4
4262 13
4263 3
4264 12
4265 1
4266 32
4267 45
4268 42
4269 9
4270 26
4271 27
4272 46
4273 17
4274 10
4275 26
4276 22
4277 20
4278 11
4279 38
4280 56
4281 18
4282 36
4283 39
4284 34
4285 24
4286 32
4287 1
4288 47
4289 25
4290 10
4291 20
4292 11
4293 30
4294 4
4295 24
4296 28
4297 21
4298 35
4299 5
4300 27
4301 23
4302 29
4303 10
4304 30
4305 49
4306 24
4307 36
4308 24
4309 25
4310 44
4311 43
4312 40
4313 28
4314 33
4315 3
4316 4
4317 19
4318 2
4319 31
4320 41
4321 4
4322 22
4323 42
4324 43
4325 23
4326 23
4327 37
4328 12
4329 14
4330 18
4331 15
4332 42
4333 3
4334 0
4335 46
4336 21
4337 4
4338 20
4339 47
4340 12
4341 8
4342 27
4343 11
4344 14
4345 56
4346 7
4347 34
4348 30
4349 23
4350 50
4351 50
4352 11
4353 4
4354 4
4355 47
4356 11
4357 33
4358 18
4359 22
4360 18
4361 4
4362 49
4363 41
4364 46
4365 12
4366 12
4367 26
4368 2
4369 14
4370 5
4371 49
4372 36
4373 45
4374 8
4375 19
4376 46
4377 17
4378 36
4379 5
4380 27
4381 11
4382 44
4383 18
4384 47
4385 22
4386 12
4387 1
4388 10
4389 21
4390 44
4391 7
4392 42
4393 12
4394 1
4395 13
4396 14
4397 0
4398 40
4399 28
4400 32
4401 7
4402 10
4403 15
4404 22
4405 49
4406 51
4407 21
4408 9
4409 36
4410 34
4411 33
4412 3
4413 2
4414 44
4415 10
4416 11
4417 5
4418 34
4419 5
4420 38
4421 11
4422 11
4423 20
4424 54
4425 43
4426 30
4427 32
4428 46
4429 51
4430 38
4431 31
4432 15
4433 36
4434 9
4435 4
4436 22
4437 46
4438 16
4439 41
4440 28
4441 32
4442 24
4443 19
4444 15
4445 4
4446 23
4447 7
4448 30
4449 54
4450 35
4451 20
4452 11
4453 6
4454 47
4455 46
4456 33
4457 42
4458 35
4459 11
4460 2
4461 44
4462 11
4463 28
4464 11
4465 12
4466 44
4467 16
4468 42
4469 46
4470 48
4471 22
4472 1
4473 4
4474 12
4475 17
4476 30
4477 14
4478 46
4479 46
4480 46
4481 10
4482 52
4483 2
4484 46
4485 42
4486 4
4487 38
4488 21
4489 25
4490 53
4491 28
4492 20
4493 50
4494 42
4495 50
4496 26
4497 42
4498 44
4499 42
4500 47
4501 11
4502 18
4503 33
4504 45
4505 4
4506 9
4507 12
4508 29
4509 52
4510 32
4511 16
4512 54
4513 16
4514 2
4515 25
4516 32
4517 8
4518 0
4519 7
4520 55
4521 5
4522 12
4523 4
4524 35
4525 46
4526 22
4527 27
4528 40
4529 11
4530 39
4531 24
4532 17
4533 7
4534 42
4535 8
4536 16
4537 29
4538 13
4539 3
4540 50
4541 8
4542 27
4543 25
4544 29
4545 16
4546 46
4547 5
4548 44
4549 11
4550 3
4551 7
4552 40
4553 41
4554 3
4555 40
4556 44
4557 26
4558 12
4559 38
4560 2
4561 26
4562 48
4563 34
4564 5
4565 2
4566 5
4567 31
4568 41
4569 35
4570 25
4571 56
4572 12
4573 2
4574 21
4575 16
4576 46
4577 35
4578 49
4579 14
4580 26
4581 23
4582 27
4583 18
4584 50
4585 8
4586 22
4587 3
4588 46
4589 54
4590 3
4591 16
4592 44
4593 13
4594 22
4595 5
4596 14
4597 25
4598 18
4599 41
4600 14
4601 47
4602 51
4603 55
4604 9
4605 0
4606 54
4607 5
4608 10
4609 42
4610 46
4611 34
4612 3
4613 46
4614 4
4615 4
4616 47
4617 18
4618 28
4619 27
4620 23
4621 26
4622 20
4623 37
4624 43
4625 46
4626 24
4627 50
4628 2
4629 49
4630 18
4631 50
4632 30
4633 44
4634 35
4635 16
4636 33
4637 22
4638 14
4639 26
4640 50
4641 22
4642 47
4643 36
4644 30
4645 50
4646 22
4647 10
4648 8
4649 21
4650 11
4651 24
4652 36
4653 13
4654 11
4655 31
4656 4
4657 13
4658 4
4659 4
4660 50
4661 22
4662 25
4663 14
4664 21
4665 11
4666 7
4667 31
4668 21
4669 55
4670 37
4671 17
4672 48
4673 13
4674 27
4675 27
4676 27
4677 0
4678 7
4679 52
4680 50
4681 3
4682 14
4683 46
4684 22
4685 22
4686 48
4687 26
4688 42
4689 44
4690 39
4691 6
4692 40
4693 21
4694 11
4695 10
4696 44
4697 16
4698 17
4699 30
4700 12
4701 9
4702 4
4703 2
4704 46
4705 15
4706 35
4707 11
4708 39
4709 9
4710 7
4711 11
4712 15
4713 26
4714 43
4715 23
4716 13
4717 3
4718 5
4719 46
4720 8
4721 9
4722 21
4723 20
4724 12
4725 26
4726 56
4727 11
4728 46
4729 18
4730 50
4731 5
4732 0
4733 32
4734 12
4735 26
4736 14
4737 36
4738 48
4739 11
4740 28
4741 12
4742 41
4743 23
4744 55
4745 44
4746 23
4747 12
4748 40
4749 11
4750 39
4751 22
4752 48
4753 0
4754 44
4755 9
4756 21
4757 48
4758 25
4759 20
4760 36
4761 28
4762 14
4763 22
4764 30
4765 49
4766 51
4767 8
4768 10
4769 26
4770 7
4771 17
4772 7
4773 36
4774 29
4775 36
4776 56
4777 14
4778 17
4779 7
4780 22
4781 44
4782 7
4783 37
4784 45
4785 38
4786 11
4787 31
4788 12
4789 2
4790 17
4791 50
4792 9
4793 42
4794 11
4795 40
4796 32
4797 29
4798 46
4799 35
4800 14
4801 43
4802 22
4803 30
4804 22
4805 53
4806 21
4807 22
4808 38
4809 16
4810 22
4811 29
4812 40
4813 11
4814 40
4815 35
4816 23
4817 30
4818 36
4819 42
4820 18
4821 28
4822 33
4823 42
4824 18
4825 12
4826 3
4827 1
4828 14
4829 3
4830 2
4831 16
4832 41
4833 43
4834 37
4835 51
4836 22
4837 31
4838 9
4839 24
4840 20
4841 52
4842 21
4843 11
4844 28
4845 0
4846 53
4847 35
4848 36
4849 7
4850 14
4851 32
4852 15
4853 47
4854 48
4855 38
4856 12
4857 24
4858 47
4859 8
4860 24
4861 12
4862 42
4863 14
4864 30
4865 52
4866 5
4867 5
4868 27
4869 31
4870 14
4871 14
4872 21
4873 7
4874 10
4875 25
4876 29
4877 11
4878 33
4879 33
4880 18
4881 45
4882 36
4883 50
4884 6
4885 43
4886 45
4887 21
4888 18
4889 4
4890 2
4891 14
4892 21
4893 38
4894 2
4895 37
4896 14
4897 2
4898 7
4899 3
4900 42
4901 28
4902 24
4903 2
4904 42
4905 21
4906 21
4907 52
4908 53
4909 39
4910 38
4911 7
4912 26
4913 21
4914 15
4915 42
4916 1
4917 16
4918 46
4919 3
4920 32
4921 50
4922 26
4923 11
4924 49
4925 34
4926 40
4927 20
4928 8
4929 19
4930 0
4931 41
4932 7
4933 46
4934 38
4935 47
4936 4
4937 44
4938 31
4939 27
4940 50
4941 22
4942 0
4943 49
4944 12
4945 8
4946 14
4947 7
4948 19
4949 14
4950 27
4951 35
4952 50
4953 36
4954 5
4955 35
4956 36
4957 23
4958 38
4959 12
4960 43
4961 49
4962 22
4963 44
4964 26
4965 30
4966 23
4967 14
4968 12
4969 24
4970 19
4971 54
4972 13
4973 54
4974 0
4975 26
4976 32
4977 40
4978 23
4979 12
4980 21
4981 30
4982 15
4983 28
4984 50
4985 9
4986 46
4987 11
4988 30
4989 44
4990 32
4991 13
4992 19
4993 53
4994 1
4995 1
4996 22
4997 47
4998 11
4999 31
5000 10
5001 28
5002 55
5003 14
5004 20
5005 7
5006 28
5007 5
5008 30
5009 53
5010 45
5011 44
5012 34
5013 22
5014 9
5015 50
5016 21
5017 11
5018 51
5019 47
5020 22
5021 23
5022 42
5023 46
5024 47
5025 50
5026 5
5027 51
5028 7
5029 42
5030 42
5031 35
5032 8
5033 11
5034 51
5035 31
5036 29
5037 50
5038 46
5039 9
5040 20
5041 4
5042 10
5043 31
5044 22
5045 14
5046 38
5047 25
5048 16
5049 2
5050 45
5051 5
5052 22
5053 46
5054 56
5055 0
5056 14
5057 30
5058 18
5059 15
5060 53
5061 26
5062 16
5063 38
5064 13
5065 19
5066 12
5067 35
5068 21
5069 21
5070 32
5071 5
5072 29
5073 11
5074 49
5075 8
5076 15
5077 38
5078 48
5079 35
5080 38
5081 46
5082 31
5083 14
5084 21
5085 17
5086 37
5087 36
5088 48
5089 32
5090 40
5091 10
5092 2
5093 32
5094 44
5095 54
5096 29
5097 40
5098 14
5099 30
5100 50
5101 47
5102 45
5103 12
5104 51
5105 11
5106 40
5107 30
5108 48
5109 11
5110 11
5111 23
5112 8
5113 28
5114 31
5115 22
5116 19
5117 32
5118 8
5119 44
5120 28
5121 14
5122 2
5123 17
5124 34
5125 10
5126 17
5127 36
5128 21
5129 50
5130 10
5131 42
5132 55
5133 30
5134 21
5135 37
5136 28
5137 32
5138 26
5139 30
5140 31
5141 50
5142 47
5143 4
5144 16
5145 2
5146 26
5147 15
5148 40
5149 9
5150 26
5151 49
5152 38
5153 5
5154 31
5155 49
5156 34
5157 14
5158 49
5159 12
5160 25
5161 45
5162 10
5163 31
5164 9
5165 48
5166 21
5167 2
5168 50
5169 52
5170 12
5171 7
5172 12
5173 31
5174 11
5175 4
5176 46
5177 16
5178 41
5179 17
5180 12
5181 11
5182 35
5183 42
5184 16
5185 47
5186 24
5187 38
5188 54
5189 17
5190 23
5191 44
5192 1
5193 28
5194 50
5195 23
5196 18
5197 4
5198 46
5199 23
5200 44
5201 17
5202 37
5203 30
5204 37
5205 55
5206 11
5207 9
5208 40
5209 12
5210 11
5211 28
5212 52
5213 9
5214 20
5215 4
5216 16
5217 32
5218 55
5219 35
5220 23
5221 30
5222 30
5223 37
5224 42
5225 15
5226 37
5227 7
5228 46
5229 46
5230 3
5231 11
5232 43
5233 47
5234 12
5235 2
5236 31
5237 23
5238 44
5239 11
5240 16
5241 15
5242 42
5243 14
5244 49
5245 23
5246 0
5247 16
5248 52
5249 32
5250 30
5251 9
5252 29
5253 15
5254 4
5255 24
5256 47
5257 12
5258 11
5259 47
5260 1
5261 7
5262 38
5263 24
5264 27
5265 17
5266 45
5267 53
5268 31
5269 23
5270 7
5271 15
5272 36
5273 56
5274 48
5275 27
5276 22
5277 51
5278 45
5279 15
5280 41
5281 13
5282 15
5283 7
5284 52
5285 46
5286 50
5287 36
5288 3
5289 21
5290 40
5291 30
5292 47
5293 38
5294 32
5295 18
5296 11
5297 47
5298 33
5299 48
5300 42
5301 0
5302 51
5303 8
5304 51
5305 26
5306 19
5307 56
5308 11
5309 54
5310 0
5311 8
5312 38
5313 18
5314 22
5315 18
5316 25
5317 22
5318 22
5319 18
5320 55
5321 12
5322 5
5323 42
5324 22
5325 40
5326 32
5327 29
5328 11
5329 4
5330 32
5331 5
5332 13
5333 21
5334 2
5335 21
5336 47
5337 8
5338 26
5339 32
5340 16
5341 11
5342 49
5343 44
5344 53
5345 12
5346 13
5347 40
5348 48
5349 44
5350 24
5351 56
5352 30
5353 44
5354 13
5355 22
5356 23
5357 18
5358 5
5359 35
5360 15
5361 22
5362 5
5363 26
5364 14
5365 36
5366 10
5367 48
5368 14
5369 28
5370 50
5371 29
5372 40
5373 32
5374 5
5375 12
5376 21
5377 21
5378 26
5379 30
5380 35
5381 22
5382 3
5383 22
5384 4
5385 41
5386 11
5387 56
5388 50
5389 17
5390 21
5391 34
5392 0
5393 46
5394 29
5395 11
5396 39
5397 24
5398 13
5399 9
5400 26
5401 37
5402 16
5403 37
5404 13
5405 28
5406 34
5407 31
5408 22
5409 42
5410 55
5411 21
5412 39
5413 25
5414 26
5415 22
5416 21
5417 2
5418 28
5419 23
5420 1
5421 2
5422 31
5423 22
5424 14
5425 31
5426 14
5427 45
5428 46
5429 28
5430 44
5431 11
5432 18
5433 22
5434 36
5435 16
5436 26
5437 15
5438 32
5439 25
5440 5
5441 12
5442 20
5443 4
5444 6
5445 14
5446 20
5447 40
5448 42
5449 39
5450 26
5451 15
5452 56
5453 9
5454 36
5455 3
5456 2
5457 2
5458 29
5459 2
5460 22
5461 35
5462 42
5463 29
5464 11
5465 15
5466 3
5467 7
5468 31
5469 17
5470 56
5471 30
5472 16
5473 0
5474 8
5475 46
5476 52
5477 16
5478 19
5479 31
5480 53
5481 5
5482 34
5483 7
5484 37
5485 22
5486 35
5487 47
5488 13
5489 27
5490 25
5491 13
5492 34
5493 22
5494 22
5495 0
5496 41
5497 4
5498 12
5499 22
5500 14
5501 44
5502 7
5503 32
5504 44
5505 31
5506 12
5507 22
5508 22
5509 12
5510 39
5511 42
5512 49
5513 31
5514 10
5515 1
5516 10
5517 47
5518 44
5519 19
5520 11
5521 42
5522 12
5523 32
5524 50
5525 47
5526 4
5527 15
5528 49
5529 37
5530 10
5531 52
5532 23
5533 24
5534 55
5535 3
5536 40
5537 6
5538 46
5539 11
5540 3
5541 30
5542 52
5543 42
5544 16
5545 19
5546 5
5547 52
5548 50
5549 46
5550 22
5551 48
5552 45
5553 46
5554 5
5555 12
5556 34
5557 35
5558 14
5559 56
5560 40
5561 42
5562 3
5563 27
5564 11
5565 16
5566 38
5567 53
5568 13
5569 2
5570 39
5571 13
5572 40
5573 1
5574 14
5575 39
5576 22
5577 49
5578 22
5579 13
5580 50
5581 23
5582 7
5583 7
5584 6
5585 11
5586 14
5587 42
5588 13
5589 9
5590 37
5591 41
5592 31
5593 21
5594 41
5595 2
5596 32
5597 17
5598 4
5599 33
5600 29
5601 40
5602 5
5603 21
5604 4
5605 15
5606 44
5607 47
5608 36
5609 11
5610 46
5611 18
5612 46
5613 37
5614 3
5615 29
5616 12
5617 15
5618 33
5619 53
5620 36
5621 40
5622 10
5623 31
5624 34
5625 56
5626 36
5627 32
5628 11
5629 26
5630 23
5631 23
5632 27
5633 41
5634 29
5635 15
5636 52
5637 26
5638 16
5639 41
5640 36
5641 30
5642 20
5643 39
5644 56
5645 14
5646 29
5647 11
5648 24
5649 17
5650 27
5651 35
5652 55
5653 53
5654 47
5655 8
5656 24
5657 2
5658 42
5659 51
5660 10
5661 3
5662 22
5663 2
5664 37
5665 23
5666 9
5667 34
5668 14
5669 46
5670 5
5671 46
5672 33
5673 40
5674 9
5675 12
5676 12
5677 38
5678 46
5679 7
5680 28
5681 22
5682 5
5683 30
5684 53
5685 22
5686 11
5687 9
5688 27
5689 8
5690 17
5691 40
5692 37
5693 7
5694 9
5695 31
5696 5
5697 12
5698 4
5699 32
5700 3
5701 12
5702 42
5703 31
5704 23
5705 16
5706 30
5707 24
5708 6
5709 11
5710 43
5711 36
5712 11
5713 24
5714 14
5715 28
5716 22
5717 19
5718 40
5719 43
5720 39
5721 18
5722 44
5723 27
5724 18
5725 20
5726 5
5727 31
5728 11
5729 46
5730 10
5731 34
5732 14
5733 27
5734 31
5735 37
5736 5
5737 31
5738 50
5739 31
5740 2
5741 27
5742 26
5743 32
5744 10
5745 20
5746 22
5747 26
5748 42
5749 56
5750 52
5751 46
5752 11
5753 16
5754 0
5755 11
5756 11
5757 47
5758 27
5759 16
5760 45
5761 1
5762 48
5763 3
5764 37
5765 46
5766 31
5767 5
5768 20
5769 16
5770 0
5771 36
5772 1
5773 21
5774 34
5775 22
5776 49
5777 46
5778 11
5779 52
5780 42
5781 16
5782 38
5783 51
5784 37
5785 0
5786 14
5787 34
5788 43
5789 9
5790 30
5791 31
5792 3
5793 11
5794 34
5795 12
5796 26
5797 3
5798 0
5799 30
5800 47
5801 53
5802 11
5803 50
5804 42
5805 42
5806 39
5807 11
5808 35
5809 15
5810 6
5811 22
5812 10
5813 29
5814 34
5815 36
5816 25
5817 1
5818 14
5819 14
5820 18
5821 10
5822 22
5823 34
5824 24
5825 31
5826 7
5827 27
5828 38
5829 11
5830 38
5831 50
5832 7
5833 2
5834 46
5835 20
5836 12
5837 30
5838 20
5839 23
5840 14
5841 4
5842 4
5843 44
5844 30
5845 48
5846 45
5847 23
5848 5
5849 5
5850 37
5851 3
5852 44
5853 9
5854 41
5855 5
5856 11
5857 31
5858 14
5859 15
5860 43
5861 21
5862 3
5863 21
5864 49
5865 40
5866 23
5867 3
5868 45
5869 7
5870 13
5871 28
5872 14
5873 15
5874 40
5875 2
5876 34
5877 34
5878 15
5879 37
5880 14
5881 26
5882 42
5883 20
5884 21
5885 28
5886 27
5887 38
5888 50
5889 18
5890 47
5891 5
5892 42
5893 42
5894 37
5895 50
5896 13
5897 27
5898 14
5899 11
5900 32
5901 2
5902 48
5903 22
5904 7
5905 41
5906 30
5907 51
5908 9
5909 36
5910 39
5911 8
5912 44
5913 5
5914 6
5915 12
5916 47
5917 12
5918 5
5919 28
5920 2
5921 52
5922 8
5923 11
5924 32
5925 30
5926 25
5927 38
5928 34
5929 52
5930 49
5931 22
5932 14
5933 2
5934 26
5935 30
5936 45
5937 47
5938 16
5939 49
5940 53
5941 23
5942 9
5943 42
5944 11
5945 39
5946 14
5947 54
5948 37
5949 53
5950 46
5951 41
5952 45
5953 16
5954 42
5955 48
5956 28
5957 45
5958 51
5959 50
5960 47
5961 46
5962 50
5963 26
5964 41
5965 4
5966 21
5967 30
5968 46
5969 23
5970 5
5971 48
5972 5
5973 16
5974 12
5975 42
5976 16
5977 46
5978 5
5979 41
5980 2
5981 6
5982 10
5983 18
5984 40
5985 42
5986 35
5987 14
5988 19
5989 5
5990 21
5991 49
5992 27
5993 9
5994 20
5995 12
5996 38
5997 23
5998 24
5999 45
6000 5
6001 0
6002 29
6003 44
6004 51
6005 24
6006 0
6007 22
6008 44
6009 52
6010 17
6011 16
6012 26
6013 14
6014 19
6015 26
6016 2
6017 0
6018 23
6019 26
6020 50
6021 17
6022 13
6023 3
6024 45
6025 53
6026 2
6027 7
6028 26
6029 11
6030 28
6031 49
6032 46
6033 50
6034 12
6035 42
6036 36
6037 17
6038 23
6039 4
6040 11
6041 55
6042 17
6043 14
6044 49
6045 11
6046 22
6047 46
6048 37
6049 30
6050 2
6051 21
6052 30
6053 11
6054 30
6055 21
6056 52
6057 47
6058 53
6059 21
6060 14
6061 26
6062 28
6063 0
6064 11
6065 37
6066 2
6067 50
6068 14
6069 7
6070 12
6071 2
6072 26
6073 33
6074 34
6075 48
6076 11
6077 51
6078 11
6079 24
6080 42
6081 46
6082 46
6083 47
6084 26
6085 38
6086 35
6087 16
6088 34
6089 3
6090 39
6091 0
6092 50
6093 8
6094 47
6095 7
6096 27
6097 46
6098 20
6099 13
6100 42
6101 42
6102 50
6103 11
6104 24
6105 20
6106 11
6107 46
6108 32
6109 7
6110 11
6111 14
6112 16
6113 3
6114 6
6115 42
6116 28
6117 4
6118 13
6119 30
6120 52
6121 4
6122 11
6123 32
6124 7
6125 15
6126 22
6127 26
6128 46
6129 40
6130 42
6131 50
6132 21
6133 4
6134 5
6135 13
6136 32
6137 27
6138 42
6139 0
6140 8
6141 0
6142 3
6143 16
6144 17
6145 12
6146 2
6147 26
6148 31
6149 27
6150 38
6151 40
6152 2
6153 0
6154 23
6155 35
6156 36
6157 35
6158 38
6159 13
6160 38
6161 41
6162 44
6163 0
6164 50
6165 21
6166 11
6167 54
6168 43
6169 15
6170 18
6171 3
6172 30
6173 28
6174 6
6175 36
6176 10
6177 12
6178 42
6179 11
6180 0
6181 31
6182 12
6183 7
6184 21
6185 19
6186 36
6187 31
6188 2
6189 11
6190 16
6191 5
6192 22
6193 2
6194 46
6195 21
6196 20
6197 27
6198 35
6199 50
6200 29
6201 7
6202 47
6203 21
6204 7
6205 22
6206 18
6207 34
6208 11
6209 14
6210 10
6211 50
6212 44
6213 29
6214 7
6215 45
6216 37
6217 51
6218 13
6219 23
6220 46
6221 24
6222 3
6223 46
6224 4
6225 43
6226 48
6227 19
6228 38
6229 14
6230 49
6231 26
6232 4
6233 4
6234 37
6235 30
6236 44
6237 15
6238 32
6239 19
6240 44
6241 38
6242 28
6243 34
6244 30
6245 11
6246 32
6247 20
6248 5
6249 25
6250 16
6251 46
6252 8
6253 4
6254 23
6255 21
6256 46
6257 47
6258 30
6259 49
6260 33
6261 14
6262 52
6263 23
6264 9
6265 37
6266 47
6267 8
6268 18
6269 22
6270 30
6271 21
6272 34
6273 11
6274 44
6275 35
6276 2
6277 44
6278 2
6279 8
6280 14
6281 28
6282 5
6283 35
6284 35
6285 23
6286 39
6287 31
6288 26
6289 46
6290 7
6291 31
6292 31
6293 32
6294 39
6295 8
6296 49
6297 20
6298 24
6299 42
6300 52
6301 19
6302 16
6303 35
6304 18
6305 40
6306 32
6307 20
6308 40
6309 40
6310 42
6311 49
6312 12
6313 35
6314 37
6315 50
6316 46
6317 40
6318 16
6319 28
6320 22
6321 50
6322 28
6323 37
6324 23
6325 32
6326 31
6327 32
6328 2
6329 32
6330 34
6331 9
6332 20
6333 37
6334 30
6335 56
6336 0
6337 30
6338 22
6339 35
6340 25
6341 11
6342 49
6343 14
6344 29
6345 15
6346 16
6347 15
6348 13
6349 11
6350 4
6351 11
6352 11
6353 29
6354 21
6355 11
6356 27
6357 16
6358 25
6359 46
6360 2
6361 13
6362 44
6363 36
6364 9
6365 43
6366 27
6367 32
6368 5
6369 27
6370 17
6371 46
6372 23
6373 0
6374 2
6375 53
6376 14
6377 1
6378 10
6379 24
6380 0
6381 36
6382 4
6383 6
6384 20
6385 55
6386 9
6387 25
6388 20
6389 0
6390 22
6391 43
6392 30
6393 11
6394 26
6395 40
6396 32
6397 30
6398 47
6399 14
6400 8
6401 25
6402 29
6403 4
6404 7
6405 13
6406 48
6407 31
6408 21
6409 42
6410 26
6411 7
6412 44
6413 20
6414 29
6415 40
6416 20
6417 28
6418 38
6419 17
6420 4
6421 44
6422 16
6423 21
6424 39
6425 5
6426 43
6427 7
6428 14
6429 17
6430 42
6431 32
6432 54
6433 31
6434 11
6435 2
6436 11
6437 32
6438 10
6439 47
6440 50
6441 23
6442 11
6443 50
6444 11
6445 27
6446 11
6447 26
6448 38
6449 36
6450 33
6451 43
6452 38
6453 10
6454 12
6455 14
6456 7
6457 13
6458 16
6459 11
6460 50
6461 30
6462 11
6463 32
6464 5
6465 46
6466 46
6467 12
6468 46
6469 12
6470 2
6471 51
6472 32
6473 15
6474 21
6475 3
6476 38
6477 2
6478 21
6479 36
6480 0
6481 41
6482 12
6483 25
6484 35
6485 18
6486 12
6487 28
6488 34
6489 14
6490 46
6491 3
6492 49
6493 11
6494 35
6495 31
6496 11
6497 27
6498 47
6499 32
6500 40
6501 51
6502 16
6503 16
6504 43
6505 1
6506 31
6507 48
6508 37
6509 4
6510 11
6511 31
6512 18
6513 16
6514 27
6515 16
6516 34
6517 40
6518 15
6519 56
6520 39
6521 44
6522 35
6523 41
6524 32
6525 1
6526 12
6527 54
6528 34
6529 31
6530 43
6531 31
6532 35
6533 30
6534 27
6535 26
6536 42
6537 47
6538 7
6539 4
6540 14
6541 56
6542 32
6543 7
6544 26
6545 4
6546 48
6547 28
6548 15
6549 31
6550 48
6551 36
6552 23
6553 10
6554 46
6555 30
6556 5
6557 8
6558 46
6559 13
6560 3
6561 7
6562 34
6563 48
6564 36
6565 37
6566 2
6567 36
6568 31
6569 23
6570 26
6571 28
6572 5
6573 35
6574 38
6575 25
6576 24
6577 23
6578 0
6579 56
6580 30
6581 9
6582 32
6583 53
6584 31
6585 2
6586 35
6587 47
6588 52
6589 12
6590 22
6591 10
6592 23
6593 7
6594 35
6595 31
6596 50
6597 15
6598 14
6599 43
6600 36
6601 45
6602 53
6603 11
6604 8
6605 11
6606 22
6607 51
6608 20
6609 3
6610 4
6611 10
6612 25
6613 14
6614 1
6615 30
6616 34
6617 5
6618 31
6619 0
6620 40
6621 9
6622 28
6623 48
6624 17
6625 2
6626 16
6627 10
6628 27
6629 45
6630 9
6631 39
6632 14
6633 13
6634 14
6635 11
6636 40
6637 56
6638 17
6639 53
6640 11
6641 25
6642 20
6643 54
6644 11
6645 31
6646 16
6647 35
6648 32
6649 0
6650 14
6651 1
6652 26
6653 49
6654 14
6655 20
6656 14
6657 7
6658 26
6659 2
6660 46
6661 11
6662 56
6663 23
6664 4
6665 52
6666 3
6667 23
6668 54
6669 20
6670 40
6671 8
6672 5
6673 4
6674 44
6675 36
6676 40
6677 11
6678 51
6679 31
6680 22
6681 7
6682 28
6683 45
6684 18
6685 30
6686 41
6687 37
6688 10
6689 39
6690 36
6691 47
6692 45
6693 43
6694 26
6695 41
6696 0
6697 48
6698 8
6699 26
6700 17
6701 26
6702 46
6703 46
6704 5
6705 10
6706 28
6707 53
6708 4
6709 3
6710 45
6711 38
6712 32
6713 48
6714 5
6715 20
6716 29
6717 56
6718 30
6719 30
6720 6
6721 53
6722 31
6723 4
6724 17
6725 21
6726 20
6727 12
6728 8
6729 2
6730 22
6731 34
6732 0
6733 24
6734 2
6735 12
6736 32
6737 27
6738 50
6739 35
6740 1
6741 12
6742 15
6743 50
6744 47
6745 30
6746 7
6747 34
6748 1
6749 51
6750 15
6751 42
6752 22
6753 31
6754 12
6755 47
6756 36
6757 37
6758 37
6759 22
6760 37
6761 40
6762 17
6763 22
6764 2
6765 50
6766 56
6767 23
6768 29
6769 6
6770 12
6771 11
6772 23
6773 0
6774 23
6775 20
6776 14
6777 1
6778 23
6779 7
6780 0
6781 17
6782 17
6783 14
6784 3
6785 16
6786 32
6787 34
6788 44
6789 29
6790 5
6791 32
6792 5
6793 34
6794 37
6795 30
6796 7
6797 44
6798 14
6799 15
6800 5
6801 10
6802 29
6803 40
6804 40
6805 43
6806 30
6807 12
6808 17
6809 2
6810 2
6811 0
6812 13
6813 31
6814 37
6815 42
6816 30
6817 40
6818 12
6819 29
6820 21
6821 15
6822 8
6823 51
6824 53
6825 35
6826 41
6827 7
6828 42
6829 7
6830 28
6831 23
6832 27
6833 30
6834 53
6835 9
6836 18
6837 37
6838 0
6839 32
6840 2
6841 2
6842 19
6843 8
6844 27
6845 16
6846 15
6847 47
6848 7
6849 32
6850 50
6851 48
6852 40
6853 21
6854 36
6855 11
6856 54
6857 2
6858 3
6859 0
6860 13
6861 2
6862 14
6863 27
6864 4
6865 48
6866 46
6867 11
6868 38
6869 29
6870 34
6871 40
6872 21
6873 1
6874 7
6875 42
6876 21
6877 30
6878 28
6879 30
6880 55
6881 35
6882 2
6883 24
6884 29
6885 17
6886 44
6887 42
6888 37
6889 2
6890 8
6891 29
6892 15
6893 35
6894 30
6895 30
6896 14
6897 2
6898 34
6899 38
6900 26
6901 24
6902 22
6903 24
6904 42
6905 12
6906 50
6907 37
6908 10
6909 16
6910 36
6911 5
6912 25
6913 22
6914 8
6915 23
6916 46
6917 24
6918 11
6919 21
6920 19
6921 38
6922 8
6923 24
6924 3
6925 1
6926 12
6927 32
6928 27
6929 12
6930 38
6931 9
6932 44
6933 12
6934 1
6935 30
6936 21
6937 3
6938 8
6939 23
6940 2
6941 16
6942 27
6943 53
6944 23
6945 11
6946 23
6947 16
6948 46
6949 26
6950 21
6951 27
6952 11
6953 45
6954 22
6955 29
6956 17
6957 23
6958 52
6959 7
6960 0
6961 34
6962 10
6963 3
6964 10
6965 33
6966 33
6967 0
6968 5
6969 32
6970 30
6971 23
6972 13
6973 14
6974 53
6975 52
6976 50
6977 5
6978 51
6979 23
6980 42
6981 29
6982 26
6983 28
6984 35
6985 7
6986 12
6987 11
6988 11
6989 54
6990 5
6991 23
6992 22
6993 13
6994 14
6995 54
6996 31
6997 52
6998 53
6999 40
7000 21
7001 10
7002 19
7003 2
7004 0
7005 23
7006 45
7007 33
7008 22
7009 18
7010 13
7011 39
7012 26
7013 5
7014 2
7015 27
7016 25
7017 14
7018 37
7019 48
7020 3
7021 15
7022 21
7023 8
7024 8
7025 44
7026 44
7027 48
7028 4
7029 45
7030 42
7031 5
7032 8
7033 22
7034 23
7035 32
7036 23
7037 41
7038 17
7039 2
7040 40
7041 29
7042 7
7043 26
7044 23
7045 30
7046 38
7047 40
7048 10
7049 30
7050 36
7051 36
7052 12
7053 38
7054 39
7055 4
7056 19
7057 50
7058 11
7059 38
7060 3
7061 17
7062 16
7063 39
7064 34
7065 46
7066 30
7067 41
7068 15
7069 21
7070 19
7071 4
7072 18
7073 17
7074 3
7075 23
7076 24
7077 5
7078 25
7079 35
7080 47
7081 31
7082 22
7083 12
7084 43
7085 7
7086 41
7087 26
7088 11
7089 12
7090 53
7091 10
7092 21
7093 45
7094 29
7095 2
7096 39
7097 22
7098 25
7099 31
7100 37
7101 56
7102 42
7103 47
7104 16
7105 40
7106 6
7107 35
7108 36
7109 17
7110 0
7111 38
7112 7
7113 28
7114 44
7115 7
7116 42
7117 56
7118 27
7119 5
7120 26
7121 0
7122 15
7123 8
7124 28
7125 42
7126 22
7127 24
7128 26
7129 5
7130 12
7131 3
7132 16
7133 14
7134 7
7135 8
7136 3
7137 1
7138 17
7139 5
7140 10
7141 18
7142 52
7143 11
7144 36
7145 22
7146 12
7147 44
7148 30
7149 11
7150 22
7151 12
7152 36
7153 3
7154 23
7155 42
7156 20
7157 25
7158 51
7159 44
7160 51
7161 19
7162 12
7163 35
7164 22
7165 42
7166 53
7167 17
7168 10
7169 0
7170 4
7171 2
7172 39
7173 32
7174 43
7175 6
7176 24
7177 21
7178 6
7179 4
7180 12
7181 21
7182 44
7183 53
7184 55
7185 12
7186 28
7187 2
7188 52
7189 37
7190 37
7191 48
7192 48
7193 30
7194 42
7195 35
7196 31
7197 50
7198 34
7199 10
7200 29
7201 28
7202 11
7203 40
7204 2
7205 52
7206 49
7207 11
7208 50
7209 2
7210 53
7211 23
7212 26
7213 12
7214 52
7215 41
7216 36
7217 14
7218 11
7219 50
7220 29
7221 17
7222 9
7223 38
7224 9
7225 23
7226 33
7227 13
7228 51
7229 9
7230 26
7231 7
7232 5
7233 21
7234 26
7235 2
7236 47
7237 30
7238 4
7239 14
7240 42
7241 5
7242 30
7243 21
7244 46
7245 52
7246 31
7247 41
7248 49
7249 39
7250 8
7251 23
7252 7
7253 12
7254 14
7255 9
7256 8
7257 52
7258 16
7259 21
7260 53
7261 16
7262 45
7263 9
7264 4
7265 23
7266 23
7267 27
7268 12
7269 6
7270 55
7271 44
7272 1
7273 3
7274 19
7275 3
7276 23
7277 54
7278 0
7279 39
7280 3
7281 46
7282 5
7283 46
7284 4
7285 49
7286 23
7287 20
7288 18
7289 41
7290 22
7291 38
7292 36
7293 31
7294 50
7295 52
7296 45
7297 19
7298 50
7299 45
7300 20
7301 4
7302 30
7303 51
7304 24
7305 39
7306 12
7307 9
7308 38
7309 24
7310 32
7311 5
7312 2
7313 17
7314 36
7315 25
7316 32
7317 56
7318 27
7319 49
7320 10
7321 1
7322 3
7323 16
7324 5
7325 56
7326 30
7327 38
7328 38
7329 42
7330 23
7331 9
7332 35
7333 21
7334 31
7335 14
7336 10
7337 17
7338 48
7339 31
7340 13
7341 44
7342 42
7343 11
7344 52
7345 5
7346 8
7347 19
7348 0
7349 17
7350 0
7351 2
7352 53
7353 12
7354 30
7355 37
7356 8
7357 38
7358 7
7359 2
7360 54
7361 28
7362 42
7363 22
7364 42
7365 47
7366 33
7367 23
7368 37
7369 21
7370 23
7371 23
7372 30
7373 12
7374 5
7375 17
7376 30
7377 18
7378 11
7379 55
7380 28
7381 30
7382 48
7383 2
7384 4
7385 49
7386 5
7387 40
7388 21
7389 1
7390 29
7391 10
7392 8
7393 5
7394 48
7395 24
7396 31
7397 55
7398 15
7399 16
7400 26
7401 37
7402 0
7403 9
7404 5
7405 42
7406 1
7407 45
7408 16
7409 5
7410 55
7411 51
7412 8
7413 35
7414 43
7415 15
7416 35
7417 8
7418 23
7419 52
7420 4
7421 7
7422 39
7423 8
7424 5
7425 10
7426 20
7427 32
7428 39
7429 23
7430 30
7431 16
7432 10
7433 32
7434 46
7435 10
7436 20
7437 50
7438 1
7439 23
7440 35
7441 14
7442 50
7443 10
7444 52
7445 5
7446 17
7447 18
7448 14
7449 4
7450 35
7451 16
7452 5
7453 27
7454 42
7455 31
7456 50
7457 34
7458 32
7459 17
7460 2
7461 31
7462 48
7463 0
7464 48
7465 45
7466 10
7467 32
7468 31
7469 30
7470 2
7471 10
7472 28
7473 51
7474 46
7475 7
7476 28
7477 44
7478 10
7479 53
7480 53
7481 7
7482 16
7483 30
7484 14
7485 2
7486 22
7487 14
7488 20
7489 2
7490 22
7491 11
7492 41
7493 56
7494 14
7495 32
7496 0
7497 43
7498 43
7499 4
7500 43
7501 4
7502 3
7503 22
7504 15
7505 30
7506 22
7507 46
7508 41
7509 14
7510 23
7511 40
7512 4
7513 44
7514 27
7515 28
7516 42
7517 18
7518 30
7519 31
7520 43
7521 11
7522 3
7523 6
7524 11
7525 39
7526 51
7527 11
7528 12
7529 30
7530 41
7531 35
7532 39
7533 33
7534 16
7535 7
7536 48
7537 23
7538 8
7539 1
7540 47
7541 14
7542 24
7543 14
7544 30
7545 50
7546 22
7547 18
7548 50
7549 12
7550 38
7551 27
7552 52
7553 22
7554 53
7555 46
7556 36
7557 21
7558 53
7559 55
7560 26
7561 21
7562 38
7563 32
7564 51
7565 36
7566 32
7567 42
7568 45
7569 14
7570 48
7571 11
7572 3
7573 38
7574 12
7575 47
7576 24
7577 12
7578 5
7579 55
7580 38
7581 21
7582 46
7583 39
7584 10
7585 15
7586 38
7587 44
7588 21
7589 35
7590 14
7591 40
7592 1
7593 21
7594 28
7595 19
7596 44
7597 11
7598 22
7599 16
7600 10
7601 54
7602 50
7603 42
7604 21
7605 50
7606 36
7607 16
7608 19
7609 8
7610 28
7611 27
7612 5
7613 26
7614 46
7615 5
7616 30
7617 21
7618 30
7619 28
7620 20
7621 17
7622 32
7623 46
7624 37
7625 27
7626 2
7627 34
7628 11
7629 20
7630 7
7631 35
7632 38
7633 26
7634 51
7635 48
7636 11
7637 26
7638 38
7639 2
7640 8
7641 48
7642 38
7643 7
7644 44
7645 25
7646 4
7647 37
7648 29
7649 47
7650 12
7651 38
7652 39
7653 35
7654 23
7655 7
7656 14
7657 31
7658 32
7659 51
7660 10
7661 10
7662 44
7663 43
7664 7
7665 31
7666 22
7667 31
7668 21
7669 16
7670 21
7671 23
7672 21
7673 44
7674 3
7675 40
7676 46
7677 50
7678 21
7679 21
7680 44
7681 38
7682 11
7683 23
7684 46
7685 22
7686 21
7687 29
7688 27
7689 6
7690 0
7691 6
7692 6
7693 2
7694 19
7695 31
7696 6
7697 6
7698 17
7699 21
7700 26
7701 20
7702 43
7703 22
7704 26
7705 36
7706 14
7707 27
7708 50
7709 45
7710 10
7711 20
7712 4
7713 11
7714 24
7715 44
7716 5
7717 49
7718 17
7719 21
7720 12
7721 4
7722 17
7723 38
7724 48
7725 34
7726 11
7727 33
7728 9
7729 14
7730 44
7731 43
7732 10
7733 11
7734 5
7735 37
7736 5
7737 30
7738 20
7739 44
7740 44
7741 15
7742 41
7743 27
7744 47
7745 6
7746 9
7747 0
7748 37
7749 24
7750 45
7751 28
7752 42
7753 50
7754 36
7755 26
7756 45
7757 42
7758 22
7759 7
7760 26
7761 16
7762 14
7763 25
7764 17
7765 7
7766 20
7767 42
7768 38
7769 1
7770 4
7771 32
7772 24
7773 6
7774 9
7775 3
7776 20
7777 14
7778 42
7779 45
7780 37
7781 0
7782 23
7783 2
7784 23
7785 14
7786 3
7787 21
7788 7
7789 34
7790 29
7791 31
7792 7
7793 36
7794 37
7795 45
7796 38
7797 4
7798 40
7799 31
7800 22
7801 44
7802 29
7803 40
7804 12
7805 32
7806 10
7807 53
7808 26
7809 11
7810 42
7811 3
7812 48
7813 26
7814 26
7815 9
7816 13
7817 39
7818 5
7819 20
7820 5
7821 4
7822 2
7823 0
7824 4
7825 1
7826 16
7827 26
7828 53
7829 15
7830 52
7831 31
7832 48
7833 11
7834 5
7835 7
7836 14
7837 45
7838 5
7839 20
7840 27
7841 11
7842 28
7843 43
7844 31
7845 43
7846 28
7847 46
7848 47
7849 14
7850 4
7851 56
7852 46
7853 44
7854 46
7855 28
7856 12
7857 32
7858 1
7859 42
7860 42
7861 17
7862 3
7863 33
7864 36
7865 51
7866 16
7867 34
7868 10
7869 22
7870 44
7871 45
7872 34
7873 44
7874 40
7875 5
7876 28
7877 26
7878 38
7879 27
7880 41
7881 50
7882 40
7883 42
7884 34
7885 24
7886 34
7887 18
7888 37
7889 13
7890 47
7891 12
7892 8
7893 45
7894 35
7895 32
7896 51
7897 42
7898 42
7899 53
7900 16
7901 38
7902 29
7903 50
7904 19
7905 31
7906 7
7907 23
7908 41
7909 16
7910 19
7911 35
7912 41
7913 25
7914 11
7915 41
7916 32
7917 50
7918 34
7919 23
7920 36
7921 32
7922 10
7923 31
7924 46
7925 16
7926 32
7927 23
7928 44
7929 42
7930 48
7931 35
7932 22
7933 28
7934 23
7935 30
7936 45
7937 41
7938 6
7939 42
7940 18
7941 44
7942 51
7943 23
7944 5
7945 27
7946 31
7947 37
7948 12
7949 15
7950 46
7951 37
7952 49
7953 50
7954 8
7955 16
7956 20
7957 34
7958 13
7959 50
7960 10
7961 49
7962 0
7963 44
7964 19
7965 46
7966 31
7967 26
7968 15
7969 55
7970 31
7971 45
7972 0
7973 12
7974 42
7975 23
7976 46
7977 37
7978 8
7979 8
7980 51
7981 0
7982 28
7983 22
7984 35
7985 38
7986 46
7987 41
7988 32
7989 10
7990 31
7991 23
7992 46
7993 56
7994 14
7995 9
7996 22
7997 11
7998 14
7999 28
8000 6
8001 49
8002 31
8003 1
8004 2
8005 17
8006 12
8007 14
8008 46
8009 42
8010 16
8011 1
8012 44
8013 11
8014 9
8015 29
8016 14
8017 24
8018 33
8019 35
8020 31
8021 42
8022 28
8023 17
8024 23
8025 34
8026 2
8027 29
8028 6
8029 8
8030 43
8031 37
8032 37
8033 42
8034 52
8035 27
8036 7
8037 46
8038 44
8039 28
8040 26
8041 46
8042 48
8043 8
8044 28
8045 50
8046 5
8047 27
8048 3
8049 17
8050 36
8051 42
8052 35
8053 26
8054 42
8055 18
8056 11
8057 21
8058 5
8059 39
8060 48
8061 31
8062 48
8063 45
8064 46
8065 6
8066 21
8067 53
8068 16
8069 51
8070 54
8071 38
8072 31
8073 42
8074 31
8075 31
8076 45
8077 5
8078 5
8079 17
8080 22
8081 19
8082 46
8083 4
8084 41
8085 26
8086 1
8087 20
8088 11
8089 22
8090 12
8091 11
8092 20
8093 7
8094 5
8095 51
8096 7
8097 47
8098 11
8099 27
8100 14
8101 7
8102 29
8103 5
8104 31
8105 46
8106 46
8107 16
8108 22
8109 24
8110 42
8111 53
8112 22
8113 30
8114 38
8115 53
8116 21
8117 22
8118 31
8119 5
8120 40
8121 31
8122 2
8123 22
8124 13
8125 5
8126 30
8127 54
8128 55
8129 11
8130 23
8131 35
8132 36
8133 16
8134 24
8135 6
8136 28
8137 45
8138 0
8139 8
8140 12
8141 7
8142 42
8143 30
8144 42
8145 47
8146 48
8147 35
8148 27
8149 14
8150 35
8151 46
8152 40
8153 12
8154 2
8155 55
8156 15
8157 32
8158 38
8159 11
8160 37
8161 11
8162 14
8163 32
8164 11
8165 56
8166 44
8167 36
8168 41
8169 7
8170 8
8171 12
8172 31
8173 28
8174 30
8175 49
8176 14
8177 20
8178 11
8179 11
8180 5
8181 28
8182 22
8183 34
8184 6
8185 46
8186 42
8187 31
8188 23
8189 23
8190 42
8191 47
8192 5
8193 35
8194 23
8195 5
8196 20
8197 38
8198 9
8199 23
8200 46
8201 28
8202 11
8203 2
8204 39
8205 42
8206 48
8207 26
8208 11
8209 21
8210 7
8211 31
8212 10
8213 24
8214 15
8215 7
8216 22
8217 7
8218 32
8219 27
8220 9
8221 52
8222 53
8223 26
8224 37
8225 37
8226 45
8227 23
8228 51
8229 31
8230 36
8231 38
8232 21
8233 48
8234 18
8235 46
8236 4
8237 22
8238 53
8239 14
8240 32
8241 51
8242 49
8243 2
8244 10
8245 3
8246 2
8247 12
8248 41
8249 26
8250 54
8251 26
8252 28
8253 54
8254 29
8255 38
8256 34
8257 31
8258 55
8259 17
8260 15
8261 4
8262 4
8263 36
8264 42
8265 11
8266 42
8267 0
8268 53
8269 16
8270 32
8271 21
8272 36
8273 34
8274 23
8275 1
8276 42
8277 19
8278 4
8279 49
8280 2
8281 8
8282 32
8283 44
8284 15
8285 46
8286 23
8287 46
8288 4
8289 12
8290 10
8291 5
8292 30
8293 42
8294 47
8295 11
8296 47
8297 28
8298 10
8299 21
8300 31
8301 22
8302 40
8303 31
8304 21
8305 14
8306 56
8307 4
8308 48
8309 17
8310 52
8311 1
8312 33
8313 28
8314 19
8315 33
8316 32
8317 45
8318 10
8319 53
8320 47
8321 23
8322 18
8323 42
8324 30
8325 8
8326 35
8327 8
8328 41
8329 38
8330 10
8331 17
8332 5
8333 17
8334 10
8335 30
8336 55
8337 19
8338 10
8339 32
8340 13
8341 49
8342 46
8343 30
8344 24
8345 23
8346 7
8347 2
8348 3
8349 48
8350 19
8351 25
8352 19
8353 56
8354 23
8355 50
8356 46
8357 51
8358 50
8359 34
8360 28
8361 6
8362 29
8363 14
8364 46
8365 13
8366 14
8367 10
8368 36
8369 5
8370 47
8371 23
8372 11
8373 30
8374 21
8375 54
8376 1
8377 7
8378 38
8379 22
8380 42
8381 0
8382 0
8383 4
8384 22
8385 37
8386 37
8387 5
8388 22
8389 47
8390 4
8391 11
8392 27
8393 14
8394 22
8395 23
8396 16
8397 4
8398 2
8399 1
8400 46
8401 26
8402 54
8403 14
8404 42
8405 20
8406 22
8407 15
8408 14
8409 14
8410 1
8411 22
8412 6
8413 10
8414 45
8415 21
8416 30
8417 20
8418 31
8419 49
8420 12
8421 29
8422 55
8423 17
8424 4
8425 20
8426 34
8427 37
8428 50
8429 32
8430 31
8431 44
8432 7
8433 21
8434 14
8435 16
8436 18
8437 4
8438 31
8439 30
8440 30
8441 46
8442 38
8443 50
8444 16
8445 25
8446 15
8447 36
8448 22
8449 36
8450 14
8451 46
8452 29
8453 30
8454 38
8455 36
8456 51
8457 11
8458 18
8459 39
8460 41
8461 14
8462 21
8463 50
8464 14
8465 19
8466 29
8467 14
8468 46
8469 0
8470 43
8471 32
8472 23
8473 32
8474 12
8475 40
8476 13
8477 4
8478 2
8479 34
8480 40
8481 11
8482 11
8483 16
8484 7
8485 30
8486 22
8487 30
8488 7
8489 24
8490 2
8491 49
8492 49
8493 20
8494 32
8495 56
8496 5
8497 16
8498 21
8499 38
8500 43
8501 52
8502 16
8503 19
8504 42
8505 10
8506 52
8507 5
8508 23
8509 14
8510 37
8511 0
8512 12
8513 14
8514 28
8515 22
8516 26
8517 42
8518 8
8519 4
8520 31
8521 22
8522 11
8523 48
8524 16
8525 43
8526 27
8527 53
8528 15
8529 5
8530 11
8531 35
8532 4
8533 41
8534 11
8535 7
8536 15
8537 6
8538 10
8539 2
8540 11
8541 53
8542 31
8543 36
8544 45
8545 55
8546 35
8547 35
8548 3
8549 39
8550 4
8551 52
8552 40
8553 24
8554 46
8555 42
8556 41
8557 45
8558 4
8559 17
8560 6
8561 32
8562 6
8563 28
8564 24
8565 24
8566 53
8567 22
8568 36
8569 31
8570 21
8571 45
8572 34
8573 23
8574 38
8575 46
8576 36
8577 24
8578 34
8579 4
8580 38
8581 26
8582 45
8583 5
8584 2
8585 28
8586 53
8587 54
8588 5
8589 12
8590 5
8591 14
8592 14
8593 22
8594 46
8595 13
8596 20
8597 31
8598 4
8599 39
8600 12
8601 22
8602 28
8603 26
8604 5
8605 36
8606 42
8607 22
8608 21
8609 48
8610 39
8611 8
8612 48
8613 23
8614 23
8615 26
8616 3
8617 34
8618 22
8619 45
8620 53
8621 18
8622 2
8623 26
8624 17
8625 4
8626 46
8627 11
8628 42
8629 20
8630 44
8631 19
8632 10
8633 7
8634 14
8635 2
8636 17
8637 35
8638 29
8639 46
8640 22
8641 17
8642 31
8643 8
8644 9
8645 50
8646 34
8647 48
8648 10
8649 47
8650 51
8651 33
8652 3
8653 28
8654 20
8655 30
8656 48
8657 38
8658 14
8659 42
8660 32
8661 21
8662 49
8663 13
8664 13
8665 50
8666 4
8667 12
8668 51
8669 3
8670 17
8671 11
8672 43
8673 32
8674 0
8675 2
8676 14
8677 41
8678 46
8679 10
8680 7
8681 44
8682 20
8683 26
8684 35
8685 14
8686 0
8687 7
8688 54
8689 17
8690 7
8691 31
8692 30
8693 35
8694 50
8695 40
8696 44
8697 29
8698 4
8699 32
8700 28
8701 5
8702 40
8703 21
8704 26
8705 15
8706 10
8707 30
8708 56
8709 45
8710 51
8711 7
8712 30
8713 35
8714 24
8715 45
8716 37
8717 21
8718 28
8719 23
8720 28
8721 23
8722 2
8723 26
8724 30
8725 22
8726 25
8727 17
8728 7
8729 15
8730 9
8731 19
8732 11
8733 21
8734 44
8735 14
8736 48
8737 8
8738 12
8739 37
8740 14
8741 37
8742 37
8743 3
8744 21
8745 14
8746 55
8747 23
8748 48
8749 48
8750 22
8751 14
8752 36
8753 4
8754 32
8755 36
8756 33
8757 30
8758 6
8759 28
8760 36
8761 38
8762 11
8763 21
8764 23
8765 40
8766 26
8767 4
8768 33
8769 7
8770 18
8771 21
8772 21
8773 50
8774 8
8775 55
8776 48
8777 26
8778 30
8779 31
8780 13
8781 6
8782 56
8783 8
8784 11
8785 22
8786 11
8787 25
8788 10
8789 26
8790 22
8791 2
8792 37
8793 22
8794 14
8795 17
8796 17
8797 46
8798 54
8799 44
8800 39
8801 32
8802 12
8803 12
8804 34
8805 32
8806 10
8807 23
8808 41
8809 9
8810 9
8811 8
8812 46
8813 11
8814 2
8815 46
8816 47
8817 14
8818 36
8819 46
8820 38
8821 46
8822 7
8823 14
8824 16
8825 44
8826 11
8827 22
8828 10
8829 25
8830 25
8831 0
8832 3
8833 23
8834 22
8835 28
8836 19
8837 25
8838 44
8839 30
8840 21
8841 0
8842 10
8843 36
8844 10
8845 13
8846 22
8847 4
8848 16
8849 19
8850 50
8851 35
8852 44
8853 35
8854 19
8855 34
8856 54
8857 5
8858 40
8859 39
8860 12
8861 47
8862 38
8863 34
8864 47
8865 21
8866 38
8867 53
8868 28
8869 41
8870 11
8871 26
8872 10
8873 46
8874 26
8875 31
8876 21
8877 23
8878 11
8879 22
8880 5
8881 15
8882 32
8883 45
8884 19
8885 54
8886 22
8887 9
8888 23
8889 41
8890 40
8891 44
8892 12
8893 40
8894 32
8895 50
8896 30
8897 27
8898 42
8899 22
8900 46
8901 2
8902 12
8903 7
8904 23
8905 56
8906 40
8907 11
8908 15
8909 52
8910 31
8911 45
8912 2
8913 55
8914 30
8915 22
8916 48
8917 11
8918 20
8919 38
8920 49
8921 23
8922 27
8923 46
8924 5
8925 29
8926 40
8927 8
8928 5
8929 3
8930 44
8931 20
8932 29
8933 42
8934 31
8935 25
8936 9
8937 46
8938 32
8939 43
8940 5
8941 35
8942 2
8943 25
8944 51
8945 56
8946 46
8947 34
8948 11
8949 3
8950 49
8951 38
8952 11
8953 12
8954 2
8955 28
8956 2
8957 36
8958 25
8959 0
8960 23
8961 14
8962 16
8963 50
8964 46
8965 46
8966 24
8967 15
8968 37
8969 15
8970 9
8971 28
8972 41
8973 48
8974 49
8975 19
8976 7
8977 21
8978 5
8979 46
8980 53
8981 11
8982 13
8983 32
8984 30
8985 50
8986 47
8987 11
8988 5
8989 2
8990 44
8991 46
8992 2
8993 49
8994 28
8995 35
8996 11
8997 0
8998 26
8999 31
9000 0
9001 12
9002 54
9003 30
9004 11
9005 20
9006 16
9007 9
9008 30
9009 15
9010 21
9011 3
9012 25
9013 16
9014 53
9015 43
9016 27
9017 37
9018 51
9019 28
9020 52
9021 2
9022 37
9023 1
9024 46
9025 11
9026 37
9027 3
9028 2
9029 5
9030 2
9031 26
9032 0
9033 3
9034 47
9035 14
9036 0
9037 11
9038 28
9039 25
9040 2
9041 42
9042 24
9043 28
9044 39
9045 47
9046 30
9047 14
9048 2
9049 53
9050 50
9051 49
9052 10
9053 40
9054 5
9055 15
9056 51
9057 40
9058 20
9059 7
9060 27
9061 19
9062 14
9063 28
9064 23
9065 12
9066 2
9067 21
9068 4
9069 8
9070 23
9071 5
9072 21
9073 29
9074 44
9075 42
9076 3
9077 46
9078 14
9079 32
9080 52
9081 4
9082 12
9083 42
9084 4
9085 53
9086 43
9087 31
9088 46
9089 8
9090 10
9091 15
9092 12
9093 15
9094 31
9095 7
9096 47
9097 23
9098 44
9099 43
9100 11
9101 14
9102 14
9103 14
9104 11
9105 21
9106 0
9107 30
9108 18
9109 47
9110 50
9111 7
9112 50
9113 21
9114 27
9115 6
9116 19
9117 7
9118 40
9119 14
9120 42
9121 3
9122 40
9123 46
9124 14
9125 7
9126 46
9127 37
9128 47
9129 0
9130 5
9131 35
9132 35
9133 36
9134 33
9135 8
9136 3
9137 44
9138 10
9139 8
9140 42
9141 7
9142 27
9143 28
9144 34
9145 7
9146 7
9147 9
9148 29
9149 12
9150 35
9151 52
9152 2
9153 11
9154 43
9155 35
9156 24
9157 25
9158 4
9159 4
9160 15
9161 21
9162 42
9163 11
9164 52
9165 4
9166 3
9167 2
9168 34
9169 21
9170 14
9171 26
9172 11
9173 11
9174 7
9175 17
9176 15
9177 7
9178 21
9179 38
9180 36
9181 50
9182 15
9183 41
9184 23
9185 7
9186 5
9187 35
9188 11
9189 38
9190 7
9191 17
9192 30
9193 23
9194 10
9195 21
9196 18
9197 32
9198 27
9199 7
9200 53
9201 3
9202 45
9203 46
9204 29
9205 27
9206 45
9207 3
9208 30
9209 31
9210 48
9211 26
9212 11
9213 23
9214 31
9215 39
9216 55
9217 48
9218 3
9219 2
9220 27
9221 14
9222 54
9223 7
9224 23
9225 22
9226 53
9227 51
9228 55
9229 7
9230 26
9231 7
9232 46
9233 21
9234 31
9235 26
9236 23
9237 11
9238 21
9239 41
9240 35
9241 16
9242 31
9243 7
9244 31
9245 3
9246 34
9247 16
9248 2
9249 32
9250 29
9251 53
9252 7
9253 47
9254 52
9255 11
9256 35
9257 30
9258 30
9259 2
9260 30
9261 21
9262 21
9263 34
9264 51
9265 7
9266 13
9267 18
9268 33
9269 5
9270 46
9271 31
9272 4
9273 41
9274 51
9275 37
9276 14
9277 28
9278 36
9279 49
9280 22
9281 20
9282 11
9283 56
9284 30
9285 30
9286 11
9287 40
9288 46
9289 36
9290 7
9291 12
9292 48
9293 9
9294 25
9295 4
9296 50
9297 37
9298 41
9299 7
9300 29
9301 21
9302 16
9303 18
9304 52
9305 42
9306 21
9307 2
9308 50
9309 10
9310 37
9311 51
9312 51
9313 49
9314 35
9315 24
9316 52
9317 29
9318 10
9319 11
9320 45
9321 31
9322 42
9323 22
9324 4
9325 23
9326 12
9327 30
9328 46
9329 53
9330 53
9331 17
9332 20
9333 30
9334 38
9335 46
9336 44
9337 0
9338 36
9339 21
9340 7
9341 26
9342 28
9343 46
9344 56
9345 15
9346 31
9347 46
9348 11
9349 2
9350 46
9351 34
9352 23
9353 31
9354 44
9355 21
9356 21
9357 42
9358 36
9359 43
9360 38
9361 42
9362 5
9363 35
9364 7
9365 31
9366 46
9367 14
9368 21
9369 32
9370 53
9371 14
9372 38
9373 0
9374 30
9375 2
9376 14
9377 18
9378 23
9379 21
9380 2
9381 3
9382 11
9383 0
9384 34
9385 44
9386 18
9387 30
9388 29
9389 49
9390 11
9391 10
9392 50
9393 45
9394 15
9395 29
9396 14
9397 45
9398 36
9399 27
9400 15
9401 14
9402 38
9403 24
9404 48
9405 49
9406 26
9407 14
9408 10
9409 21
9410 40
9411 23
9412 13
9413 3
9414 21
9415 9
9416 34
9417 51
9418 0
9419 16
9420 22
9421 53
9422 46
9423 47
9424 32
9425 11
9426 32
9427 2
9428 46
9429 31
9430 31
9431 24
9432 8
9433 55
9434 29
9435 49
9436 35
9437 41
9438 48
9439 22
9440 35
9441 16
9442 8
9443 6
9444 30
9445 11
9446 26
9447 26
9448 34
9449 48
9450 6
9451 43
9452 47
9453 18
9454 50
9455 5
9456 4
9457 50
9458 10
9459 38
9460 7
9461 38
9462 24
9463 42
9464 11
9465 21
9466 6
9467 46
9468 3
9469 50
9470 11
9471 25
9472 10
9473 2
9474 14
9475 32
9476 12
9477 9
9478 45
9479 54
9480 30
9481 11
9482 15
9483 11
9484 40
9485 30
9486 49
9487 42
9488 7
9489 53
9490 34
9491 27
9492 3
9493 15
9494 0
9495 28
9496 22
9497 22
9498 27
9499 1
9500 50
9501 0
9502 34
9503 10
9504 15
9505 53
9506 32
9507 45
9508 36
9509 37
9510 22
9511 47
9512 26
9513 22
9514 11
9515 43
9516 40
9517 12
9518 22
9519 15
9520 34
9521 4
9522 24
9523 8
9524 41
9525 10
9526 8
9527 1
9528 10
9529 45
9530 49
9531 23
9532 8
9533 15
9534 42
9535 21
9536 13
9537 24
9538 33
9539 5
9540 9
9541 7
9542 16
9543 17
9544 40
9545 11
9546 21
9547 18
9548 2
9549 19
9550 24
9551 12
9552 14
9553 47
9554 27
9555 45
9556 13
9557 36
9558 48
9559 22
9560 42
9561 41
9562 45
9563 37
9564 16
9565 15
9566 7
9567 21
9568 36
9569 36
9570 11
9571 10
9572 17
9573 2
9574 41
9575 11
9576 14
9577 30
9578 50
9579 53
9580 44
9581 56
9582 12
9583 13
9584 28
9585 11
9586 4
9587 4
9588 30
9589 52
9590 2
9591 10
9592 50
9593 17
9594 11
9595 44
9596 44
9597 54
9598 5
9599 35
9600 10
9601 21
9602 56
9603 48
9604 6
9605 30
9606 37
9607 42
9608 23
9609 22
9610 7
9611 44
9612 51
9613 3
9614 14
9615 5
9616 20
9617 31
9618 24
9619 34
9620 39
9621 12
9622 32
9623 11
9624 22
9625 14
9626 48
9627 2
9628 5
9629 27
9630 28
9631 0
9632 41
9633 29
9634 2
9635 12
9636 18
9637 48
9638 45
9639 38
9640 35
9641 30
9642 55
9643 54
9644 7
9645 54
9646 5
9647 19
9648 32
9649 3
9650 21
9651 23
9652 14
9653 7
9654 33
9655 5
9656 46
9657 31
9658 21
9659 7
9660 21
9661 4
9662 22
9663 31
9664 51
9665 16
9666 22
9667 2
9668 41
9669 28
9670 32
9671 3
9672 38
9673 36
9674 17
9675 18
9676 7
9677 56
9678 11
9679 14
9680 28
9681 2
9682 46
9683 50
9684 12
9685 47
9686 36
9687 46
9688 28
9689 0
9690 11
9691 23
9692 7
9693 9
9694 42
9695 28
9696 5
9697 28
9698 23
9699 42
9700 51
9701 11
9702 35
9703 27
9704 26
9705 12
9706 4
9707 21
9708 21
9709 44
9710 10
9711 34
9712 56
9713 35
9714 45
9715 23
9716 45
9717 38
9718 32
9719 10
9720 2
9721 12
9722 32
9723 54
9724 10
9725 31
9726 1
9727 3
9728 11
9729 40
9730 37
9731 40
9732 35
9733 7
9734 4
9735 22
9736 0
9737 40
9738 24
9739 46
9740 44
9741 54
9742 47
9743 53
9744 17
9745 39
9746 40
9747 34
9748 21
9749 31
9750 0
9751 10
9752 27
9753 24
9754 42
9755 34
9756 8
9757 53
9758 26
9759 46
9760 41
9761 2
9762 42
9763 26
9764 24
9765 4
9766 50
9767 12
9768 7
9769 24
9770 14
9771 21
9772 18
9773 34
9774 40
9775 16
9776 14
9777 18
9778 14
9779 22
9780 10
9781 14
9782 29
9783 33
9784 50
9785 36
9786 23
9787 18
9788 27
9789 26
9790 44
9791 40
9792 11
9793 42
9794 49
9795 22
9796 13
9797 23
9798 24
9799 28
9800 31
9801 25
9802 9
9803 1
9804 17
9805 4
9806 49
9807 38
9808 22
9809 41
9810 39
9811 12
9812 22
9813 42
9814 19
9815 15
9816 46
9817 4
9818 50
9819 27
9820 22
9821 42
9822 5
9823 2
9824 29
9825 8
9826 31
9827 11
9828 42
9829 15
9830 46
9831 19
9832 20
9833 3
9834 27
9835 28
9836 50
9837 34
9838 11
9839 14
9840 26
9841 16
9842 25
9843 49
9844 46
9845 14
9846 5
9847 25
9848 5
9849 7
9850 45
9851 10
9852 4
9853 1
9854 34
9855 12
9856 26
9857 41
9858 22
9859 20
9860 4
9861 14
9862 48
9863 21
9864 12
9865 29
9866 31
9867 2
9868 31
9869 37
9870 30
9871 8
9872 4
9873 27
9874 16
9875 0
9876 44
9877 34
9878 15
9879 1
9880 5
9881 45
9882 29
9883 2
9884 24
9885 21
9886 50
9887 50
9888 11
9889 17
9890 3
9891 3
9892 27
9893 22
9894 17
9895 32
9896 44
9897 49
9898 17
9899 21
9900 12
9901 31
9902 39
9903 46
9904 30
9905 22
9906 44
9907 23
9908 29
9909 3
9910 23
9911 44
9912 4
9913 30
9914 23
9915 9
9916 37
9917 2
9918 50
9919 46
9920 47
9921 34
9922 3
9923 2
9924 43
9925 3
9926 15
9927 53
9928 42
9929 32
9930 2
9931 8
9932 44
9933 32
9934 36
9935 45
9936 10
9937 38
9938 7
9939 13
9940 27
9941 4
9942 38
9943 31
9944 17
9945 21
9946 16
9947 11
9948 7
9949 4
9950 14
9951 28
9952 19
9953 22
9954 55
9955 16
9956 35
9957 3
9958 9
9959 5
9960 14
9961 21
9962 41
9963 44
9964 3
9965 11
9966 53
9967 15
9968 23
9969 4
9970 26
9971 23
9972 52
9973 14
9974 37
9975 21
9976 11
9977 20
9978 20
9979 28
9980 6
9981 11
9982 28
9983 30
9984 25
9985 47
9986 41
9987 14
9988 22
9989 7
9990 21
9991 11
9992 4
9993 0
9994 27
9995 26
9996 40
9997 11
9998 46
9999 9
