0 0
1 1
2 2
3 3
4 3
5 4
6 5
7 6
8 7
9 8
10 9
11 10
12 11
13 4
14 11
15 12
16 11
17 11
18 13
19 1
20 4
21 4
22 7
23 11
24 14
25 15
26 7
27 16
28 11
29 7
30 7
31 17
32 18
33 19
34 15
35 20
36 21
37 4
38 22
39 23
40 24
41 1
42 24
43 25
44 26
45 27
46 27
47 26
48 1
49 28
50 1
51 29
52 30
53 7
54 1
55 7
56 18
57 27
58 31
59 11
60 32
61 33
62 33
63 2
64 11
65 7
66 7
67 3
68 7
69 33
70 3
71 7
72 34
73 26
74 6
75 3
76 3
77 35
78 1
79 1
80 3
81 28
82 36
83 37
84 38
85 39
86 24
87 40
88 28
89 24
90 27
91 41
92 7
93 11
94 15
95 12
96 24
97 7
98 7
99 11
100 28
101 4
102 33
103 28
104 4
105 7
106 27
107 18
108 42
109 27
110 27
111 4
112 1
113 4
114 43
115 27
116 44
117 40
118 1
119 0
120 7
121 7
122 45
123 40
124 15
125 46
126 27
127 47
128 48
129 7
130 28
131 7
132 6
133 4
134 49
135 44
136 11
137 4
138 2
139 50
140 40
141 44
142 51
143 6
144 40
145 6
146 4
147 4
148 52
149 6
150 27
151 37
152 4
153 46
154 2
155 7
156 6
157 3
158 15
159 44
160 7
161 4
162 40
163 12
164 7
165 33
166 24
167 53
168 24
169 1
170 1
171 33
172 54
173 5
174 55
175 56
176 57
177 24
178 28
179 7
180 58
181 5
182 7
183 4
184 59
185 11
186 6
187 7
188 19
189 60
190 15
191 56
192 61
193 35
194 7
195 33
196 62
197 11
198 15
199 2
200 18
201 63
202 28
203 7
204 18
205 24
206 64
207 5
208 6
209 33
210 65
211 66
212 6
213 1
214 15
215 40
216 11
217 7
218 33
219 0
220 40
221 40
222 67
223 4
224 28
225 7
226 12
227 12
228 12
229 26
230 7
231 56
232 15
233 68
234 63
235 28
236 69
237 11
238 64
239 17
240 19
241 4
242 1
243 6
244 28
245 70
246 27
247 3
248 56
249 11
250 1
251 40
252 6
253 0
254 4
255 56
256 71
257 12
258 72
259 73
260 74
261 4
262 5
263 2
264 26
265 6
266 3
267 2
268 2
269 5
270 19
271 40
272 17
273 4
274 46
275 5
276 11
277 3
278 75
279 6
280 76
281 54
282 77
283 78
284 11
285 74
286 79
287 6
288 12
289 11
290 7
291 5
292 40
293 28
294 7
295 0
296 28
297 26
298 7
299 2
300 33
301 40
302 11
303 6
304 24
305 28
306 56
307 80
308 6
309 24
310 5
311 28
312 28
313 33
314 46
315 1
316 1
317 24
318 11
319 24
320 40
321 24
322 6
323 1
324 81
325 27
326 19
327 82
328 4
329 28
330 83
331 4
332 28
333 28
334 24
335 5
336 3
337 74
338 84
339 28
340 85
341 35
342 53
343 86
344 5
345 11
346 5
347 87
348 6
349 15
350 30
351 18
352 7
353 7
354 4
355 1
356 56
357 56
358 27
359 27
360 26
361 46
362 19
363 88
364 27
365 3
366 35
367 4
368 6
369 33
370 4
371 33
372 74
373 35
374 89
375 11
376 4
377 4
378 18
379 12
380 90
381 91
382 3
383 7
384 24
385 92
386 7
387 40
388 40
389 11
390 27
391 15
392 18
393 93
394 4
395 1
396 6
397 19
398 3
399 46
400 11
401 33
402 94
403 4
404 95
405 11
406 74
407 15
408 4
409 5
410 11
411 18
412 35
413 7
414 27
415 96
416 4
417 6
418 24
419 97
420 40
421 40
422 1
423 11
424 98
425 1
426 40
427 6
428 7
429 99
430 24
431 24
432 1
433 3
434 27
435 4
436 12
437 3
438 91
439 4
440 100
441 3
442 101
443 28
444 102
445 1
446 28
447 18
448 4
449 5
450 11
451 5
452 7
453 2
454 33
455 103
456 7
457 19
458 27
459 7
460 12
461 1
462 15
463 0
464 3
465 7
466 11
467 5
468 104
469 46
470 40
471 24
472 56
473 19
474 3
475 7
476 2
477 4
478 27
479 24
480 7
481 105
482 106
483 107
484 24
485 12
486 40
487 31
488 44
489 108
490 15
491 109
492 4
493 56
494 110
495 111
496 112
497 24
498 4
499 3
500 6
501 24
502 5
503 24
504 33
505 74
506 44
507 74
508 6
509 113
510 114
511 115
512 28
513 5
514 46
515 19
516 116
517 5
518 2
519 4
520 12
521 0
522 4
523 27
524 12
525 17
526 33
527 5
528 15
529 0
530 28
531 0
532 4
533 11
534 46
535 4
536 7
537 0
538 11
539 11
540 117
541 118
542 35
543 2
544 119
545 32
546 27
547 35
548 35
549 35
550 3
551 120
552 4
553 7
554 121
555 5
556 18
557 3
558 81
559 4
560 11
561 6
562 24
563 35
564 27
565 24
566 7
567 24
568 35
569 49
570 26
571 4
572 33
573 122
574 46
575 11
576 40
577 6
578 27
579 4
580 15
581 56
582 123
583 56
584 11
585 40
586 46
587 40
588 124
589 40
590 125
591 126
592 33
593 27
594 46
595 127
596 4
597 33
598 2
599 33
600 63
601 4
602 46
603 4
604 35
605 128
606 28
607 18
608 46
609 40
610 11
611 129
612 0
613 7
614 2
615 24
616 4
617 5
618 5
619 1
620 2
621 24
622 27
623 40
624 24
625 0
626 34
627 15
628 4
629 40
630 24
631 56
632 3
633 25
634 24
635 3
636 3
637 46
638 46
639 130
640 24
641 40
642 4
643 3
644 56
645 131
646 35
647 4
648 132
649 33
650 11
651 1
652 15
653 27
654 7
655 7
656 11
657 56
658 24
659 11
660 133
661 69
662 64
663 11
664 11
665 134
666 3
667 135
668 136
669 4
670 2
671 27
672 44
673 0
674 7
675 33
676 4
677 24
678 46
679 24
680 4
681 4
682 137
683 33
684 4
685 138
686 15
687 24
688 139
689 24
690 15
691 40
692 140
693 141
694 5
695 27
696 0
697 5
698 4
699 1
700 12
701 24
702 11
703 7
704 15
705 49
706 4
707 24
708 142
709 143
710 144
711 145
712 146
713 7
714 4
715 28
716 147
717 40
718 0
719 28
720 7
721 148
722 1
723 28
724 54
725 3
726 28
727 26
728 149
729 35
730 1
731 18
732 33
733 150
734 132
735 1
736 2
737 40
738 4
739 18
740 45
741 151
742 0
743 11
744 152
745 153
746 154
747 24
748 40
749 56
750 4
751 30
752 27
753 28
754 56
755 7
756 33
757 3
758 27
759 33
760 3
761 33
762 11
763 28
764 115
765 27
766 46
767 33
768 24
769 40
770 4
771 40
772 6
773 0
774 24
775 11
776 4
777 28
778 26
779 46
780 40
781 132
782 40
783 27
784 0
785 11
786 7
787 47
788 18
789 24
790 35
791 155
792 156
793 3
794 4
795 35
796 157
797 1
798 1
799 28
800 26
801 2
802 27
803 158
804 26
805 136
806 159
807 35
808 46
809 4
810 7
811 160
812 11
813 95
814 56
815 40
816 40
817 18
818 2
819 2
820 4
821 4
822 24
823 6
824 7
825 18
826 161
827 4
828 24
829 162
830 27
831 28
832 33
833 56
834 40
835 56
836 40
837 1
838 4
839 31
840 0
841 56
842 56
843 163
844 141
845 11
846 4
847 54
848 1
849 7
850 96
851 2
852 4
853 7
854 24
855 5
856 3
857 0
858 11
859 27
860 0
861 0
862 4
863 24
864 27
865 5
866 18
867 5
868 35
869 141
870 3
871 17
872 1
873 90
874 35
875 164
876 27
877 24
878 165
879 24
880 166
881 74
882 4
883 167
884 22
885 7
886 11
887 115
888 2
889 1
890 4
891 7
892 27
893 6
894 168
895 74
896 56
897 28
898 124
899 3
900 2
901 11
902 24
903 46
904 11
905 40
906 3
907 6
908 19
909 4
910 11
911 28
912 1
913 3
914 7
915 56
916 169
917 5
918 4
919 15
920 170
921 4
922 2
923 6
924 82
925 46
926 4
927 24
928 12
929 46
930 26
931 63
932 171
933 54
934 27
935 17
936 172
937 17
938 173
939 3
940 40
941 11
942 7
943 34
944 3
945 11
946 11
947 56
948 2
949 74
950 7
951 27
952 63
953 4
954 35
955 7
956 35
957 2
958 174
959 11
960 7
961 44
962 33
963 82
964 24
965 12
966 28
967 19
968 25
969 7
970 6
971 27
972 4
973 7
974 0
975 3
976 25
977 4
978 3
979 56
980 27
981 175
982 176
983 177
984 28
985 0
986 178
987 2
988 24
989 12
990 26
991 27
992 27
993 15
994 46
995 28
996 28
997 179
998 2
999 0
1000 180
1001 181
1002 182
1003 181
1004 182
1005 183
1006 184
1007 185
1008 186
1009 183
1010 187
1011 188
1012 186
1013 180
1014 188
1015 185
1016 189
1017 190
1018 180
1019 181
1020 189
1021 191
1022 182
1023 187
1024 186
1025 181
1026 182
1027 192
1028 189
1029 187
1030 190
1031 193
1032 189
1033 186
1034 183
1035 182
1036 184
1037 189
1038 181
1039 187
1040 185
1041 193
1042 190
1043 193
1044 181
1045 187
1046 189
1047 191
1048 189
1049 193
1050 187
1051 190
1052 192
1053 192
1054 191
1055 190
1056 181
1057 187
1058 191
1059 182
1060 183
1061 191
1062 189
1063 193
1064 193
1065 189
1066 182
1067 193
1068 185
1069 184
1070 183
1071 192
1072 190
1073 186
1074 191
1075 184
1076 182
1077 192
1078 180
1079 184
1080 186
1081 191
1082 180
1083 190
1084 184
1085 184
1086 187
1087 192
1088 186
1089 184
1090 184
1091 180
1092 191
1093 187
1094 180
1095 190
1096 184
1097 183
1098 183
1099 191
1100 191
1101 189
1102 186
1103 183
1104 185
1105 183
1106 185
1107 190
1108 189
1109 180
1110 183
1111 181
1112 191
1113 192
1114 186
1115 191
1116 180
1117 193
1118 186
1119 183
1120 182
1121 184
1122 193
1123 183
1124 190
1125 190
1126 180
1127 180
1128 189
1129 193
1130 182
1131 191
1132 185
1133 182
1134 189
1135 186
1136 184
1137 187
1138 191
1139 182
1140 187
1141 193
1142 191
1143 189
1144 182
1145 181
1146 189
1147 190
1148 193
1149 181
1150 186
1151 192
1152 193
1153 182
1154 190
1155 185
1156 190
1157 182
1158 187
1159 187
1160 182
1161 187
1162 182
1163 188
1164 184
1165 184
1166 180
1167 184
1168 183
1169 193
1170 181
1171 188
1172 180
1173 183
1174 185
1175 181
1176 182
1177 190
1178 186
1179 180
1180 182
1181 182
1182 187
1183 182
1184 184
1185 190
1186 191
1187 182
1188 187
1189 189
1190 190
1191 184
1192 183
1193 193
1194 181
1195 185
1196 187
1197 189
1198 191
1199 188
1200 183
1201 184
1202 185
1203 192
1204 180
1205 182
1206 188
1207 187
1208 192
1209 181
1210 183
1211 185
1212 182
1213 192
1214 181
1215 191
1216 183
1217 182
1218 181
1219 184
1220 189
1221 185
1222 182
1223 190
1224 188
1225 181
1226 184
1227 192
1228 192
1229 189
1230 188
1231 189
1232 193
1233 189
1234 183
1235 186
1236 192
1237 187
1238 181
1239 188
1240 188
1241 180
1242 186
1243 190
1244 191
1245 193
1246 190
1247 188
1248 184
1249 188
1250 180
1251 183
1252 191
1253 192
1254 190
1255 184
1256 191
1257 181
1258 181
1259 193
1260 191
1261 193
1262 188
1263 187
1264 192
1265 191
1266 187
1267 193
1268 191
1269 193
1270 188
1271 192
1272 181
1273 190
1274 184
1275 192
1276 193
1277 189
1278 188
1279 188
1280 184
1281 186
1282 193
1283 188
1284 193
1285 193
1286 187
1287 188
1288 190
1289 181
1290 188
1291 189
1292 189
1293 188
1294 181
1295 187
1296 188
1297 190
1298 191
1299 182
1300 182
1301 191
1302 185
1303 191
1304 188
1305 188
1306 184
1307 193
1308 180
1309 193
1310 190
1311 181
1312 188
1313 189
1314 187
1315 193
1316 193
1317 193
1318 193
1319 181
1320 188
1321 190
1322 193
1323 193
1324 192
1325 189
1326 188
1327 191
1328 185
1329 186
1330 184
1331 191
1332 185
1333 184
1334 187
1335 184
1336 185
1337 187
1338 190
1339 184
1340 185
1341 187
1342 181
1343 190
1344 186
1345 183
1346 183
1347 187
1348 189
1349 192
1350 192
1351 193
1352 188
1353 192
1354 185
1355 185
1356 185
1357 184
1358 184
1359 184
1360 183
1361 180
1362 190
1363 191
1364 185
1365 181
1366 181
1367 186
1368 185
1369 190
1370 188
1371 182
1372 191
1373 191
1374 191
1375 181
1376 183
1377 192
1378 184
1379 189
1380 183
1381 184
1382 186
1383 187
1384 187
1385 190
1386 187
1387 182
1388 187
1389 187
1390 191
1391 188
1392 187
1393 187
1394 190
1395 188
1396 190
1397 187
1398 193
1399 186
1400 188
1401 188
1402 189
1403 187
1404 190
1405 188
1406 190
1407 181
1408 189
1409 191
1410 193
1411 191
1412 185
1413 183
1414 183
1415 181
1416 183
1417 189
1418 190
1419 184
1420 183
1421 183
1422 187
1423 190
1424 190
1425 185
1426 185
1427 181
1428 191
1429 181
1430 181
1431 187
1432 180
1433 191
1434 189
1435 185
1436 183
1437 180
1438 184
1439 188
1440 182
1441 193
1442 190
1443 190
1444 188
1445 180
1446 186
1447 182
1448 189
1449 188
1450 191
1451 192
1452 181
1453 184
1454 185
1455 188
1456 193
1457 193
1458 191
1459 193
1460 191
1461 191
1462 181
1463 186
1464 189
1465 181
1466 190
1467 191
1468 186
1469 191
1470 186
1471 181
1472 187
1473 190
1474 182
1475 188
1476 183
1477 181
1478 182
1479 190
1480 188
1481 181
1482 193
1483 183
1484 190
1485 185
1486 182
1487 182
1488 183
1489 191
1490 192
1491 182
1492 185
1493 182
1494 185
1495 190
1496 187
1497 183
1498 192
1499 180
1500 189
1501 185
1502 190
1503 184
1504 185
1505 185
1506 180
1507 192
1508 181
1509 181
1510 185
1511 193
1512 185
1513 184
1514 189
1515 186
1516 188
1517 188
1518 180
1519 188
1520 191
1521 191
1522 188
1523 186
1524 189
1525 190
1526 191
1527 187
1528 185
1529 191
1530 191
1531 188
1532 191
1533 188
1534 189
1535 183
1536 182
1537 187
1538 189
1539 189
1540 189
1541 191
1542 187
1543 188
1544 191
1545 189
1546 193
1547 185
1548 190
1549 185
1550 182
1551 189
1552 184
1553 184
1554 189
1555 193
1556 185
1557 182
1558 189
1559 187
1560 191
1561 193
1562 184
1563 189
1564 184
1565 190
1566 190
1567 180
1568 189
1569 193
1570 193
1571 183
1572 180
1573 182
1574 193
1575 190
1576 189
1577 193
1578 191
1579 185
1580 192
1581 183
1582 186
1583 185
1584 190
1585 193
1586 183
1587 185
1588 186
1589 193
1590 184
1591 185
1592 193
1593 186
1594 192
1595 184
1596 193
1597 193
1598 193
1599 189
1600 180
1601 187
1602 184
1603 192
1604 180
1605 187
1606 188
1607 189
1608 192
1609 180
1610 186
1611 186
1612 191
1613 189
1614 193
1615 189
1616 190
1617 180
1618 191
1619 191
1620 180
1621 180
1622 190
1623 185
1624 180
1625 189
1626 183
1627 180
1628 189
1629 193
1630 183
1631 189
1632 187
1633 187
1634 187
1635 180
1636 185
1637 192
1638 191
1639 184
1640 193
1641 191
1642 191
1643 187
1644 190
1645 193
1646 184
1647 184
1648 186
1649 187
1650 193
1651 184
1652 189
1653 184
1654 187
1655 190
1656 193
1657 181
1658 181
1659 189
1660 186
1661 187
1662 181
1663 187
1664 193
1665 184
1666 191
1667 188
1668 189
1669 187
1670 190
1671 181
1672 184
1673 183
1674 190
1675 185
1676 184
1677 189
1678 190
1679 193
1680 193
1681 183
1682 183
1683 185
1684 180
1685 188
1686 188
1687 189
1688 191
1689 181
1690 180
1691 188
1692 193
1693 190
1694 188
1695 182
1696 187
1697 188
1698 193
1699 183
1700 193
1701 191
1702 188
1703 190
1704 185
1705 186
1706 183
1707 193
1708 184
1709 190
1710 187
1711 192
1712 190
1713 187
1714 193
1715 192
1716 192
1717 189
1718 188
1719 186
1720 189
1721 185
1722 185
1723 182
1724 186
1725 188
1726 182
1727 192
1728 181
1729 186
1730 190
1731 190
1732 183
1733 187
1734 188
1735 186
1736 185
1737 182
1738 190
1739 181
1740 189
1741 190
1742 181
1743 182
1744 191
1745 191
1746 180
1747 183
1748 189
1749 189
1750 192
1751 182
1752 187
1753 180
1754 193
1755 191
1756 181
1757 180
1758 191
1759 190
1760 184
1761 187
1762 184
1763 191
1764 182
1765 183
1766 180
1767 180
1768 193
1769 189
1770 181
1771 193
1772 189
1773 192
1774 191
1775 193
1776 191
1777 191
1778 192
1779 188
1780 193
1781 188
1782 193
1783 189
1784 187
1785 189
1786 187
1787 181
1788 193
1789 191
1790 187
1791 191
1792 191
1793 181
1794 190
1795 181
1796 191
1797 187
1798 188
1799 193
1800 193
1801 185
1802 193
1803 182
1804 187
1805 185
1806 193
1807 187
1808 184
1809 190
1810 188
1811 189
1812 181
1813 191
1814 188
1815 190
1816 184
1817 189
1818 185
1819 185
1820 187
1821 190
1822 181
1823 185
1824 185
1825 184
1826 193
1827 188
1828 183
1829 193
1830 190
1831 183
1832 180
1833 187
1834 189
1835 190
1836 193
1837 190
1838 187
1839 180
1840 186
1841 181
1842 188
1843 186
1844 193
1845 193
1846 186
1847 187
1848 187
1849 180
1850 180
1851 180
1852 187
1853 184
1854 190
1855 190
1856 181
1857 189
1858 183
1859 180
1860 183
1861 185
1862 180
1863 193
1864 193
1865 187
1866 193
1867 193
1868 188
1869 180
1870 181
1871 193
1872 192
1873 181
1874 184
1875 184
1876 181
1877 188
1878 190
1879 189
1880 183
1881 187
1882 192
1883 190
1884 189
1885 183
1886 190
1887 180
1888 186
1889 189
1890 181
1891 192
1892 181
1893 186
1894 189
1895 184
1896 190
1897 187
1898 193
1899 193
1900 187
1901 182
1902 191
1903 189
1904 181
1905 191
1906 181
1907 189
1908 190
1909 193
1910 189
1911 191
1912 193
1913 181
1914 190
1915 187
1916 182
1917 184
1918 184
1919 189
1920 190
1921 184
1922 187
1923 191
1924 188
1925 183
1926 184
1927 187
1928 185
1929 189
1930 181
1931 191
1932 180
1933 185
1934 191
1935 191
1936 185
1937 191
1938 189
1939 187
1940 180
1941 184
1942 190
1943 181
1944 181
1945 187
1946 184
1947 183
1948 188
1949 190
1950 186
1951 180
1952 182
1953 191
1954 191
1955 188
1956 180
1957 191
1958 189
1959 191
1960 191
1961 190
1962 187
1963 182
1964 182
1965 186
1966 189
1967 193
1968 189
1969 180
1970 187
1971 183
1972 187
1973 181
1974 189
1975 189
1976 187
1977 183
1978 190
1979 181
1980 185
1981 183
1982 190
1983 186
1984 191
1985 192
1986 183
1987 192
1988 190
1989 180
1990 181
1991 193
1992 182
1993 184
1994 180
1995 183
1996 188
1997 181
1998 182
1999 188
