0 0
1 1
2 2
3 3
4 4
5 5
6 6
7 7
8 8
9 9
10 8
11 10
12 11
13 0
14 12
15 13
16 14
17 15
18 16
19 17
20 18
21 8
22 19
23 20
24 21
25 5
26 22
27 23
28 24
29 25
30 6
31 26
32 27
33 28
34 16
35 29
36 30
37 13
38 0
39 30
40 31
41 32
42 33
43 34
44 5
45 35
46 36
47 37
48 21
49 27
50 38
51 39
52 11
53 40
54 0
55 41
56 42
57 43
58 44
59 0
60 45
61 46
62 33
63 47
64 48
65 20
66 3
67 49
68 50
69 51
70 52
71 53
72 39
73 4
74 11
75 54
76 55
77 40
78 56
79 30
80 57
81 34
82 51
83 51
84 58
85 59
86 55
87 60
88 61
89 2
90 33
91 49
92 37
93 62
94 63
95 41
96 13
97 62
98 64
99 29
100 65
101 45
102 66
103 66
104 23
105 20
106 67
107 2
108 45
109 64
110 21
111 68
112 57
113 12
114 61
115 65
116 0
117 45
118 67
119 49
120 34
121 49
122 49
123 69
124 70
125 71
126 72
127 5
128 66
129 68
130 19
131 23
132 50
133 31
134 56
135 73
136 6
137 74
138 16
139 35
140 75
141 75
142 71
143 11
144 5
145 76
146 11
147 13
148 77
149 67
150 54
151 78
152 79
153 23
154 36
155 74
156 16
157 24
158 24
159 80
160 14
161 81
162 13
163 18
164 80
165 56
166 82
167 83
168 73
169 84
170 41
171 30
172 85
173 80
174 86
175 87
176 10
177 23
178 83
179 14
180 17
181 13
182 29
183 39
184 88
185 11
186 68
187 67
188 75
189 89
190 48
191 14
192 64
193 11
194 67
195 81
196 41
197 80
198 78
199 90
200 76
201 84
202 45
203 23
204 77
205 41
206 91
207 6
208 10
209 92
210 66
211 85
212 85
213 31
214 93
215 92
216 41
217 94
218 29
219 82
220 77
221 93
222 24
223 77
224 27
225 23
226 28
227 92
228 26
229 26
230 95
231 96
232 62
233 1
234 71
235 28
236 97
237 28
238 76
239 33
240 96
241 87
242 76
243 82
244 70
245 24
246 60
247 98
248 45
249 65
250 60
251 99
252 48
253 85
254 98
255 76
256 11
257 64
258 13
259 45
260 31
261 53
262 45
263 23
264 2
265 100
266 21
267 58
268 101
269 93
270 87
271 92
272 73
273 32
274 23
275 85
276 101
277 21
278 96
279 96
280 102
281 17
282 56
283 89
284 18
285 70
286 70
287 101
288 70
289 84
290 85
291 49
292 53
293 64
294 103
295 50
296 11
297 76
298 58
299 53
300 26
301 66
302 47
303 53
304 87
305 17
306 45
307 4
308 17
309 90
310 10
311 69
312 71
313 92
314 14
315 93
316 22
317 104
318 37
319 18
320 45
321 102
322 14
323 42
324 64
325 85
326 72
327 68
328 105
329 58
330 61
331 87
332 101
333 41
334 5
335 45
336 21
337 11
338 20
339 71
340 61
341 59
342 50
343 18
344 54
345 50
346 57
347 16
348 34
349 101
350 11
351 56
352 50
353 36
354 92
355 72
356 18
357 43
358 53
359 81
360 21
361 50
362 68
363 55
364 18
365 76
366 31
367 21
368 101
369 52
370 106
371 99
372 14
373 99
374 22
375 106
376 58
377 107
378 92
379 92
380 45
381 53
382 61
383 57
384 107
385 53
386 17
387 101
388 58
389 103
390 19
391 92
392 108
393 87
394 6
395 39
396 56
397 53
398 57
399 66
400 93
401 17
402 97
403 109
404 34
405 110
406 53
407 45
408 111
409 29
410 87
411 50
412 74
413 35
414 101
415 32
416 32
417 33
418 18
419 50
420 32
421 1
422 17
423 84
424 92
425 14
426 11
427 6
428 104
429 94
430 93
431 76
432 94
433 71
434 73
435 1
436 94
437 32
438 22
439 66
440 81
441 71
442 90
443 50
444 90
445 104
446 66
447 71
448 62
449 102
450 102
451 13
452 4
453 66
454 87
455 93
456 107
457 0
458 36
459 6
460 71
461 21
462 11
463 92
464 16
465 15
466 59
467 94
468 21
469 0
470 13
471 30
472 2
473 80
474 32
475 2
476 49
477 59
478 90
479 93
480 1
481 39
482 43
483 80
484 93
485 66
486 59
487 93
488 11
489 12
490 57
491 2
492 59
493 67
494 112
495 22
496 66
497 107
498 67
499 92
500 17
501 49
502 74
503 22
504 101
505 2
506 94
507 50
508 64
509 11
510 2
511 68
512 4
513 11
514 76
515 88
516 13
517 50
518 45
519 50
520 80
521 32
522 11
523 90
524 50
525 2
526 85
527 60
528 11
529 48
530 74
531 90
532 103
533 87
534 36
535 27
536 30
537 45
538 102
539 27
540 92
541 27
542 44
543 41
544 6
545 10
546 0
547 66
548 80
549 38
550 83
551 17
552 66
553 73
554 66
555 12
556 112
557 2
558 45
559 27
560 2
561 90
562 48
563 51
564 2
565 99
566 49
567 51
568 60
569 32
570 51
571 28
572 31
573 11
574 109
575 92
576 33
577 94
578 113
579 58
580 55
581 101
582 22
583 54
584 35
585 107
586 40
587 5
588 84
589 61
590 71
591 2
592 11
593 70
594 60
595 14
596 3
597 45
598 29
599 114
600 92
601 109
602 69
603 100
604 39
605 115
606 45
607 55
608 116
609 59
610 45
611 109
612 94
613 45
614 11
615 41
616 21
617 22
618 17
619 65
620 10
621 50
622 17
623 102
624 56
625 80
626 29
627 21
628 45
629 57
630 28
631 60
632 31
633 90
634 89
635 13
636 117
637 77
638 80
639 11
640 74
641 13
642 50
643 17
644 85
645 42
646 33
647 29
648 14
649 77
650 2
651 103
652 21
653 29
654 50
655 22
656 103
657 101
658 17
659 30
660 11
661 31
662 75
663 16
664 77
665 73
666 117
667 50
668 66
669 50
670 3
671 50
672 57
673 2
674 118
675 21
676 35
677 107
678 59
679 11
680 62
681 48
682 32
683 87
684 1
685 21
686 85
687 77
688 83
689 16
690 2
691 31
692 29
693 90
694 50
695 14
696 13
697 46
698 74
699 75
700 119
701 102
702 45
703 87
704 99
705 45
706 66
707 36
708 14
709 45
710 103
711 0
712 89
713 2
714 107
715 60
716 17
717 92
718 87
719 5
720 45
721 74
722 96
723 2
724 104
725 71
726 20
727 87
728 17
729 12
730 107
731 64
732 26
733 17
734 117
735 1
736 45
737 87
738 2
739 65
740 90
741 107
742 10
743 87
744 62
745 76
746 31
747 5
748 34
749 40
750 0
751 65
752 66
753 59
754 90
755 18
756 34
757 96
758 75
759 2
760 60
761 101
762 90
763 89
764 60
765 34
766 14
767 29
768 60
769 91
770 32
771 1
772 92
773 66
774 90
775 82
776 3
777 5
778 40
779 65
780 12
781 11
782 27
783 92
784 58
785 93
786 107
787 11
788 6
789 17
790 26
791 53
792 60
793 120
794 96
795 10
796 103
797 53
798 26
799 16
800 21
801 53
802 21
803 79
804 22
805 22
806 57
807 2
808 93
809 50
810 90
811 11
812 92
813 5
814 107
815 31
816 27
817 50
818 110
819 93
820 48
821 34
822 77
823 34
824 45
825 71
826 53
827 11
828 19
829 16
830 39
831 92
832 80
833 5
834 24
835 11
836 90
837 121
838 76
839 89
840 54
841 74
842 65
843 29
844 35
845 48
846 66
847 43
848 70
849 4
850 19
851 56
852 33
853 12
854 108
855 26
856 90
857 64
858 118
859 29
860 11
861 42
862 87
863 103
864 60
865 29
866 18
867 90
868 92
869 48
870 108
871 74
872 45
873 16
874 92
875 74
876 90
877 21
878 51
879 45
880 23
881 90
882 4
883 33
884 18
885 2
886 70
887 18
888 93
889 16
890 64
891 110
892 66
893 81
894 60
895 2
896 64
897 50
898 53
899 107
900 11
901 6
902 122
903 24
904 38
905 102
906 45
907 2
908 64
909 53
910 120
911 7
912 57
913 80
914 11
915 107
916 103
917 60
918 47
919 90
920 2
921 27
922 21
923 107
924 88
925 58
926 5
927 55
928 56
929 99
930 109
931 25
932 60
933 80
934 28
935 24
936 21
937 77
938 107
939 5
940 121
941 23
942 5
943 60
944 29
945 5
946 68
947 85
948 11
949 27
950 107
951 34
952 53
953 63
954 62
955 21
956 90
957 92
958 92
959 78
960 17
961 80
962 92
963 49
964 29
965 50
966 80
967 87
968 11
969 74
970 103
971 48
972 99
973 0
974 50
975 11
976 46
977 16
978 5
979 96
980 0
981 64
982 21
983 93
984 50
985 89
986 45
987 21
988 71
989 71
990 26
991 103
992 23
993 27
994 66
995 5
996 90
997 94
998 90
999 11
1000 5
1001 60
1002 28
1003 114
1004 99
1005 73
1006 75
1007 64
1008 76
1009 59
1010 17
1011 96
1012 18
1013 107
1014 6
1015 117
1016 111
1017 50
1018 51
1019 5
1020 71
1021 89
1022 53
1023 82
1024 11
1025 29
1026 98
1027 107
1028 77
1029 11
1030 59
1031 74
1032 64
1033 41
1034 11
1035 89
1036 66
1037 114
1038 23
1039 66
1040 92
1041 19
1042 2
1043 6
1044 0
1045 92
1046 23
1047 23
1048 13
1049 1
1050 45
1051 64
1052 96
1053 40
1054 66
1055 29
1056 58
1057 108
1058 19
1059 57
1060 76
1061 47
1062 118
1063 50
1064 13
1065 59
1066 36
1067 60
1068 11
1069 64
1070 92
1071 57
1072 30
1073 66
1074 18
1075 43
1076 27
1077 67
1078 121
1079 87
1080 11
1081 11
1082 112
1083 23
1084 43
1085 28
1086 104
1087 4
1088 42
1089 46
1090 86
1091 60
1092 22
1093 102
1094 14
1095 41
1096 53
1097 37
1098 21
1099 2
1100 36
1101 42
1102 48
1103 41
1104 80
1105 75
1106 92
1107 23
1108 45
1109 90
1110 54
1111 11
1112 19
1113 74
1114 0
1115 80
1116 48
1117 17
1118 92
1119 22
1120 45
1121 11
1122 92
1123 65
1124 41
1125 56
1126 17
1127 104
1128 64
1129 26
1130 22
1131 34
1132 92
1133 45
1134 31
1135 36
1136 23
1137 5
1138 11
1139 55
1140 80
1141 2
1142 21
1143 26
1144 30
1145 2
1146 60
1147 21
1148 2
1149 96
1150 27
1151 23
1152 6
1153 100
1154 77
1155 92
1156 88
1157 92
1158 80
1159 45
1160 45
1161 49
1162 97
1163 31
1164 2
1165 50
1166 11
1167 85
1168 50
1169 45
1170 27
1171 17
1172 1
1173 32
1174 11
1175 119
1176 14
1177 45
1178 66
1179 16
1180 103
1181 73
1182 61
1183 78
1184 80
1185 11
1186 22
1187 11
1188 16
1189 2
1190 47
1191 29
1192 66
1193 109
1194 16
1195 34
1196 21
1197 26
1198 41
1199 98
1200 17
1201 32
1202 87
1203 78
1204 61
1205 23
1206 85
1207 103
1208 109
1209 89
1210 21
1211 13
1212 85
1213 28
1214 29
1215 46
1216 2
1217 34
1218 89
1219 80
1220 95
1221 93
1222 5
1223 64
1224 4
1225 1
1226 41
1227 71
1228 93
1229 60
1230 87
1231 11
1232 59
1233 18
1234 18
1235 66
1236 17
1237 34
1238 82
1239 73
1240 43
1241 11
1242 4
1243 5
1244 21
1245 18
1246 22
1247 87
1248 28
1249 80
1250 60
1251 92
1252 62
1253 70
1254 10
1255 22
1256 63
1257 77
1258 1
1259 76
1260 93
1261 49
1262 30
1263 77
1264 11
1265 62
1266 5
1267 93
1268 37
1269 27
1270 77
1271 46
1272 5
1273 27
1274 85
1275 45
1276 17
1277 5
1278 5
1279 18
1280 18
1281 20
1282 92
1283 38
1284 60
1285 17
1286 19
1287 48
1288 8
1289 93
1290 18
1291 27
1292 75
1293 37
1294 19
1295 108
1296 103
1297 21
1298 85
1299 101
1300 89
1301 93
1302 60
1303 11
1304 95
1305 90
1306 99
1307 107
1308 76
1309 23
1310 58
1311 45
1312 60
1313 31
1314 33
1315 92
1316 123
1317 33
1318 21
1319 101
1320 70
1321 45
1322 111
1323 28
1324 107
1325 120
1326 17
1327 107
1328 87
1329 92
1330 22
1331 77
1332 26
1333 68
1334 89
1335 21
1336 60
1337 71
1338 5
1339 107
1340 107
1341 82
1342 93
1343 1
1344 107
1345 4
1346 101
1347 120
1348 31
1349 12
1350 77
1351 17
1352 74
1353 2
1354 60
1355 77
1356 64
1357 75
1358 107
1359 11
1360 26
1361 92
1362 26
1363 94
1364 56
1365 74
1366 80
1367 58
1368 92
1369 21
1370 49
1371 77
1372 107
1373 60
1374 16
1375 21
1376 0
1377 35
1378 85
1379 74
1380 107
1381 71
1382 16
1383 21
1384 5
1385 57
1386 50
1387 75
1388 60
1389 101
1390 17
1391 124
1392 11
1393 109
1394 2
1395 26
1396 0
1397 24
1398 55
1399 2
1400 71
1401 53
1402 9
1403 83
1404 11
1405 85
1406 30
1407 60
1408 103
1409 0
1410 96
1411 17
1412 11
1413 88
1414 39
1415 85
1416 50
1417 41
1418 109
1419 24
1420 96
1421 64
1422 26
1423 93
1424 30
1425 18
1426 113
1427 34
1428 54
1429 26
1430 90
1431 90
1432 11
1433 30
1434 101
1435 21
1436 32
1437 94
1438 72
1439 89
1440 0
1441 88
1442 60
1443 28
1444 50
1445 22
1446 21
1447 67
1448 10
1449 5
1450 87
1451 17
1452 74
1453 34
1454 2
1455 101
1456 101
1457 22
1458 52
1459 26
1460 32
1461 64
1462 93
1463 92
1464 53
1465 45
1466 18
1467 88
1468 71
1469 8
1470 21
1471 11
1472 87
1473 32
1474 92
1475 55
1476 32
1477 34
1478 14
1479 5
1480 74
1481 68
1482 77
1483 124
1484 73
1485 34
1486 60
1487 80
1488 11
1489 114
1490 107
1491 21
1492 60
1493 11
1494 14
1495 84
1496 45
1497 90
1498 59
1499 8
1500 11
1501 94
1502 113
1503 101
1504 87
1505 48
1506 7
1507 1
1508 107
1509 2
1510 65
1511 21
1512 74
1513 103
1514 63
1515 34
1516 34
1517 110
1518 90
1519 92
1520 107
1521 22
1522 18
1523 67
1524 74
1525 107
1526 45
1527 1
1528 76
1529 66
1530 17
1531 11
1532 80
1533 85
1534 117
1535 51
1536 33
1537 79
1538 5
1539 18
1540 26
1541 80
1542 27
1543 28
1544 112
1545 80
1546 60
1547 85
1548 92
1549 12
1550 73
1551 41
1552 122
1553 11
1554 57
1555 107
1556 45
1557 94
1558 41
1559 40
1560 2
1561 42
1562 57
1563 42
1564 92
1565 66
1566 85
1567 3
1568 94
1569 0
1570 53
1571 66
1572 107
1573 112
1574 17
1575 82
1576 45
1577 48
1578 45
1579 30
1580 36
1581 92
1582 27
1583 34
1584 27
1585 11
1586 62
1587 5
1588 11
1589 48
1590 60
1591 0
1592 11
1593 34
1594 6
1595 89
1596 80
1597 50
1598 2
1599 11
1600 57
1601 61
1602 60
1603 11
1604 90
1605 22
1606 10
1607 11
1608 18
1609 59
1610 87
1611 92
1612 11
1613 17
1614 91
1615 77
1616 47
1617 5
1618 17
1619 116
1620 30
1621 11
1622 80
1623 11
1624 64
1625 101
1626 80
1627 60
1628 11
1629 5
1630 11
1631 19
1632 65
1633 53
1634 83
1635 59
1636 22
1637 125
1638 10
1639 0
1640 67
1641 56
1642 34
1643 92
1644 18
1645 122
1646 94
1647 11
1648 92
1649 80
1650 42
1651 78
1652 38
1653 5
1654 43
1655 1
1656 60
1657 34
1658 47
1659 30
1660 21
1661 36
1662 115
1663 21
1664 53
1665 5
1666 74
1667 36
1668 89
1669 22
1670 9
1671 61
1672 57
1673 3
1674 77
1675 76
1676 33
1677 50
1678 103
1679 16
1680 20
1681 2
1682 60
1683 34
1684 66
1685 103
1686 11
1687 49
1688 100
1689 22
1690 87
1691 75
1692 3
1693 2
1694 103
1695 30
1696 11
1697 51
1698 17
1699 34
1700 2
1701 51
1702 41
1703 29
1704 66
1705 92
1706 60
1707 66
1708 32
1709 60
1710 92
1711 11
1712 103
1713 50
1714 103
1715 21
1716 49
1717 64
1718 77
1719 12
1720 1
1721 0
1722 17
1723 0
1724 90
1725 2
1726 22
1727 90
1728 21
1729 5
1730 11
1731 37
1732 11
1733 6
1734 64
1735 10
1736 92
1737 103
1738 1
1739 45
1740 34
1741 64
1742 41
1743 80
1744 85
1745 57
1746 45
1747 66
1748 90
1749 66
1750 11
1751 92
1752 82
1753 18
1754 22
1755 1
1756 76
1757 66
1758 93
1759 76
1760 22
1761 60
1762 17
1763 21
1764 103
1765 103
1766 67
1767 76
1768 48
1769 11
1770 1
1771 123
1772 103
1773 27
1774 85
1775 60
1776 16
1777 107
1778 2
1779 92
1780 98
1781 51
1782 18
1783 60
1784 34
1785 38
1786 68
1787 42
1788 107
1789 66
1790 34
1791 64
1792 5
1793 74
1794 53
1795 99
1796 21
1797 77
1798 92
1799 92
1800 29
1801 103
1802 18
1803 107
1804 19
1805 34
1806 94
1807 48
1808 11
1809 73
1810 11
1811 45
1812 2
1813 120
1814 27
1815 14
1816 90
1817 1
1818 12
1819 92
1820 60
1821 93
1822 107
1823 34
1824 66
1825 11
1826 34
1827 33
1828 103
1829 11
1830 18
1831 126
1832 29
1833 77
1834 48
1835 74
1836 90
1837 77
1838 22
1839 34
1840 98
1841 79
1842 26
1843 96
1844 116
1845 29
1846 48
1847 26
1848 2
1849 18
1850 71
1851 92
1852 76
1853 11
1854 60
1855 48
1856 22
1857 33
1858 119
1859 17
1860 7
1861 93
1862 56
1863 22
1864 2
1865 50
1866 112
1867 14
1868 21
1869 2
1870 101
1871 29
1872 16
1873 54
1874 11
1875 90
1876 2
1877 90
1878 11
1879 82
1880 34
1881 17
1882 50
1883 34
1884 15
1885 90
1886 21
1887 11
1888 66
1889 27
1890 101
1891 89
1892 86
1893 21
1894 48
1895 34
1896 3
1897 107
1898 76
1899 62
1900 22
1901 53
1902 53
1903 16
1904 11
1905 34
1906 27
1907 90
1908 16
1909 76
1910 50
1911 31
1912 74
1913 68
1914 35
1915 54
1916 107
1917 123
1918 22
1919 60
1920 92
1921 6
1922 92
1923 29
1924 11
1925 87
1926 45
1927 30
1928 80
1929 106
1930 5
1931 53
1932 87
1933 11
1934 34
1935 29
1936 92
1937 60
1938 107
1939 23
1940 71
1941 22
1942 53
1943 107
1944 74
1945 107
1946 22
1947 22
1948 90
1949 50
1950 101
1951 36
1952 48
1953 28
1954 48
1955 101
1956 107
1957 90
1958 107
1959 17
1960 73
1961 11
1962 64
1963 80
1964 107
1965 21
1966 55
1967 22
1968 64
1969 11
1970 74
1971 92
1972 101
1973 95
1974 34
1975 74
1976 22
1977 121
1978 50
1979 33
1980 107
1981 71
1982 58
1983 74
1984 29
1985 21
1986 48
1987 13
1988 20
1989 21
1990 92
1991 103
1992 92
1993 80
1994 11
1995 1
1996 53
1997 92
1998 27
1999 110
2000 80
2001 13
2002 29
2003 80
2004 11
2005 101
2006 43
2007 59
2008 90
2009 28
2010 78
2011 22
2012 114
2013 64
2014 5
2015 45
2016 11
2017 66
2018 59
2019 50
2020 27
2021 2
2022 13
2023 34
2024 96
2025 5
2026 74
2027 66
2028 50
2029 96
2030 62
2031 11
2032 27
2033 17
2034 11
2035 107
2036 30
2037 2
2038 80
2039 48
2040 11
2041 0
2042 107
2043 17
2044 2
2045 2
2046 51
2047 16
2048 85
2049 11
2050 60
2051 74
2052 0
2053 27
2054 48
2055 90
2056 70
2057 77
2058 87
2059 127
2060 48
2061 42
2062 114
2063 18
2064 87
2065 22
2066 107
2067 89
2068 47
2069 103
2070 11
2071 80
2072 58
2073 68
2074 23
2075 42
2076 40
2077 74
2078 23
2079 99
2080 101
2081 62
2082 13
2083 80
2084 23
2085 18
2086 90
2087 58
2088 80
2089 17
2090 63
2091 41
2092 70
2093 99
2094 48
2095 48
2096 34
2097 71
2098 5
2099 65
2100 83
2101 11
2102 70
2103 28
2104 76
2105 66
2106 75
2107 128
2108 48
2109 66
2110 86
2111 27
2112 29
2113 61
2114 43
2115 56
2116 64
2117 13
2118 13
2119 64
2120 77
2121 54
2122 64
2123 29
2124 102
2125 1
2126 20
2127 34
2128 1
2129 17
2130 64
2131 94
2132 50
2133 110
2134 41
2135 1
2136 35
2137 102
2138 121
2139 123
2140 35
2141 27
2142 29
2143 23
2144 50
2145 39
2146 122
2147 13
2148 106
2149 48
2150 30
2151 33
2152 56
2153 77
2154 45
2155 56
2156 11
2157 108
2158 87
2159 66
2160 36
2161 64
2162 46
2163 93
2164 10
2165 78
2166 35
2167 66
2168 107
2169 0
2170 11
2171 107
2172 36
2173 102
2174 23
2175 41
2176 75
2177 45
2178 11
2179 76
2180 40
2181 75
2182 11
2183 49
2184 35
2185 45
2186 100
2187 123
2188 2
2189 64
2190 107
2191 29
2192 3
2193 48
2194 103
2195 48
2196 87
2197 88
2198 14
2199 89
2200 45
2201 88
2202 16
2203 45
2204 45
2205 20
2206 2
2207 6
2208 89
2209 45
2210 45
2211 126
2212 103
2213 83
2214 86
2215 49
2216 102
2217 43
2218 2
2219 5
2220 67
2221 42
2222 76
2223 45
2224 16
2225 6
2226 75
2227 76
2228 90
2229 60
2230 59
2231 10
2232 80
2233 11
2234 45
2235 89
2236 60
2237 68
2238 105
2239 64
2240 31
2241 104
2242 31
2243 77
2244 46
2245 85
2246 65
2247 59
2248 113
2249 79
2250 16
2251 16
2252 109
2253 58
2254 94
2255 121
2256 43
2257 82
2258 85
2259 103
2260 93
2261 77
2262 92
2263 79
2264 11
2265 18
2266 40
2267 89
2268 118
2269 12
2270 9
2271 61
2272 77
2273 8
2274 14
2275 87
2276 84
2277 48
2278 50
2279 64
2280 91
2281 24
2282 26
2283 84
2284 28
2285 106
2286 92
2287 98
2288 45
2289 102
2290 103
2291 96
2292 2
2293 94
2294 92
2295 45
2296 36
2297 73
2298 112
2299 28
2300 9
2301 26
2302 53
2303 69
2304 94
2305 45
2306 47
2307 62
2308 23
2309 9
2310 3
2311 120
2312 11
2313 24
2314 78
2315 127
2316 21
2317 11
2318 34
2319 64
2320 117
2321 45
2322 70
2323 112
2324 45
2325 112
2326 77
2327 21
2328 30
2329 85
2330 96
2331 34
2332 124
2333 78
2334 26
2335 31
2336 107
2337 125
2338 75
2339 87
2340 68
2341 103
2342 86
2343 30
2344 11
2345 21
2346 11
2347 19
2348 14
2349 18
2350 9
2351 42
2352 103
2353 112
2354 103
2355 61
2356 17
2357 82
2358 22
2359 17
2360 45
2361 33
2362 66
2363 103
2364 93
2365 110
2366 26
2367 4
2368 85
2369 101
2370 32
2371 17
2372 74
2373 54
2374 18
2375 96
2376 44
2377 17
2378 30
2379 14
2380 55
2381 71
2382 50
2383 115
2384 11
2385 87
2386 71
2387 62
2388 11
2389 36
2390 49
2391 92
2392 112
2393 93
2394 22
2395 22
2396 123
2397 22
2398 107
2399 0
2400 91
2401 58
2402 92
2403 57
2404 17
2405 17
2406 122
2407 22
2408 92
2409 51
2410 11
2411 31
2412 22
2413 103
2414 28
2415 64
2416 77
2417 75
2418 11
2419 107
2420 21
2421 65
2422 61
2423 115
2424 6
2425 22
2426 10
2427 54
2428 33
2429 71
2430 107
2431 3
2432 22
2433 11
2434 78
2435 50
2436 112
2437 20
2438 37
2439 76
2440 111
2441 16
2442 111
2443 64
2444 90
2445 0
2446 17
2447 92
2448 53
2449 56
2450 29
2451 0
2452 30
2453 21
2454 18
2455 77
2456 20
2457 85
2458 11
2459 5
2460 45
2461 22
2462 44
2463 11
2464 75
2465 107
2466 32
2467 77
2468 82
2469 16
2470 28
2471 53
2472 94
2473 109
2474 34
2475 1
2476 103
2477 78
2478 33
2479 22
2480 25
2481 105
2482 78
2483 90
2484 60
2485 30
2486 125
2487 24
2488 11
2489 66
2490 107
2491 87
2492 17
2493 90
2494 80
2495 66
2496 24
2497 107
2498 11
2499 21
2500 2
2501 26
2502 20
2503 11
2504 49
2505 107
2506 107
2507 80
2508 56
2509 37
2510 0
2511 88
2512 88
2513 82
2514 11
2515 78
2516 26
2517 77
2518 87
2519 82
2520 66
2521 66
2522 49
2523 22
2524 5
2525 0
2526 50
2527 64
2528 45
2529 7
2530 0
2531 27
2532 6
2533 11
2534 48
2535 50
2536 2
2537 13
2538 2
2539 27
2540 107
2541 9
2542 11
2543 11
2544 78
2545 99
2546 87
2547 74
2548 48
2549 26
2550 66
2551 50
2552 21
2553 52
2554 12
2555 48
2556 2
2557 93
2558 60
2559 41
2560 112
2561 30
2562 82
2563 99
2564 80
2565 26
2566 101
2567 84
2568 57
2569 71
2570 53
2571 66
2572 76
2573 57
2574 123
2575 10
2576 11
2577 77
2578 87
2579 4
2580 101
2581 22
2582 11
2583 40
2584 61
2585 87
2586 48
2587 79
2588 16
2589 90
2590 5
2591 2
2592 48
2593 8
2594 11
2595 2
2596 32
2597 73
2598 28
2599 11
2600 93
2601 70
2602 80
2603 28
2604 0
2605 3
2606 12
2607 48
2608 80
2609 5
2610 81
2611 41
2612 81
2613 29
2614 11
2615 21
2616 17
2617 36
2618 60
2619 13
2620 2
2621 14
2622 57
2623 92
2624 20
2625 51
2626 60
2627 92
2628 71
2629 109
2630 84
2631 49
2632 90
2633 27
2634 41
2635 48
2636 84
2637 27
2638 5
2639 116
2640 60
2641 50
2642 42
2643 49
2644 50
2645 1
2646 102
2647 83
2648 92
2649 59
2650 77
2651 40
2652 5
2653 55
2654 124
2655 48
2656 68
2657 60
2658 1
2659 56
2660 42
2661 2
2662 30
2663 30
2664 87
2665 92
2666 35
2667 103
2668 30
2669 2
2670 67
2671 86
2672 48
2673 101
2674 112
2675 71
2676 123
2677 66
2678 77
2679 29
2680 22
2681 6
2682 11
2683 103
2684 50
2685 24
2686 119
2687 14
2688 18
2689 21
2690 80
2691 21
2692 103
2693 16
2694 60
2695 77
2696 77
2697 128
2698 11
2699 50
2700 36
2701 128
2702 56
2703 11
2704 60
2705 66
2706 50
2707 107
2708 17
2709 64
2710 42
2711 67
2712 56
2713 88
2714 16
2715 57
2716 76
2717 5
2718 92
2719 87
2720 2
2721 55
2722 17
2723 22
2724 45
2725 11
2726 30
2727 89
2728 67
2729 2
2730 85
2731 64
2732 73
2733 87
2734 73
2735 65
2736 14
2737 27
2738 27
2739 17
2740 50
2741 2
2742 41
2743 17
2744 49
2745 92
2746 13
2747 67
2748 28
2749 21
2750 21
2751 22
2752 11
2753 82
2754 17
2755 116
2756 62
2757 50
2758 35
2759 84
2760 14
2761 16
2762 17
2763 50
2764 107
2765 60
2766 66
2767 82
2768 94
2769 45
2770 17
2771 31
2772 103
2773 84
2774 107
2775 65
2776 50
2777 107
2778 50
2779 11
2780 87
2781 90
2782 66
2783 85
2784 107
2785 5
2786 25
2787 91
2788 50
2789 11
2790 103
2791 27
2792 27
2793 58
2794 10
2795 58
2796 64
2797 87
2798 45
2799 20
2800 29
2801 76
2802 53
2803 51
2804 50
2805 101
2806 60
2807 11
2808 11
2809 107
2810 34
2811 60
2812 92
2813 94
2814 50
2815 12
2816 66
2817 101
2818 107
2819 1
2820 107
2821 92
2822 9
2823 14
2824 74
2825 2
2826 107
2827 48
2828 74
2829 76
2830 20
2831 42
2832 94
2833 66
2834 74
2835 21
2836 70
2837 60
2838 107
2839 48
2840 87
2841 47
2842 76
2843 11
2844 2
2845 22
2846 29
2847 74
2848 66
2849 45
2850 44
2851 50
2852 11
2853 87
2854 34
2855 21
2856 60
2857 11
2858 53
2859 64
2860 33
2861 85
2862 5
2863 107
2864 33
2865 30
2866 43
2867 76
2868 93
2869 57
2870 36
2871 36
2872 42
2873 39
2874 74
2875 11
2876 26
2877 63
2878 77
2879 55
2880 74
2881 11
2882 64
2883 45
2884 60
2885 94
2886 11
2887 11
2888 29
2889 60
2890 51
2891 48
2892 74
2893 107
2894 68
2895 60
2896 48
2897 33
2898 17
2899 107
2900 61
2901 66
2902 90
2903 45
2904 5
2905 11
2906 102
2907 6
2908 17
2909 34
2910 66
2911 2
2912 23
2913 71
2914 66
2915 23
2916 18
2917 64
2918 103
2919 22
2920 107
2921 53
2922 2
2923 74
2924 66
2925 90
2926 80
2927 80
2928 45
2929 99
2930 34
2931 54
2932 21
2933 80
2934 90
2935 53
2936 23
2937 50
2938 5
2939 64
2940 90
2941 59
2942 29
2943 34
2944 21
2945 92
2946 93
2947 105
2948 65
2949 11
2950 60
2951 23
2952 64
2953 27
2954 6
2955 17
2956 50
2957 50
2958 17
2959 17
2960 48
2961 23
2962 84
2963 0
2964 94
2965 66
2966 21
2967 80
2968 66
2969 23
2970 85
2971 27
2972 14
2973 27
2974 100
2975 30
2976 21
2977 90
2978 41
2979 124
2980 90
2981 66
2982 11
2983 121
2984 27
2985 2
2986 57
2987 37
2988 29
2989 60
2990 80
2991 17
2992 29
2993 5
2994 60
2995 17
2996 24
2997 5
2998 87
2999 90
3000 48
3001 64
3002 28
3003 2
3004 2
3005 66
3006 21
3007 22
3008 21
3009 58
3010 34
3011 23
3012 64
3013 17
3014 6
3015 101
3016 66
3017 92
3018 5
3019 64
3020 80
3021 54
3022 94
3023 107
3024 11
3025 2
3026 107
3027 64
3028 17
3029 64
3030 68
3031 22
3032 74
3033 37
3034 99
3035 53
3036 48
3037 60
3038 48
3039 94
3040 22
3041 96
3042 2
3043 60
3044 27
3045 21
3046 66
3047 32
3048 49
3049 49
3050 22
3051 23
3052 27
3053 101
3054 107
3055 90
3056 67
3057 90
3058 27
3059 11
3060 17
3061 64
3062 22
3063 60
3064 29
3065 92
3066 76
3067 27
3068 11
3069 51
3070 49
3071 92
3072 73
3073 15
3074 67
3075 8
3076 92
3077 11
3078 50
3079 78
3080 9
3081 41
3082 11
3083 64
3084 49
3085 27
3086 11
3087 30
3088 40
3089 21
3090 92
3091 76
3092 59
3093 11
3094 13
3095 57
3096 11
3097 56
3098 74
3099 41
3100 57
3101 3
3102 13
3103 60
3104 114
3105 17
3106 41
3107 87
3108 92
3109 60
3110 94
3111 112
3112 12
3113 60
3114 74
3115 2
3116 11
3117 60
3118 85
3119 17
3120 11
3121 5
3122 107
3123 23
3124 50
3125 34
3126 5
3127 2
3128 92
3129 45
3130 104
3131 5
3132 11
3133 2
3134 34
3135 27
3136 32
3137 42
3138 44
3139 23
3140 70
3141 45
3142 28
3143 50
3144 39
3145 36
3146 5
3147 53
3148 64
3149 14
3150 75
3151 65
3152 94
3153 102
3154 75
3155 2
3156 77
3157 29
3158 56
3159 60
3160 90
3161 11
3162 36
3163 60
3164 21
3165 66
3166 46
3167 34
3168 41
3169 55
3170 107
3171 6
3172 42
3173 93
3174 34
3175 34
3176 95
3177 22
3178 22
3179 65
3180 22
3181 92
3182 31
3183 80
3184 17
3185 74
3186 21
3187 27
3188 92
3189 29
3190 31
3191 23
3192 58
3193 26
3194 22
3195 11
3196 41
3197 5
3198 91
3199 92
3200 34
3201 123
3202 59
3203 60
3204 9
3205 2
3206 5
3207 30
3208 50
3209 78
3210 99
3211 57
3212 30
3213 16
3214 89
3215 43
3216 11
3217 27
3218 75
3219 48
3220 11
3221 41
3222 44
3223 23
3224 31
3225 22
3226 34
3227 122
3228 66
3229 48
3230 26
3231 21
3232 85
3233 32
3234 31
3235 22
3236 77
3237 65
3238 22
3239 5
3240 32
3241 21
3242 28
3243 92
3244 94
3245 5
3246 54
3247 85
3248 102
3249 12
3250 82
3251 38
3252 11
3253 32
3254 77
3255 22
3256 32
3257 6
3258 2
3259 28
3260 21
3261 73
3262 103
3263 81
3264 29
3265 39
3266 93
3267 76
3268 11
3269 22
3270 16
3271 22
3272 77
3273 37
3274 31
3275 16
3276 11
3277 77
3278 16
3279 103
3280 36
3281 91
3282 2
3283 49
3284 11
3285 75
3286 11
3287 64
3288 103
3289 92
3290 2
3291 34
3292 1
3293 34
3294 34
3295 116
3296 31
3297 50
3298 44
3299 29
3300 17
3301 35
3302 27
3303 85
3304 9
3305 13
3306 34
3307 5
3308 45
3309 14
3310 92
3311 2
3312 123
3313 34
3314 48
3315 5
3316 98
3317 50
3318 64
3319 53
3320 110
3321 34
3322 11
3323 60
3324 89
3325 29
3326 5
3327 101
3328 30
3329 116
3330 16
3331 92
3332 34
3333 82
3334 2
3335 92
3336 11
3337 22
3338 60
3339 60
3340 22
3341 76
3342 99
3343 17
3344 103
3345 2
3346 92
3347 103
3348 34
3349 21
3350 68
3351 87
3352 2
3353 124
3354 21
3355 42
3356 21
3357 29
3358 70
3359 2
3360 126
3361 107
3362 91
3363 2
3364 17
3365 64
3366 60
3367 32
3368 12
3369 25
3370 64
3371 5
3372 60
3373 22
3374 21
3375 66
3376 74
3377 67
3378 113
3379 71
3380 101
3381 34
3382 18
3383 115
3384 92
3385 51
3386 107
3387 127
3388 60
3389 18
3390 85
3391 65
3392 34
3393 34
3394 33
3395 58
3396 50
3397 17
3398 34
3399 56
3400 43
3401 98
3402 114
3403 51
3404 107
3405 104
3406 85
3407 42
3408 107
3409 69
3410 42
3411 92
3412 11
3413 92
3414 70
3415 89
3416 42
3417 21
3418 36
3419 17
3420 50
3421 77
3422 107
3423 85
3424 34
3425 2
3426 70
3427 11
3428 11
3429 104
3430 65
3431 26
3432 2
3433 67
3434 46
3435 80
3436 74
3437 60
3438 107
3439 71
3440 22
3441 91
3442 21
3443 32
3444 2
3445 64
3446 17
3447 6
3448 92
3449 92
3450 45
3451 96
3452 39
3453 17
3454 16
3455 74
3456 34
3457 2
3458 1
3459 21
3460 99
3461 21
3462 56
3463 21
3464 60
3465 103
3466 56
3467 60
3468 60
3469 30
3470 11
3471 45
3472 32
3473 55
3474 66
3475 50
3476 87
3477 27
3478 11
3479 57
3480 90
3481 68
3482 5
3483 7
3484 5
3485 77
3486 66
3487 1
3488 66
3489 21
3490 60
3491 73
3492 54
3493 49
3494 12
3495 92
3496 34
3497 107
3498 21
3499 8
3500 101
3501 65
3502 29
3503 57
3504 82
3505 60
3506 67
3507 3
3508 92
3509 102
3510 17
3511 119
3512 60
3513 21
3514 112
3515 60
3516 34
3517 26
3518 2
3519 2
3520 62
3521 34
3522 92
3523 49
3524 67
3525 18
3526 5
3527 94
3528 33
3529 33
3530 107
3531 5
3532 11
3533 66
3534 5
3535 13
3536 90
3537 92
3538 22
3539 11
3540 34
3541 90
3542 96
3543 21
3544 93
3545 59
3546 34
3547 92
3548 90
3549 34
3550 49
3551 96
3552 40
3553 14
3554 13
3555 74
3556 68
3557 5
3558 50
3559 27
3560 67
3561 5
3562 74
3563 5
3564 11
3565 80
3566 94
3567 66
3568 13
3569 94
3570 66
3571 52
3572 63
3573 11
3574 5
3575 21
3576 16
3577 76
3578 60
3579 46
3580 94
3581 27
3582 27
3583 65
3584 53
3585 19
3586 57
3587 23
3588 90
3589 2
3590 22
3591 27
3592 30
3593 26
3594 41
3595 67
3596 2
3597 112
3598 67
3599 80
3600 76
3601 80
3602 42
3603 45
3604 4
3605 26
3606 92
3607 26
3608 12
3609 74
3610 106
3611 89
3612 2
3613 68
3614 0
3615 66
3616 45
3617 108
3618 53
3619 58
3620 50
3621 101
3622 71
3623 67
3624 30
3625 34
3626 11
3627 85
3628 94
3629 31
3630 45
3631 2
3632 100
3633 16
3634 60
3635 5
3636 68
3637 73
3638 92
3639 16
3640 54
3641 69
3642 58
3643 125
3644 41
3645 39
3646 18
3647 49
3648 74
3649 66
3650 2
3651 59
3652 5
3653 92
3654 2
3655 74
3656 5
3657 67
3658 60
3659 34
3660 5
3661 80
3662 22
3663 22
3664 109
3665 18
3666 39
3667 31
3668 21
3669 57
3670 51
3671 17
3672 11
3673 37
3674 11
3675 5
3676 59
3677 34
3678 11
3679 64
3680 64
3681 11
3682 54
3683 34
3684 58
3685 21
3686 30
3687 2
3688 108
3689 77
3690 90
3691 113
3692 92
3693 64
3694 49
3695 107
3696 5
3697 109
3698 64
3699 74
3700 29
3701 22
3702 36
3703 102
3704 50
3705 43
3706 17
3707 4
3708 5
3709 5
3710 2
3711 92
3712 57
3713 107
3714 107
3715 107
3716 16
3717 43
3718 27
3719 86
3720 2
3721 50
3722 2
3723 13
3724 5
3725 35
3726 33
3727 56
3728 11
3729 77
3730 16
3731 85
3732 17
3733 50
3734 87
3735 113
3736 5
3737 2
3738 60
3739 16
3740 22
3741 30
3742 35
3743 80
3744 75
3745 22
3746 16
3747 55
3748 34
3749 14
3750 22
3751 45
3752 11
3753 101
3754 107
3755 101
3756 2
3757 74
3758 34
3759 50
3760 74
3761 34
3762 1
3763 0
3764 11
3765 60
3766 16
3767 75
3768 107
3769 48
3770 22
3771 76
3772 71
3773 93
3774 32
3775 34
3776 90
3777 92
3778 12
3779 73
3780 89
3781 59
3782 23
3783 68
3784 50
3785 22
3786 22
3787 50
3788 60
3789 16
3790 34
3791 116
3792 87
3793 34
3794 10
3795 74
3796 107
3797 107
3798 50
3799 113
3800 5
3801 11
3802 50
3803 16
3804 73
3805 66
3806 77
3807 66
3808 2
3809 32
3810 11
3811 2
3812 11
3813 92
3814 119
3815 92
3816 107
3817 87
3818 50
3819 92
3820 34
3821 31
3822 50
3823 2
3824 34
3825 2
3826 34
3827 90
3828 64
3829 90
3830 22
3831 6
3832 99
3833 49
3834 11
3835 93
3836 22
3837 11
3838 78
3839 1
3840 40
3841 31
3842 60
3843 45
3844 93
3845 74
3846 82
3847 34
3848 10
3849 50
3850 34
3851 60
3852 38
3853 90
3854 5
3855 48
3856 107
3857 26
3858 11
3859 48
3860 92
3861 11
3862 16
3863 50
3864 11
3865 117
3866 11
3867 74
3868 21
3869 34
3870 17
3871 34
3872 2
3873 66
3874 11
3875 34
3876 23
3877 89
3878 50
3879 5
3880 74
3881 87
3882 48
3883 6
3884 90
3885 28
3886 59
3887 39
3888 11
3889 18
3890 50
3891 29
3892 92
3893 48
3894 18
3895 39
3896 17
3897 21
3898 11
3899 127
3900 22
3901 109
3902 33
3903 36
3904 11
3905 53
3906 29
3907 48
3908 66
3909 103
3910 56
3911 21
3912 103
3913 61
3914 107
3915 50
3916 98
3917 58
3918 66
3919 11
3920 34
3921 107
3922 66
3923 21
3924 34
3925 17
3926 5
3927 11
3928 14
3929 26
3930 11
3931 87
3932 48
3933 29
3934 11
3935 74
3936 27
3937 23
3938 17
3939 16
3940 74
3941 2
3942 71
3943 60
3944 19
3945 50
3946 92
3947 34
3948 27
3949 103
3950 2
3951 11
3952 53
3953 2
3954 21
3955 89
3956 90
3957 90
3958 34
3959 89
3960 66
3961 29
3962 15
3963 50
3964 2
3965 27
3966 48
3967 29
3968 80
3969 103
3970 11
3971 40
3972 9
3973 23
3974 50
3975 50
3976 101
3977 53
3978 29
3979 51
3980 60
3981 48
3982 107
3983 50
3984 22
3985 27
3986 80
3987 90
3988 11
3989 34
3990 66
3991 0
3992 75
3993 66
3994 90
3995 53
3996 66
3997 53
3998 48
3999 5
4000 50
4001 107
4002 3
4003 76
4004 74
4005 92
4006 27
4007 60
4008 45
4009 67
4010 22
4011 58
4012 92
4013 30
4014 90
4015 60
4016 13
4017 45
4018 60
4019 50
4020 30
4021 2
4022 0
4023 10
4024 21
4025 29
4026 5
4027 107
4028 121
4029 50
4030 22
4031 27
4032 34
4033 71
4034 11
4035 48
4036 90
4037 50
4038 23
4039 107
4040 11
4041 62
4042 103
4043 17
4044 37
4045 29
4046 37
4047 92
4048 5
4049 11
4050 60
4051 32
4052 74
4053 2
4054 64
4055 102
4056 74
4057 2
4058 78
4059 22
4060 15
4061 29
4062 23
4063 48
4064 11
4065 22
4066 21
4067 29
4068 22
4069 60
4070 5
4071 18
4072 57
4073 2
4074 48
4075 5
4076 16
4077 11
4078 12
4079 30
4080 11
4081 18
4082 17
4083 27
4084 29
4085 0
4086 21
4087 21
4088 60
4089 16
4090 116
4091 10
4092 45
4093 5
4094 23
4095 76
4096 104
4097 58
4098 0
4099 5
4100 34
4101 33
4102 66
4103 51
4104 11
4105 11
4106 53
4107 51
4108 59
4109 64
4110 72
4111 49
4112 23
4113 75
4114 41
4115 52
4116 11
4117 5
4118 57
4119 67
4120 10
4121 107
4122 53
4123 53
4124 64
4125 11
4126 6
4127 3
4128 76
4129 49
4130 19
4131 11
4132 74
4133 27
4134 67
4135 34
4136 31
4137 29
4138 95
4139 29
4140 5
4141 67
4142 27
4143 52
4144 87
4145 11
4146 11
4147 11
4148 75
4149 29
4150 80
4151 76
4152 75
4153 81
4154 11
4155 30
4156 49
4157 29
4158 27
4159 90
4160 23
4161 109
4162 30
4163 80
4164 74
4165 29
4166 56
4167 93
4168 61
4169 2
4170 92
4171 111
4172 23
4173 77
4174 90
4175 64
4176 13
4177 23
4178 11
4179 90
4180 87
4181 11
4182 45
4183 41
4184 34
4185 30
4186 1
4187 66
4188 77
4189 35
4190 69
4191 11
4192 67
4193 13
4194 11
4195 23
4196 50
4197 126
4198 58
4199 102
4200 75
4201 0
4202 41
4203 67
4204 90
4205 85
4206 102
4207 75
4208 64
4209 59
4210 43
4211 3
4212 11
4213 54
4214 48
4215 80
4216 103
4217 5
4218 106
4219 61
4220 0
4221 35
4222 78
4223 11
4224 11
4225 117
4226 50
4227 43
4228 45
4229 22
4230 11
4231 5
4232 38
4233 116
4234 29
4235 5
4236 58
4237 29
4238 4
4239 11
4240 127
4241 14
4242 80
4243 109
4244 30
4245 29
4246 66
4247 66
4248 27
4249 66
4250 14
4251 78
4252 66
4253 107
4254 77
4255 38
4256 11
4257 11
4258 57
4259 17
4260 11
4261 30
4262 56
4263 45
4264 11
4265 11
4266 24
4267 76
4268 47
4269 42
4270 71
4271 32
4272 83
4273 82
4274 29
4275 57
4276 103
4277 90
4278 95
4279 127
4280 106
4281 6
4282 73
4283 66
4284 94
4285 73
4286 89
4287 93
4288 33
4289 27
4290 28
4291 27
4292 4
4293 5
4294 57
4295 13
4296 68
4297 16
4298 67
4299 75
4300 66
4301 33
4302 8
4303 87
4304 101
4305 81
4306 125
4307 29
4308 98
4309 16
4310 92
4311 57
4312 123
4313 72
4314 32
4315 93
4316 16
4317 104
4318 77
4319 94
4320 77
4321 31
4322 110
4323 76
4324 93
4325 60
4326 48
4327 87
4328 106
4329 44
4330 62
4331 11
4332 45
4333 98
4334 1
4335 90
4336 101
4337 64
4338 54
4339 11
4340 69
4341 26
4342 121
4343 87
4344 23
4345 53
4346 88
4347 67
4348 78
4349 11
4350 68
4351 61
4352 1
4353 12
4354 27
4355 53
4356 2
4357 92
4358 87
4359 49
4360 5
4361 105
4362 25
4363 8
4364 77
4365 22
4366 76
4367 18
4368 92
4369 29
4370 44
4371 83
4372 102
4373 55
4374 13
4375 64
4376 76
4377 57
4378 48
4379 36
4380 75
4381 58
4382 92
4383 42
4384 21
4385 16
4386 121
4387 47
4388 41
4389 44
4390 89
4391 11
4392 107
4393 35
4394 67
4395 107
4396 45
4397 17
4398 78
4399 80
4400 21
4401 16
4402 92
4403 34
4404 40
4405 89
4406 26
4407 74
4408 11
4409 58
4410 1
4411 34
4412 26
4413 92
4414 51
4415 17
4416 58
4417 123
4418 29
4419 8
4420 105
4421 16
4422 94
4423 92
4424 46
4425 87
4426 23
4427 109
4428 107
4429 87
4430 58
4431 5
4432 56
4433 11
4434 94
4435 80
4436 107
4437 74
4438 22
4439 11
4440 118
4441 22
4442 17
4443 68
4444 77
4445 57
4446 71
4447 23
4448 92
4449 27
4450 74
4451 77
4452 74
4453 41
4454 77
4455 69
4456 76
4457 87
4458 18
4459 57
4460 3
4461 106
4462 11
4463 92
4464 38
4465 94
4466 57
4467 31
4468 45
4469 59
4470 74
4471 75
4472 65
4473 58
4474 39
4475 76
4476 92
4477 92
4478 18
4479 57
4480 70
4481 102
4482 107
4483 35
4484 18
4485 59
4486 103
4487 26
4488 11
4489 74
4490 75
4491 23
4492 90
4493 90
4494 71
4495 92
4496 92
4497 21
4498 63
4499 17
4500 101
4501 96
4502 77
4503 107
4504 33
4505 5
4506 49
4507 36
4508 74
4509 5
4510 45
4511 62
4512 50
4513 5
4514 85
4515 21
4516 23
4517 42
4518 85
4519 21
4520 74
4521 45
4522 111
4523 17
4524 74
4525 93
4526 92
4527 49
4528 106
4529 73
4530 107
4531 21
4532 119
4533 90
4534 122
4535 92
4536 66
4537 24
4538 103
4539 49
4540 98
4541 48
4542 11
4543 74
4544 98
4545 2
4546 48
4547 101
4548 5
4549 5
4550 21
4551 11
4552 22
4553 8
4554 101
4555 22
4556 32
4557 80
4558 17
4559 60
4560 28
4561 10
4562 50
4563 60
4564 96
4565 37
4566 35
4567 91
4568 90
4569 62
4570 92
4571 82
4572 92
4573 13
4574 92
4575 94
4576 5
4577 22
4578 0
4579 48
4580 24
4581 11
4582 22
4583 60
4584 17
4585 92
4586 49
4587 101
4588 107
4589 45
4590 2
4591 90
4592 107
4593 45
4594 107
4595 2
4596 67
4597 26
4598 90
4599 11
4600 22
4601 14
4602 11
4603 11
4604 67
4605 43
4606 68
4607 66
4608 112
4609 75
4610 106
4611 21
4612 21
4613 74
4614 120
4615 66
4616 92
4617 42
4618 128
4619 46
4620 94
4621 82
4622 41
4623 62
4624 49
4625 66
4626 53
4627 87
4628 42
4629 80
4630 29
4631 73
4632 82
4633 11
4634 51
4635 80
4636 11
4637 10
4638 92
4639 87
4640 99
4641 80
4642 87
4643 11
4644 11
4645 71
4646 71
4647 96
4648 92
4649 32
4650 53
4651 0
4652 94
4653 66
4654 27
4655 128
4656 104
4657 74
4658 123
4659 72
4660 17
4661 10
4662 17
4663 71
4664 2
4665 29
4666 60
4667 5
4668 11
4669 11
4670 107
4671 11
4672 29
4673 21
4674 21
4675 101
4676 40
4677 102
4678 27
4679 45
4680 48
4681 29
4682 44
4683 60
4684 11
4685 17
4686 60
4687 47
4688 12
4689 101
4690 59
4691 5
4692 77
4693 51
4694 17
4695 11
4696 90
4697 13
4698 11
4699 96
4700 5
4701 2
4702 66
4703 11
4704 92
4705 80
4706 80
4707 46
4708 77
4709 68
4710 29
4711 15
4712 35
4713 48
4714 119
4715 92
4716 5
4717 53
4718 92
4719 107
4720 9
4721 17
4722 60
4723 21
4724 31
4725 96
4726 2
4727 45
4728 92
4729 29
4730 13
4731 87
4732 107
4733 60
4734 60
4735 6
4736 92
4737 92
4738 80
4739 76
4740 53
4741 93
4742 21
4743 77
4744 64
4745 110
4746 78
4747 99
4748 13
4749 0
4750 22
4751 11
4752 11
4753 72
4754 6
4755 72
4756 5
4757 80
4758 50
4759 124
4760 11
4761 116
4762 87
4763 66
4764 33
4765 5
4766 14
4767 14
4768 102
4769 17
4770 22
4771 59
4772 21
4773 22
4774 5
4775 94
4776 62
4777 66
4778 22
4779 60
4780 60
4781 107
4782 22
4783 107
4784 11
4785 8
4786 87
4787 8
4788 14
4789 87
4790 75
4791 60
4792 103
4793 80
4794 35
4795 66
4796 46
4797 21
4798 21
4799 85
4800 60
4801 2
4802 2
4803 5
4804 87
4805 66
4806 11
4807 74
4808 92
4809 60
4810 50
4811 2
4812 2
4813 49
4814 22
4815 92
4816 60
4817 18
4818 3
4819 21
4820 52
4821 77
4822 91
4823 74
4824 11
4825 17
4826 21
4827 36
4828 26
4829 59
4830 75
4831 107
4832 34
4833 26
4834 66
4835 21
4836 22
4837 107
4838 34
4839 89
4840 90
4841 60
4842 90
4843 56
4844 107
4845 13
4846 17
4847 2
4848 45
4849 56
4850 66
4851 18
4852 21
4853 60
4854 53
4855 45
4856 90
4857 22
4858 60
4859 85
4860 53
4861 29
4862 92
4863 107
4864 96
4865 17
4866 92
4867 17
4868 107
4869 50
4870 92
4871 68
4872 96
4873 48
4874 27
4875 21
4876 2
4877 18
4878 11
4879 92
4880 60
4881 13
4882 26
4883 80
4884 34
4885 49
4886 93
4887 87
4888 2
4889 34
4890 68
4891 112
4892 17
4893 116
4894 74
4895 107
4896 60
4897 92
4898 34
4899 101
4900 87
4901 11
4902 2
4903 16
4904 74
4905 17
4906 90
4907 64
4908 21
4909 68
4910 31
4911 118
4912 68
4913 71
4914 21
4915 75
4916 22
4917 89
4918 33
4919 60
4920 17
4921 92
4922 77
4923 64
4924 64
4925 2
4926 66
4927 45
4928 11
4929 29
4930 39
4931 63
4932 68
4933 21
4934 60
4935 16
4936 90
4937 74
4938 90
4939 35
4940 63
4941 29
4942 107
4943 87
4944 56
4945 64
4946 5
4947 93
4948 82
4949 5
4950 11
4951 60
4952 88
4953 11
4954 110
4955 66
4956 92
4957 31
4958 2
4959 11
4960 25
4961 11
4962 23
4963 25
4964 107
4965 31
4966 109
4967 66
4968 50
4969 48
4970 21
4971 89
4972 107
4973 57
4974 66
4975 29
4976 48
4977 90
4978 17
4979 71
4980 74
4981 33
4982 103
4983 66
4984 66
4985 29
4986 77
4987 27
4988 2
4989 27
4990 44
4991 31
4992 34
4993 113
4994 21
4995 21
4996 23
4997 66
4998 80
4999 80
5000 11
5001 116
5002 2
5003 22
5004 0
5005 80
5006 101
5007 34
5008 50
5009 60
5010 11
5011 77
5012 60
5013 22
5014 80
5015 50
5016 90
5017 74
5018 77
5019 29
5020 116
5021 101
5022 71
5023 23
5024 29
5025 80
5026 90
5027 101
5028 11
5029 17
5030 80
5031 102
5032 21
5033 80
5034 11
5035 12
5036 48
5037 26
5038 17
5039 11
5040 28
5041 60
5042 104
5043 74
5044 64
5045 48
5046 64
5047 1
5048 2
5049 29
5050 64
5051 48
5052 2
5053 72
5054 64
5055 48
5056 11
5057 77
5058 92
5059 23
5060 66
5061 101
5062 74
5063 31
5064 13
5065 4
5066 101
5067 26
5068 22
5069 74
5070 74
5071 107
5072 50
5073 103
5074 48
5075 50
5076 64
5077 81
5078 5
5079 21
5080 34
5081 66
5082 60
5083 29
5084 98
5085 94
5086 5
5087 107
5088 25
5089 121
5090 22
5091 92
5092 29
5093 60
5094 17
5095 2
5096 15
5097 22
5098 29
5099 22
5100 58
5101 11
5102 48
5103 17
5104 65
5105 21
5106 23
5107 90
5108 11
5109 30
5110 74
5111 11
5112 105
5113 107
5114 22
5115 21
5116 35
5117 76
5118 92
5119 33
5120 108
5121 16
5122 53
5123 33
5124 101
5125 85
5126 59
5127 92
5128 93
5129 37
5130 42
5131 2
5132 2
5133 92
5134 19
5135 89
5136 11
5137 11
5138 34
5139 108
5140 92
5141 116
5142 5
5143 11
5144 30
5145 66
5146 107
5147 29
5148 81
5149 11
5150 18
5151 101
5152 27
5153 2
5154 92
5155 24
5156 99
5157 121
5158 34
5159 106
5160 12
5161 19
5162 76
5163 88
5164 11
5165 59
5166 84
5167 93
5168 34
5169 88
5170 66
5171 62
5172 2
5173 60
5174 8
5175 64
5176 29
5177 1
5178 60
5179 2
5180 59
5181 49
5182 23
5183 103
5184 21
5185 2
5186 112
5187 66
5188 59
5189 109
5190 87
5191 27
5192 21
5193 22
5194 5
5195 17
5196 17
5197 21
5198 77
5199 5
5200 60
5201 57
5202 23
5203 112
5204 63
5205 60
5206 23
5207 118
5208 70
5209 34
5210 17
5211 0
5212 35
5213 23
5214 41
5215 0
5216 60
5217 21
5218 74
5219 77
5220 64
5221 112
5222 92
5223 22
5224 59
5225 11
5226 29
5227 77
5228 45
5229 123
5230 11
5231 74
5232 67
5233 60
5234 27
5235 45
5236 17
5237 17
5238 6
5239 21
5240 89
5241 41
5242 24
5243 22
5244 102
5245 23
5246 24
5247 34
5248 34
5249 92
5250 36
5251 27
5252 11
5253 50
5254 73
5255 0
5256 23
5257 79
5258 16
5259 92
5260 2
5261 17
5262 128
5263 90
5264 13
5265 123
5266 49
5267 84
5268 29
5269 11
5270 103
5271 114
5272 60
5273 9
5274 27
5275 92
5276 5
5277 74
5278 31
5279 77
5280 23
5281 103
5282 13
5283 11
5284 34
5285 22
5286 76
5287 51
5288 34
5289 87
5290 114
5291 2
5292 11
5293 89
5294 0
5295 5
5296 21
5297 21
5298 21
5299 17
5300 50
5301 5
5302 76
5303 5
5304 17
5305 88
5306 2
5307 48
5308 92
5309 105
5310 22
5311 44
5312 34
5313 43
5314 81
5315 21
5316 79
5317 31
5318 94
5319 6
5320 34
5321 50
5322 5
5323 17
5324 17
5325 98
5326 50
5327 3
5328 34
5329 77
5330 92
5331 22
5332 87
5333 34
5334 76
5335 2
5336 92
5337 35
5338 89
5339 2
5340 57
5341 60
5342 85
5343 87
5344 34
5345 80
5346 10
5347 93
5348 11
5349 10
5350 11
5351 87
5352 11
5353 73
5354 92
5355 27
5356 11
5357 94
5358 99
5359 76
5360 5
5361 29
5362 32
5363 93
5364 99
5365 103
5366 76
5367 53
5368 18
5369 60
5370 2
5371 60
5372 51
5373 26
5374 94
5375 45
5376 21
5377 21
5378 27
5379 27
5380 92
5381 17
5382 79
5383 82
5384 92
5385 11
5386 21
5387 49
5388 22
5389 22
5390 96
5391 77
5392 22
5393 17
5394 85
5395 40
5396 93
5397 23
5398 72
5399 25
5400 85
5401 2
5402 30
5403 14
5404 92
5405 23
5406 21
5407 23
5408 11
5409 16
5410 99
5411 21
5412 101
5413 87
5414 26
5415 22
5416 17
5417 45
5418 85
5419 60
5420 21
5421 47
5422 74
5423 74
5424 107
5425 17
5426 74
5427 48
5428 5
5429 110
5430 22
5431 60
5432 77
5433 39
5434 53
5435 10
5436 58
5437 22
5438 26
5439 92
5440 60
5441 35
5442 112
5443 113
5444 9
5445 27
5446 102
5447 74
5448 60
5449 68
5450 121
5451 87
5452 20
5453 107
5454 93
5455 12
5456 15
5457 5
5458 107
5459 27
5460 14
5461 14
5462 67
5463 17
5464 17
5465 22
5466 45
5467 109
5468 22
5469 77
5470 58
5471 45
5472 74
5473 21
5474 11
5475 21
5476 40
5477 60
5478 0
5479 57
5480 21
5481 68
5482 93
5483 107
5484 92
5485 70
5486 42
5487 34
5488 50
5489 0
5490 50
5491 60
5492 51
5493 112
5494 87
5495 74
5496 123
5497 109
5498 103
5499 103
5500 38
5501 6
5502 2
5503 55
5504 101
5505 99
5506 122
5507 35
5508 5
5509 88
5510 103
5511 22
5512 92
5513 106
5514 37
5515 29
5516 5
5517 101
5518 32
5519 74
5520 108
5521 92
5522 90
5523 5
5524 11
5525 66
5526 33
5527 90
5528 2
5529 73
5530 74
5531 58
5532 30
5533 107
5534 0
5535 21
5536 50
5537 86
5538 66
5539 61
5540 77
5541 54
5542 74
5543 81
5544 107
5545 78
5546 66
5547 17
5548 0
5549 101
5550 64
5551 28
5552 34
5553 22
5554 30
5555 71
5556 60
5557 34
5558 90
5559 29
5560 39
5561 82
5562 30
5563 58
5564 92
5565 48
5566 22
5567 71
5568 16
5569 67
5570 11
5571 31
5572 11
5573 26
5574 23
5575 4
5576 68
5577 28
5578 85
5579 26
5580 21
5581 68
5582 90
5583 57
5584 48
5585 16
5586 34
5587 34
5588 31
5589 60
5590 50
5591 50
5592 22
5593 74
5594 80
5595 84
5596 17
5597 34
5598 18
5599 66
5600 80
5601 35
5602 21
5603 92
5604 26
5605 0
5606 27
5607 43
5608 2
5609 96
5610 101
5611 50
5612 90
5613 27
5614 73
5615 92
5616 67
5617 74
5618 27
5619 123
5620 53
5621 76
5622 49
5623 45
5624 17
5625 90
5626 107
5627 18
5628 66
5629 48
5630 45
5631 32
5632 34
5633 90
5634 67
5635 30
5636 49
5637 90
5638 75
5639 39
5640 2
5641 5
5642 92
5643 11
5644 22
5645 74
5646 57
5647 42
5648 2
5649 31
5650 5
5651 66
5652 2
5653 19
5654 49
5655 44
5656 45
5657 49
5658 11
5659 3
5660 88
5661 22
5662 112
5663 58
5664 2
5665 42
5666 46
5667 18
5668 70
5669 11
5670 33
5671 104
5672 11
5673 2
5674 59
5675 11
5676 112
5677 92
5678 94
5679 58
5680 92
5681 116
5682 2
5683 11
5684 78
5685 71
5686 78
5687 93
5688 5
5689 92
5690 60
5691 73
5692 9
5693 73
5694 55
5695 21
5696 2
5697 89
5698 49
5699 5
5700 20
5701 68
5702 60
5703 5
5704 29
5705 34
5706 104
5707 5
5708 2
5709 67
5710 92
5711 34
5712 11
5713 18
5714 105
5715 22
5716 11
5717 26
5718 21
5719 28
5720 64
5721 11
5722 80
5723 5
5724 80
5725 5
5726 48
5727 48
5728 71
5729 60
5730 55
5731 36
5732 77
5733 53
5734 64
5735 66
5736 21
5737 2
5738 5
5739 34
5740 45
5741 34
5742 27
5743 26
5744 54
5745 50
5746 2
5747 40
5748 69
5749 109
5750 61
5751 17
5752 11
5753 11
5754 27
5755 75
5756 41
5757 34
5758 92
5759 5
5760 17
5761 103
5762 80
5763 17
5764 2
5765 56
5766 60
5767 48
5768 7
5769 40
5770 107
5771 109
5772 24
5773 45
5774 17
5775 50
5776 50
5777 80
5778 90
5779 5
5780 48
5781 95
5782 48
5783 21
5784 45
5785 16
5786 124
5787 90
5788 2
5789 11
5790 50
5791 14
5792 5
5793 11
5794 99
5795 29
5796 92
5797 31
5798 0
5799 92
5800 65
5801 5
5802 17
5803 107
5804 87
5805 50
5806 32
5807 50
5808 107
5809 66
5810 29
5811 22
5812 71
5813 74
5814 94
5815 22
5816 90
5817 36
5818 107
5819 107
5820 66
5821 90
5822 16
5823 60
5824 11
5825 11
5826 83
5827 13
5828 66
5829 92
5830 60
5831 90
5832 60
5833 48
5834 66
5835 5
5836 103
5837 90
5838 122
5839 17
5840 60
5841 90
5842 29
5843 11
5844 116
5845 103
5846 1
5847 11
5848 17
5849 92
5850 18
5851 75
5852 50
5853 60
5854 22
5855 17
5856 90
5857 45
5858 66
5859 77
5860 103
5861 50
5862 96
5863 62
5864 48
5865 44
5866 50
5867 56
5868 4
5869 75
5870 25
5871 92
5872 34
5873 2
5874 34
5875 93
5876 50
5877 65
5878 34
5879 82
5880 101
5881 29
5882 29
5883 90
5884 34
5885 31
5886 21
5887 31
5888 11
5889 76
5890 103
5891 2
5892 23
5893 50
5894 11
5895 17
5896 17
5897 60
5898 41
5899 50
5900 48
5901 2
5902 6
5903 60
5904 107
5905 74
5906 34
5907 34
5908 48
5909 59
5910 17
5911 50
5912 103
5913 50
5914 5
5915 127
5916 21
5917 90
5918 85
5919 82
5920 115
5921 101
5922 90
5923 27
5924 28
5925 46
5926 31
5927 58
5928 11
5929 26
5930 33
5931 17
5932 22
5933 112
5934 74
5935 22
5936 29
5937 92
5938 11
5939 17
5940 60
5941 33
5942 29
5943 50
5944 11
5945 92
5946 60
5947 55
5948 50
5949 5
5950 23
5951 29
5952 97
5953 11
5954 84
5955 34
5956 5
5957 29
5958 21
5959 64
5960 34
5961 90
5962 90
5963 107
5964 32
5965 103
5966 11
5967 34
5968 92
5969 21
5970 74
5971 25
5972 5
5973 57
5974 33
5975 48
5976 17
5977 66
5978 92
5979 22
5980 27
5981 29
5982 2
5983 48
5984 64
5985 22
5986 34
5987 87
5988 64
5989 89
5990 107
5991 0
5992 48
5993 92
5994 80
5995 22
5996 11
5997 19
5998 0
5999 108
6000 53
6001 66
6002 93
6003 56
6004 50
6005 22
6006 92
6007 23
6008 64
6009 23
6010 77
6011 17
6012 53
6013 2
6014 107
6015 2
6016 90
6017 50
6018 57
6019 17
6020 13
6021 21
6022 0
6023 53
6024 54
6025 80
6026 18
6027 50
6028 60
6029 17
6030 20
6031 66
6032 103
6033 27
6034 27
6035 92
6036 27
6037 75
6038 49
6039 74
6040 92
6041 2
6042 68
6043 11
6044 74
6045 77
6046 60
6047 107
6048 29
6049 60
6050 71
6051 74
6052 107
6053 18
6054 6
6055 103
6056 34
6057 2
6058 64
6059 66
6060 11
6061 92
6062 0
6063 92
6064 87
6065 89
6066 85
6067 26
6068 44
6069 27
6070 52
6071 107
6072 27
6073 10
6074 53
6075 11
6076 34
6077 48
6078 17
6079 84
6080 107
6081 23
6082 85
6083 68
6084 50
6085 34
6086 74
6087 60
6088 5
6089 80
6090 60
6091 2
6092 2
6093 64
6094 67
6095 59
6096 28
6097 6
6098 26
6099 11
6100 50
6101 27
6102 50
6103 66
6104 48
6105 23
6106 60
6107 50
6108 64
6109 21
6110 22
6111 11
6112 11
6113 63
6114 50
6115 22
6116 102
6117 92
6118 88
6119 80
6120 90
6121 59
6122 17
6123 5
6124 92
6125 61
6126 84
6127 29
6128 46
6129 2
6130 84
6131 92
6132 27
6133 5
6134 90
6135 22
6136 27
6137 64
6138 80
6139 87
6140 5
6141 29
6142 34
6143 60
6144 90
6145 34
6146 71
6147 38
6148 11
6149 75
6150 66
6151 11
6152 80
6153 90
6154 71
6155 41
6156 11
6157 27
6158 23
6159 112
6160 76
6161 46
6162 96
6163 40
6164 34
6165 3
6166 95
6167 74
6168 57
6169 73
6170 47
6171 87
6172 60
6173 0
6174 42
6175 93
6176 5
6177 11
6178 80
6179 68
6180 33
6181 46
6182 104
6183 11
6184 84
6185 101
6186 80
6187 96
6188 0
6189 11
6190 88
6191 5
6192 31
6193 16
6194 42
6195 64
6196 5
6197 1
6198 104
6199 11
6200 49
6201 101
6202 13
6203 4
6204 99
6205 0
6206 125
6207 28
6208 96
6209 5
6210 11
6211 80
6212 109
6213 85
6214 40
6215 51
6216 36
6217 38
6218 55
6219 68
6220 74
6221 59
6222 27
6223 103
6224 27
6225 27
6226 80
6227 79
6228 108
6229 58
6230 40
6231 71
6232 30
6233 43
6234 102
6235 85
6236 6
6237 77
6238 55
6239 77
6240 64
6241 41
6242 5
6243 85
6244 33
6245 73
6246 0
6247 46
6248 124
6249 39
6250 56
6251 123
6252 112
6253 57
6254 41
6255 42
6256 31
6257 45
6258 30
6259 97
6260 64
6261 87
6262 76
6263 6
6264 57
6265 49
6266 35
6267 3
6268 56
6269 68
6270 59
6271 60
6272 57
6273 24
6274 49
6275 14
6276 22
6277 31
6278 0
6279 79
6280 77
6281 67
6282 77
6283 86
6284 90
6285 64
6286 55
6287 32
6288 77
6289 103
6290 103
6291 115
6292 70
6293 11
6294 72
6295 16
6296 8
6297 64
6298 9
6299 54
6300 17
6301 95
6302 123
6303 117
6304 11
6305 56
6306 94
6307 94
6308 81
6309 104
6310 35
6311 6
6312 11
6313 27
6314 13
6315 32
6316 109
6317 102
6318 82
6319 5
6320 61
6321 76
6322 63
6323 28
6324 1
6325 89
6326 72
6327 0
6328 19
6329 8
6330 13
6331 18
6332 70
6333 43
6334 31
6335 73
6336 59
6337 66
6338 33
6339 88
6340 85
6341 23
6342 67
6343 78
6344 32
6345 16
6346 9
6347 80
6348 22
6349 15
6350 72
6351 16
6352 92
6353 23
6354 77
6355 92
6356 62
6357 89
6358 5
6359 59
6360 64
6361 18
6362 72
6363 75
6364 56
6365 41
6366 5
6367 65
6368 75
6369 93
6370 11
6371 76
6372 48
6373 24
6374 35
6375 5
6376 49
6377 110
6378 45
6379 92
6380 4
6381 29
6382 64
6383 14
6384 77
6385 89
6386 59
6387 31
6388 112
6389 126
6390 62
6391 56
6392 65
6393 53
6394 45
6395 21
6396 92
6397 1
6398 68
6399 82
6400 54
6401 34
6402 120
6403 17
6404 21
6405 41
6406 65
6407 68
6408 96
6409 56
6410 68
6411 24
6412 87
6413 11
6414 102
6415 53
6416 13
6417 65
6418 73
6419 16
6420 26
6421 22
6422 53
6423 121
6424 18
6425 112
6426 101
6427 6
6428 94
6429 51
6430 22
6431 11
6432 22
6433 45
6434 17
6435 48
6436 92
6437 84
6438 16
6439 11
6440 17
6441 32
6442 71
6443 53
6444 11
6445 21
6446 99
6447 24
6448 94
6449 47
6450 92
6451 44
6452 74
6453 4
6454 33
6455 4
6456 61
6457 28
6458 92
6459 17
6460 53
6461 3
6462 20
6463 21
6464 49
6465 71
6466 21
6467 76
6468 17
6469 36
6470 31
6471 71
6472 39
6473 26
6474 83
6475 73
6476 94
6477 59
6478 96
6479 5
6480 95
6481 23
6482 47
6483 57
6484 53
6485 42
6486 34
6487 47
6488 50
6489 11
6490 87
6491 88
6492 107
6493 36
6494 22
6495 1
6496 107
6497 92
6498 107
6499 58
6500 48
6501 79
6502 51
6503 1
6504 75
6505 71
6506 21
6507 14
6508 74
6509 37
6510 74
6511 101
6512 19
6513 70
6514 21
6515 67
6516 89
6517 24
6518 107
6519 92
6520 53
6521 50
6522 22
6523 120
6524 93
6525 10
6526 22
6527 107
6528 30
6529 89
6530 64
6531 0
6532 48
6533 71
6534 68
6535 7
6536 88
6537 90
6538 84
6539 55
6540 39
6541 22
6542 9
6543 85
6544 11
6545 84
6546 88
6547 29
6548 92
6549 71
6550 74
6551 96
6552 25
6553 31
6554 30
6555 50
6556 85
6557 50
6558 21
6559 99
6560 87
6561 8
6562 50
6563 108
6564 10
6565 107
6566 124
6567 93
6568 22
6569 92
6570 11
6571 22
6572 107
6573 50
6574 103
6575 13
6576 76
6577 90
6578 50
6579 5
6580 74
6581 74
6582 28
6583 21
6584 66
6585 26
6586 87
6587 92
6588 2
6589 17
6590 24
6591 78
6592 5
6593 11
6594 21
6595 11
6596 54
6597 92
6598 58
6599 2
6600 57
6601 120
6602 90
6603 101
6604 107
6605 92
6606 11
6607 92
6608 58
6609 22
6610 5
6611 5
6612 16
6613 90
6614 0
6615 48
6616 50
6617 74
6618 71
6619 13
6620 90
6621 40
6622 21
6623 84
6624 1
6625 102
6626 19
6627 47
6628 110
6629 106
6630 48
6631 43
6632 2
6633 45
6634 92
6635 17
6636 27
6637 17
6638 101
6639 5
6640 5
6641 74
6642 60
6643 2
6644 28
6645 77
6646 49
6647 32
6648 59
6649 11
6650 50
6651 14
6652 68
6653 53
6654 56
6655 75
6656 112
6657 11
6658 85
6659 96
6660 37
6661 75
6662 63
6663 87
6664 92
6665 104
6666 76
6667 19
6668 21
6669 66
6670 126
6671 53
6672 45
6673 11
6674 2
6675 92
6676 92
6677 32
6678 90
6679 0
6680 36
6681 22
6682 92
6683 107
6684 67
6685 60
6686 36
6687 11
6688 51
6689 68
6690 48
6691 2
6692 53
6693 29
6694 46
6695 123
6696 40
6697 79
6698 11
6699 60
6700 23
6701 87
6702 29
6703 0
6704 87
6705 33
6706 52
6707 96
6708 33
6709 13
6710 57
6711 67
6712 110
6713 17
6714 49
6715 43
6716 29
6717 17
6718 79
6719 32
6720 28
6721 54
6722 101
6723 2
6724 17
6725 61
6726 2
6727 90
6728 92
6729 30
6730 91
6731 54
6732 15
6733 80
6734 48
6735 11
6736 17
6737 53
6738 21
6739 109
6740 22
6741 11
6742 21
6743 77
6744 33
6745 64
6746 60
6747 21
6748 5
6749 50
6750 22
6751 29
6752 29
6753 68
6754 2
6755 90
6756 49
6757 22
6758 116
6759 101
6760 17
6761 68
6762 11
6763 45
6764 21
6765 60
6766 2
6767 17
6768 21
6769 92
6770 17
6771 11
6772 49
6773 106
6774 64
6775 50
6776 13
6777 80
6778 18
6779 92
6780 48
6781 108
6782 2
6783 92
6784 55
6785 67
6786 60
6787 57
6788 41
6789 103
6790 60
6791 2
6792 109
6793 92
6794 5
6795 90
6796 50
6797 90
6798 59
6799 31
6800 84
6801 11
6802 103
6803 56
6804 9
6805 46
6806 54
6807 31
6808 64
6809 92
6810 116
6811 92
6812 87
6813 48
6814 42
6815 92
6816 77
6817 87
6818 60
6819 27
6820 14
6821 60
6822 35
6823 92
6824 22
6825 74
6826 31
6827 35
6828 59
6829 32
6830 60
6831 80
6832 2
6833 19
6834 67
6835 31
6836 43
6837 87
6838 11
6839 11
6840 8
6841 92
6842 66
6843 11
6844 16
6845 92
6846 2
6847 48
6848 11
6849 43
6850 77
6851 66
6852 84
6853 2
6854 45
6855 31
6856 77
6857 14
6858 21
6859 23
6860 17
6861 92
6862 74
6863 84
6864 77
6865 11
6866 50
6867 76
6868 68
6869 11
6870 2
6871 73
6872 26
6873 93
6874 93
6875 54
6876 11
6877 62
6878 66
6879 57
6880 61
6881 92
6882 108
6883 22
6884 73
6885 49
6886 50
6887 2
6888 76
6889 87
6890 22
6891 21
6892 80
6893 22
6894 14
6895 74
6896 48
6897 102
6898 74
6899 45
6900 22
6901 45
6902 90
6903 14
6904 87
6905 54
6906 2
6907 76
6908 12
6909 50
6910 66
6911 89
6912 31
6913 50
6914 50
6915 90
6916 34
6917 74
6918 11
6919 87
6920 34
6921 19
6922 52
6923 58
6924 17
6925 90
6926 23
6927 57
6928 82
6929 48
6930 50
6931 11
6932 34
6933 21
6934 60
6935 22
6936 5
6937 114
6938 11
6939 5
6940 64
6941 2
6942 72
6943 11
6944 74
6945 34
6946 13
6947 48
6948 94
6949 11
6950 74
6951 11
6952 94
6953 77
6954 59
6955 66
6956 11
6957 11
6958 29
6959 90
6960 50
6961 67
6962 48
6963 17
6964 74
6965 48
6966 51
6967 21
6968 56
6969 128
6970 92
6971 58
6972 71
6973 22
6974 29
6975 11
6976 53
6977 16
6978 34
6979 66
6980 85
6981 58
6982 45
6983 34
6984 92
6985 90
6986 101
6987 2
6988 87
6989 11
6990 22
6991 104
6992 27
6993 74
6994 48
6995 50
6996 45
6997 60
6998 40
6999 66
7000 64
7001 59
7002 60
7003 17
7004 37
7005 107
7006 99
7007 11
7008 107
7009 5
7010 64
7011 50
7012 57
7013 57
7014 36
7015 115
7016 107
7017 11
7018 34
7019 107
7020 26
7021 10
7022 22
7023 22
7024 93
7025 35
7026 64
7027 11
7028 92
7029 74
7030 74
7031 66
7032 78
7033 57
7034 2
7035 5
7036 11
7037 53
7038 61
7039 5
7040 66
7041 21
7042 80
7043 71
7044 64
7045 26
7046 2
7047 29
7048 29
7049 11
7050 60
7051 50
7052 76
7053 70
7054 27
7055 17
7056 48
7057 48
7058 21
7059 11
7060 2
7061 64
7062 32
7063 5
7064 75
7065 34
7066 11
7067 107
7068 0
7069 55
7070 50
7071 50
7072 71
7073 60
7074 94
7075 11
7076 74
7077 107
7078 22
7079 21
7080 29
7081 87
7082 58
7083 23
7084 60
7085 22
7086 17
7087 16
7088 74
7089 34
7090 34
7091 27
7092 71
7093 10
7094 90
7095 5
7096 101
7097 73
7098 60
7099 29
7100 11
7101 27
7102 13
7103 80
7104 2
7105 5
7106 59
7107 34
7108 34
7109 11
7110 11
7111 60
7112 49
7113 50
7114 60
7115 74
7116 27
7117 2
7118 11
7119 23
7120 107
7121 103
7122 10
7123 34
7124 34
7125 53
7126 64
7127 2
7128 1
7129 71
7130 5
7131 60
7132 2
7133 23
7134 53
7135 29
7136 11
7137 92
7138 116
7139 17
7140 21
7141 82
7142 90
7143 60
7144 93
7145 2
7146 66
7147 64
7148 2
7149 90
7150 22
7151 96
7152 74
7153 23
7154 90
7155 17
7156 67
7157 2
7158 22
7159 22
7160 80
7161 90
7162 22
7163 21
7164 96
7165 30
7166 45
7167 11
7168 27
7169 23
7170 45
7171 76
7172 29
7173 29
7174 83
7175 66
7176 112
7177 64
7178 64
7179 67
7180 121
7181 22
7182 112
7183 23
7184 66
7185 44
7186 50
7187 74
7188 59
7189 72
7190 92
7191 94
7192 26
7193 92
7194 3
7195 60
7196 96
7197 0
7198 2
7199 21
7200 49
7201 13
7202 2
7203 95
7204 92
7205 15
7206 66
7207 45
7208 29
7209 2
7210 127
7211 14
7212 29
7213 34
7214 71
7215 103
7216 85
7217 11
7218 26
7219 23
7220 5
7221 2
7222 17
7223 90
7224 67
7225 17
7226 2
7227 2
7228 92
7229 11
7230 11
7231 74
7232 67
7233 18
7234 29
7235 36
7236 21
7237 112
7238 34
7239 81
7240 107
7241 9
7242 5
7243 50
7244 49
7245 34
7246 42
7247 71
7248 50
7249 61
7250 13
7251 22
7252 101
7253 2
7254 48
7255 94
7256 89
7257 60
7258 11
7259 102
7260 67
7261 76
7262 45
7263 92
7264 2
7265 64
7266 47
7267 92
7268 92
7269 66
7270 34
7271 93
7272 33
7273 60
7274 17
7275 21
7276 77
7277 59
7278 64
7279 42
7280 22
7281 77
7282 90
7283 23
7284 6
7285 27
7286 20
7287 11
7288 92
7289 53
7290 11
7291 36
7292 5
7293 60
7294 21
7295 113
7296 38
7297 90
7298 123
7299 22
7300 11
7301 2
7302 77
7303 109
7304 5
7305 14
7306 60
7307 74
7308 13
7309 50
7310 34
7311 111
7312 12
7313 27
7314 5
7315 23
7316 14
7317 55
7318 92
7319 42
7320 53
7321 102
7322 61
7323 11
7324 34
7325 8
7326 17
7327 29
7328 21
7329 60
7330 85
7331 23
7332 23
7333 22
7334 5
7335 45
7336 87
7337 92
7338 92
7339 119
7340 91
7341 85
7342 94
7343 43
7344 2
7345 103
7346 60
7347 24
7348 45
7349 14
7350 34
7351 64
7352 77
7353 22
7354 11
7355 103
7356 67
7357 11
7358 87
7359 81
7360 74
7361 45
7362 5
7363 11
7364 117
7365 22
7366 103
7367 44
7368 4
7369 22
7370 14
7371 34
7372 16
7373 37
7374 21
7375 60
7376 56
7377 17
7378 100
7379 31
7380 5
7381 34
7382 105
7383 13
7384 103
7385 17
7386 85
7387 22
7388 17
7389 105
7390 34
7391 29
7392 60
7393 74
7394 29
7395 2
7396 76
7397 22
7398 17
7399 45
7400 12
7401 116
7402 11
7403 125
7404 106
7405 76
7406 73
7407 101
7408 80
7409 23
7410 74
7411 27
7412 60
7413 58
7414 5
7415 41
7416 53
7417 67
7418 66
7419 93
7420 60
7421 14
7422 66
7423 21
7424 21
7425 32
7426 17
7427 34
7428 67
7429 80
7430 90
7431 42
7432 91
7433 11
7434 11
7435 26
7436 51
7437 26
7438 92
7439 111
7440 113
7441 17
7442 18
7443 34
7444 92
7445 16
7446 11
7447 94
7448 45
7449 8
7450 34
7451 5
7452 26
7453 34
7454 77
7455 34
7456 45
7457 87
7458 27
7459 95
7460 87
7461 99
7462 92
7463 60
7464 93
7465 27
7466 58
7467 107
7468 103
7469 45
7470 70
7471 5
7472 122
7473 24
7474 5
7475 92
7476 39
7477 11
7478 5
7479 21
7480 27
7481 93
7482 107
7483 53
7484 93
7485 67
7486 14
7487 61
7488 42
7489 33
7490 14
7491 18
7492 17
7493 38
7494 112
7495 5
7496 77
7497 127
7498 14
7499 70
7500 25
7501 17
7502 87
7503 10
7504 15
7505 92
7506 11
7507 22
7508 5
7509 2
7510 11
7511 107
7512 107
7513 71
7514 101
7515 16
7516 21
7517 115
7518 18
7519 17
7520 43
7521 74
7522 17
7523 45
7524 2
7525 108
7526 2
7527 57
7528 11
7529 107
7530 0
7531 9
7532 21
7533 60
7534 122
7535 71
7536 34
7537 10
7538 92
7539 57
7540 50
7541 37
7542 68
7543 102
7544 6
7545 102
7546 107
7547 45
7548 33
7549 68
7550 22
7551 24
7552 60
7553 123
7554 2
7555 6
7556 74
7557 42
7558 87
7559 17
7560 101
7561 93
7562 19
7563 17
7564 50
7565 97
7566 2
7567 111
7568 16
7569 34
7570 50
7571 101
7572 66
7573 60
7574 90
7575 49
7576 102
7577 49
7578 26
7579 35
7580 49
7581 50
7582 30
7583 66
7584 49
7585 49
7586 107
7587 5
7588 5
7589 31
7590 117
7591 17
7592 90
7593 109
7594 50
7595 74
7596 60
7597 34
7598 93
7599 36
7600 65
7601 64
7602 124
7603 78
7604 5
7605 0
7606 10
7607 120
7608 2
7609 21
7610 33
7611 49
7612 74
7613 128
7614 21
7615 2
7616 16
7617 2
7618 60
7619 92
7620 11
7621 12
7622 48
7623 76
7624 92
7625 76
7626 107
7627 92
7628 76
7629 5
7630 74
7631 17
7632 43
7633 60
7634 64
7635 34
7636 92
7637 90
7638 80
7639 30
7640 24
7641 60
7642 80
7643 6
7644 21
7645 11
7646 78
7647 93
7648 17
7649 18
7650 53
7651 80
7652 107
7653 78
7654 22
7655 127
7656 74
7657 21
7658 11
7659 66
7660 11
7661 66
7662 5
7663 48
7664 14
7665 17
7666 11
7667 68
7668 34
7669 71
7670 90
7671 81
7672 38
7673 34
7674 11
7675 85
7676 60
7677 48
7678 2
7679 28
7680 101
7681 19
7682 26
7683 48
7684 59
7685 6
7686 20
7687 11
7688 48
7689 21
7690 22
7691 11
7692 48
7693 2
7694 101
7695 49
7696 9
7697 34
7698 112
7699 88
7700 42
7701 50
7702 103
7703 2
7704 40
7705 26
7706 68
7707 58
7708 33
7709 30
7710 29
7711 92
7712 48
7713 87
7714 80
7715 32
7716 12
7717 1
7718 58
7719 11
7720 33
7721 59
7722 11
7723 8
7724 41
7725 51
7726 87
7727 5
7728 92
7729 41
7730 2
7731 2
7732 34
7733 11
7734 18
7735 33
7736 34
7737 80
7738 17
7739 125
7740 5
7741 11
7742 34
7743 107
7744 107
7745 92
7746 64
7747 21
7748 29
7749 107
7750 59
7751 48
7752 50
7753 27
7754 82
7755 41
7756 60
7757 27
7758 22
7759 18
7760 88
7761 5
7762 11
7763 92
7764 13
7765 64
7766 21
7767 45
7768 36
7769 53
7770 35
7771 47
7772 48
7773 22
7774 34
7775 58
7776 90
7777 22
7778 92
7779 102
7780 63
7781 91
7782 80
7783 60
7784 17
7785 45
7786 20
7787 5
7788 104
7789 5
7790 17
7791 71
7792 21
7793 4
7794 64
7795 11
7796 26
7797 54
7798 22
7799 11
7800 43
7801 103
7802 107
7803 92
7804 74
7805 30
7806 105
7807 19
7808 102
7809 34
7810 60
7811 94
7812 2
7813 103
7814 2
7815 80
7816 34
7817 60
7818 92
7819 22
7820 11
7821 92
7822 14
7823 45
7824 2
7825 80
7826 22
7827 13
7828 17
7829 121
7830 49
7831 77
7832 60
7833 59
7834 11
7835 24
7836 90
7837 2
7838 84
7839 2
7840 107
7841 92
7842 66
7843 57
7844 21
7845 77
7846 87
7847 53
7848 90
7849 116
7850 34
7851 107
7852 2
7853 33
7854 41
7855 60
7856 57
7857 34
7858 99
7859 66
7860 90
7861 59
7862 67
7863 85
7864 74
7865 24
7866 34
7867 89
7868 27
7869 66
7870 28
7871 22
7872 60
7873 67
7874 6
7875 87
7876 43
7877 14
7878 22
7879 50
7880 107
7881 93
7882 61
7883 90
7884 5
7885 8
7886 92
7887 87
7888 29
7889 107
7890 92
7891 59
7892 21
7893 40
7894 92
7895 23
7896 80
7897 92
7898 34
7899 26
7900 76
7901 34
7902 22
7903 111
7904 11
7905 89
7906 16
7907 92
7908 93
7909 66
7910 115
7911 60
7912 71
7913 11
7914 13
7915 5
7916 60
7917 34
7918 1
7919 101
7920 10
7921 11
7922 92
7923 107
7924 18
7925 74
7926 90
7927 126
7928 23
7929 42
7930 101
7931 66
7932 50
7933 49
7934 17
7935 74
7936 29
7937 58
7938 68
7939 11
7940 66
7941 34
7942 85
7943 18
7944 23
7945 18
7946 18
7947 20
7948 21
7949 60
7950 18
7951 60
7952 11
7953 2
7954 85
7955 92
7956 32
7957 5
7958 53
7959 2
7960 55
7961 2
7962 80
7963 48
7964 74
7965 101
7966 21
7967 11
7968 21
7969 64
7970 11
7971 107
7972 68
7973 11
7974 16
7975 58
7976 90
7977 22
7978 108
7979 80
7980 92
7981 56
7982 33
7983 66
7984 96
7985 22
7986 82
7987 66
7988 64
7989 48
7990 48
7991 11
7992 120
7993 5
7994 33
7995 90
7996 87
7997 36
7998 103
7999 64
8000 18
8001 26
8002 19
8003 74
8004 107
8005 107
8006 48
8007 11
8008 71
8009 31
8010 42
8011 35
8012 34
8013 2
8014 33
8015 27
8016 48
8017 11
8018 76
8019 29
8020 51
8021 114
8022 60
8023 45
8024 53
8025 92
8026 21
8027 64
8028 17
8029 21
8030 107
8031 43
8032 27
8033 56
8034 18
8035 48
8036 5
8037 23
8038 92
8039 48
8040 93
8041 64
8042 66
8043 90
8044 11
8045 57
8046 27
8047 5
8048 29
8049 5
8050 107
8051 53
8052 107
8053 90
8054 48
8055 34
8056 101
8057 74
8058 90
8059 60
8060 50
8061 58
8062 34
8063 11
8064 22
8065 77
8066 74
8067 60
8068 48
8069 5
8070 66
8071 22
8072 0
8073 48
8074 90
8075 64
8076 107
8077 57
8078 29
8079 21
8080 27
8081 100
8082 21
8083 81
8084 30
8085 23
8086 34
8087 66
8088 17
8089 30
8090 118
8091 60
8092 14
8093 108
8094 17
8095 6
8096 29
8097 6
8098 50
8099 64
8100 107
8101 73
8102 28
8103 74
8104 5
8105 5
8106 64
8107 107
8108 30
8109 11
8110 48
8111 93
8112 66
8113 5
8114 2
8115 71
8116 53
8117 107
8118 92
8119 29
8120 50
8121 90
8122 90
8123 90
8124 46
8125 66
8126 54
8127 94
8128 17
8129 6
8130 90
8131 95
8132 5
8133 45
8134 5
8135 11
8136 17
8137 75
8138 18
8139 29
8140 53
8141 80
8142 60
8143 66
8144 74
8145 11
8146 11
8147 64
8148 66
8149 87
8150 0
8151 55
8152 21
8153 59
8154 11
8155 71
8156 33
8157 59
8158 21
8159 80
8160 64
8161 48
8162 48
8163 60
8164 23
8165 5
8166 90
8167 11
8168 23
8169 32
8170 80
8171 87
8172 2
8173 90
8174 99
8175 41
8176 80
8177 90
8178 17
8179 67
8180 23
8181 23
8182 89
8183 50
8184 67
8185 60
8186 50
8187 11
8188 92
8189 90
8190 17
8191 11
8192 27
8193 38
8194 57
8195 71
8196 52
8197 117
8198 93
8199 93
8200 34
8201 23
8202 107
8203 11
8204 3
8205 67
8206 41
8207 30
8208 41
8209 57
8210 11
8211 89
8212 41
8213 53
8214 124
8215 0
8216 67
8217 40
8218 11
8219 57
8220 13
8221 66
8222 28
8223 23
8224 95
8225 11
8226 85
8227 99
8228 11
8229 93
8230 0
8231 50
8232 87
8233 90
8234 87
8235 93
8236 0
8237 71
8238 13
8239 2
8240 57
8241 48
8242 52
8243 0
8244 38
8245 17
8246 70
8247 70
8248 11
8249 40
8250 18
8251 39
8252 53
8253 11
8254 101
8255 121
8256 36
8257 41
8258 13
8259 30
8260 107
8261 18
8262 90
8263 48
8264 13
8265 53
8266 71
8267 88
8268 77
8269 61
8270 27
8271 29
8272 39
8273 5
8274 70
8275 18
8276 29
8277 41
8278 74
8279 4
8280 10
8281 63
8282 17
8283 80
8284 45
8285 23
8286 34
8287 103
8288 96
8289 56
8290 29
8291 49
8292 71
8293 51
8294 125
8295 2
8296 76
8297 96
8298 101
8299 64
8300 76
8301 96
8302 21
8303 66
8304 77
8305 102
8306 82
8307 8
8308 11
8309 31
8310 11
8311 45
8312 23
8313 39
8314 11
8315 80
8316 112
8317 11
8318 104
8319 103
8320 56
8321 23
8322 82
8323 31
8324 16
8325 11
8326 86
8327 78
8328 23
8329 27
8330 55
8331 103
8332 64
8333 11
8334 16
8335 29
8336 34
8337 61
8338 47
8339 64
8340 11
8341 78
8342 90
8343 14
8344 64
8345 84
8346 101
8347 109
8348 85
8349 27
8350 77
8351 87
8352 107
8353 45
8354 0
8355 7
8356 84
8357 11
8358 11
8359 50
8360 16
8361 14
8362 87
8363 23
8364 124
8365 45
8366 11
8367 128
8368 45
8369 45
8370 23
8371 23
8372 73
8373 107
8374 43
8375 109
8376 82
8377 23
8378 116
8379 87
8380 45
8381 77
8382 47
8383 103
8384 28
8385 64
8386 35
8387 27
8388 38
8389 23
8390 5
8391 33
8392 82
8393 65
8394 11
8395 85
8396 87
8397 39
8398 92
8399 89
8400 90
8401 29
8402 1
8403 82
8404 5
8405 23
8406 32
8407 2
8408 76
8409 118
8410 125
8411 103
8412 100
8413 76
8414 37
8415 56
8416 1
8417 92
8418 34
8419 11
8420 82
8421 2
8422 123
8423 18
8424 5
8425 49
8426 95
8427 56
8428 35
8429 103
8430 34
8431 62
8432 67
8433 64
8434 13
8435 46
8436 5
8437 78
8438 107
8439 53
8440 80
8441 69
8442 11
8443 20
8444 11
8445 27
8446 1
8447 92
8448 17
8449 14
8450 1
8451 65
8452 23
8453 56
8454 45
8455 90
8456 63
8457 53
8458 22
8459 83
8460 84
8461 21
8462 73
8463 87
8464 72
8465 31
8466 21
8467 76
8468 41
8469 28
8470 64
8471 73
8472 53
8473 22
8474 93
8475 11
8476 92
8477 76
8478 17
8479 45
8480 11
8481 117
8482 22
8483 53
8484 34
8485 93
8486 10
8487 50
8488 11
8489 19
8490 51
8491 92
8492 58
8493 41
8494 45
8495 22
8496 16
8497 25
8498 25
8499 45
8500 70
8501 42
8502 11
8503 117
8504 70
8505 90
8506 11
8507 125
8508 45
8509 19
8510 43
8511 104
8512 71
8513 107
8514 75
8515 11
8516 53
8517 55
8518 11
8519 97
8520 126
8521 89
8522 63
8523 11
8524 93
8525 5
8526 50
8527 33
8528 74
8529 11
8530 22
8531 34
8532 65
8533 77
8534 74
8535 109
8536 23
8537 41
8538 92
8539 43
8540 127
8541 33
8542 94
8543 71
8544 93
8545 45
8546 31
8547 85
8548 107
8549 11
8550 21
8551 50
8552 0
8553 74
8554 6
8555 1
8556 65
8557 82
8558 96
8559 22
8560 107
8561 18
8562 74
8563 76
8564 35
8565 22
8566 17
8567 58
8568 74
8569 109
8570 92
8571 43
8572 21
8573 43
8574 34
8575 74
8576 74
8577 21
8578 54
8579 53
8580 19
8581 103
8582 43
8583 39
8584 11
8585 29
8586 17
8587 107
8588 21
8589 75
8590 94
8591 1
8592 57
8593 21
8594 107
8595 121
8596 26
8597 16
8598 73
8599 11
8600 17
8601 41
8602 22
8603 5
8604 66
8605 92
8606 49
8607 115
8608 114
8609 50
8610 28
8611 123
8612 74
8613 50
8614 72
8615 67
8616 22
8617 114
8618 27
8619 74
8620 50
8621 62
8622 89
8623 5
8624 43
8625 92
8626 51
8627 16
8628 79
8629 17
8630 93
8631 57
8632 5
8633 30
8634 103
8635 17
8636 107
8637 85
8638 90
8639 73
8640 62
8641 107
8642 92
8643 91
8644 74
8645 5
8646 13
8647 13
8648 93
8649 22
8650 53
8651 50
8652 82
8653 66
8654 5
8655 28
8656 30
8657 22
8658 4
8659 67
8660 21
8661 50
8662 93
8663 21
8664 95
8665 60
8666 13
8667 30
8668 2
8669 74
8670 26
8671 9
8672 33
8673 93
8674 57
8675 107
8676 12
8677 125
8678 4
8679 82
8680 35
8681 2
8682 27
8683 48
8684 2
8685 59
8686 60
8687 27
8688 21
8689 2
8690 22
8691 11
8692 48
8693 66
8694 19
8695 22
8696 20
8697 92
8698 66
8699 5
8700 85
8701 57
8702 31
8703 5
8704 49
8705 78
8706 0
8707 48
8708 88
8709 20
8710 57
8711 76
8712 2
8713 76
8714 82
8715 38
8716 8
8717 11
8718 20
8719 92
8720 5
8721 76
8722 71
8723 11
8724 67
8725 11
8726 29
8727 50
8728 41
8729 38
8730 22
8731 125
8732 54
8733 1
8734 11
8735 107
8736 74
8737 74
8738 5
8739 29
8740 41
8741 30
8742 99
8743 92
8744 80
8745 18
8746 2
8747 27
8748 112
8749 48
8750 77
8751 2
8752 80
8753 6
8754 28
8755 45
8756 78
8757 105
8758 11
8759 19
8760 80
8761 83
8762 2
8763 67
8764 90
8765 90
8766 44
8767 21
8768 80
8769 45
8770 29
8771 21
8772 92
8773 5
8774 21
8775 101
8776 60
8777 63
8778 34
8779 46
8780 60
8781 29
8782 56
8783 5
8784 56
8785 54
8786 39
8787 27
8788 80
8789 94
8790 12
8791 51
8792 22
8793 17
8794 66
8795 11
8796 48
8797 82
8798 11
8799 56
8800 11
8801 64
8802 109
8803 112
8804 72
8805 1
8806 101
8807 86
8808 68
8809 17
8810 99
8811 21
8812 60
8813 90
8814 2
8815 5
8816 22
8817 2
8818 74
8819 20
8820 31
8821 35
8822 26
8823 21
8824 89
8825 36
8826 5
8827 60
8828 11
8829 17
8830 56
8831 110
8832 79
8833 45
8834 22
8835 50
8836 57
8837 21
8838 50
8839 2
8840 83
8841 5
8842 56
8843 38
8844 17
8845 42
8846 17
8847 16
8848 92
8849 32
8850 5
8851 21
8852 11
8853 5
8854 49
8855 11
8856 73
8857 109
8858 21
8859 27
8860 92
8861 92
8862 87
8863 21
8864 103
8865 5
8866 29
8867 92
8868 92
8869 66
8870 92
8871 17
8872 103
8873 2
8874 2
8875 60
8876 66
8877 94
8878 21
8879 21
8880 50
8881 92
8882 50
8883 5
8884 94
8885 87
8886 25
8887 90
8888 30
8889 76
8890 22
8891 21
8892 62
8893 87
8894 11
8895 93
8896 2
8897 2
8898 1
8899 10
8900 74
8901 17
8902 51
8903 6
8904 17
8905 27
8906 11
8907 50
8908 60
8909 110
8910 2
8911 94
8912 92
8913 14
8914 50
8915 12
8916 19
8917 15
8918 93
8919 112
8920 17
8921 90
8922 11
8923 77
8924 5
8925 31
8926 5
8927 22
8928 27
8929 74
8930 94
8931 35
8932 35
8933 18
8934 87
8935 92
8936 63
8937 22
8938 87
8939 66
8940 23
8941 41
8942 61
8943 22
8944 90
8945 22
8946 74
8947 56
8948 50
8949 21
8950 74
8951 51
8952 26
8953 19
8954 5
8955 26
8956 26
8957 80
8958 22
8959 23
8960 11
8961 60
8962 74
8963 74
8964 74
8965 11
8966 51
8967 21
8968 56
8969 22
8970 3
8971 17
8972 64
8973 106
8974 112
8975 82
8976 60
8977 77
8978 23
8979 2
8980 90
8981 22
8982 76
8983 68
8984 90
8985 11
8986 23
8987 2
8988 5
8989 34
8990 11
8991 107
8992 2
8993 34
8994 45
8995 34
8996 17
8997 60
8998 45
8999 11
9000 21
9001 90
9002 21
9003 29
9004 122
9005 48
9006 76
9007 85
9008 16
9009 11
9010 123
9011 28
9012 34
9013 34
9014 53
9015 11
9016 92
9017 50
9018 5
9019 48
9020 121
9021 89
9022 29
9023 34
9024 64
9025 66
9026 53
9027 64
9028 5
9029 110
9030 21
9031 50
9032 107
9033 90
9034 56
9035 34
9036 5
9037 92
9038 34
9039 11
9040 76
9041 26
9042 31
9043 103
9044 60
9045 66
9046 16
9047 21
9048 102
9049 57
9050 27
9051 34
9052 11
9053 90
9054 50
9055 18
9056 11
9057 60
9058 0
9059 57
9060 90
9061 92
9062 27
9063 35
9064 107
9065 68
9066 17
9067 27
9068 50
9069 50
9070 11
9071 59
9072 34
9073 50
9074 17
9075 48
9076 111
9077 71
9078 5
9079 101
9080 60
9081 74
9082 50
9083 103
9084 17
9085 74
9086 38
9087 71
9088 74
9089 30
9090 102
9091 17
9092 87
9093 60
9094 53
9095 21
9096 22
9097 11
9098 48
9099 29
9100 66
9101 48
9102 11
9103 50
9104 48
9105 11
9106 92
9107 90
9108 68
9109 107
9110 30
9111 73
9112 87
9113 23
9114 93
9115 66
9116 29
9117 72
9118 17
9119 23
9120 17
9121 66
9122 74
9123 38
9124 68
9125 49
9126 48
9127 92
9128 64
9129 107
9130 64
9131 90
9132 17
9133 104
9134 50
9135 32
9136 62
9137 23
9138 5
9139 23
9140 48
9141 92
9142 5
9143 87
9144 13
9145 98
9146 0
9147 67
9148 56
9149 59
9150 104
9151 67
9152 92
9153 18
9154 11
9155 107
9156 82
9157 74
9158 93
9159 22
9160 2
9161 73
9162 92
9163 21
9164 11
9165 67
9166 53
9167 34
9168 60
9169 60
9170 50
9171 80
9172 23
9173 34
9174 40
9175 74
9176 60
9177 65
9178 66
9179 66
9180 48
9181 90
9182 64
9183 66
9184 74
9185 17
9186 67
9187 90
9188 108
9189 53
9190 29
9191 107
9192 16
9193 17
9194 34
9195 34
9196 50
9197 2
9198 2
9199 24
9200 66
9201 3
9202 50
9203 96
9204 51
9205 21
9206 11
9207 73
9208 56
9209 27
9210 64
9211 1
9212 11
9213 30
9214 90
9215 21
9216 11
9217 67
9218 73
9219 2
9220 0
9221 67
9222 24
9223 57
9224 18
9225 11
9226 32
9227 1
9228 2
9229 101
9230 116
9231 54
9232 29
9233 2
9234 67
9235 27
9236 48
9237 97
9238 87
9239 53
9240 45
9241 42
9242 61
9243 23
9244 67
9245 59
9246 42
9247 66
9248 11
9249 2
9250 93
9251 29
9252 65
9253 92
9254 11
9255 34
9256 60
9257 11
9258 41
9259 10
9260 50
9261 117
9262 57
9263 2
9264 92
9265 60
9266 74
9267 110
9268 16
9269 5
9270 87
9271 57
9272 18
9273 46
9274 21
9275 50
9276 34
9277 97
9278 116
9279 18
9280 64
9281 98
9282 103
9283 104
9284 27
9285 27
9286 5
9287 23
9288 31
9289 92
9290 60
9291 64
9292 92
9293 21
9294 102
9295 27
9296 80
9297 13
9298 34
9299 23
9300 6
9301 81
9302 92
9303 64
9304 11
9305 59
9306 34
9307 126
9308 11
9309 19
9310 21
9311 65
9312 49
9313 36
9314 112
9315 102
9316 21
9317 50
9318 34
9319 2
9320 119
9321 60
9322 30
9323 77
9324 29
9325 11
9326 0
9327 17
9328 17
9329 54
9330 21
9331 122
9332 0
9333 45
9334 5
9335 71
9336 5
9337 128
9338 9
9339 14
9340 89
9341 48
9342 11
9343 77
9344 102
9345 103
9346 92
9347 89
9348 11
9349 5
9350 67
9351 125
9352 77
9353 120
9354 60
9355 9
9356 81
9357 6
9358 51
9359 9
9360 17
9361 36
9362 21
9363 11
9364 94
9365 24
9366 35
9367 71
9368 45
9369 5
9370 30
9371 11
9372 60
9373 54
9374 22
9375 17
9376 30
9377 54
9378 50
9379 59
9380 17
9381 21
9382 29
9383 16
9384 116
9385 44
9386 22
9387 16
9388 11
9389 55
9390 6
9391 60
9392 16
9393 5
9394 45
9395 89
9396 11
9397 60
9398 34
9399 50
9400 5
9401 103
9402 13
9403 54
9404 7
9405 93
9406 11
9407 11
9408 79
9409 5
9410 5
9411 27
9412 64
9413 31
9414 34
9415 34
9416 17
9417 76
9418 92
9419 5
9420 5
9421 31
9422 21
9423 18
9424 76
9425 17
9426 45
9427 49
9428 93
9429 85
9430 11
9431 56
9432 2
9433 67
9434 114
9435 96
9436 87
9437 34
9438 34
9439 73
9440 11
9441 87
9442 23
9443 11
9444 17
9445 106
9446 71
9447 118
9448 17
9449 34
9450 76
9451 17
9452 30
9453 9
9454 45
9455 26
9456 65
9457 34
9458 78
9459 60
9460 103
9461 27
9462 56
9463 60
9464 14
9465 51
9466 60
9467 11
9468 22
9469 17
9470 93
9471 22
9472 60
9473 87
9474 22
9475 22
9476 11
9477 112
9478 53
9479 60
9480 17
9481 21
9482 2
9483 60
9484 56
9485 41
9486 29
9487 21
9488 24
9489 11
9490 31
9491 8
9492 27
9493 90
9494 34
9495 29
9496 58
9497 2
9498 103
9499 5
9500 17
9501 3
9502 34
9503 32
9504 22
9505 28
9506 117
9507 5
9508 93
9509 11
9510 11
9511 76
9512 5
9513 22
9514 0
9515 22
9516 72
9517 26
9518 31
9519 74
9520 21
9521 76
9522 107
9523 11
9524 17
9525 93
9526 58
9527 26
9528 34
9529 5
9530 45
9531 128
9532 34
9533 52
9534 126
9535 2
9536 2
9537 103
9538 11
9539 16
9540 71
9541 11
9542 84
9543 89
9544 43
9545 60
9546 62
9547 55
9548 82
9549 35
9550 5
9551 21
9552 74
9553 74
9554 16
9555 92
9556 22
9557 74
9558 57
9559 21
9560 33
9561 26
9562 10
9563 50
9564 4
9565 71
9566 16
9567 45
9568 127
9569 54
9570 41
9571 21
9572 65
9573 81
9574 74
9575 5
9576 2
9577 19
9578 21
9579 106
9580 50
9581 116
9582 107
9583 77
9584 74
9585 50
9586 119
9587 45
9588 76
9589 57
9590 11
9591 0
9592 16
9593 2
9594 78
9595 26
9596 1
9597 57
9598 57
9599 5
9600 110
9601 50
9602 71
9603 38
9604 74
9605 107
9606 91
9607 90
9608 107
9609 61
9610 120
9611 60
9612 50
9613 43
9614 101
9615 128
9616 34
9617 78
9618 17
9619 90
9620 8
9621 21
9622 49
9623 21
9624 57
9625 11
9626 8
9627 50
9628 34
9629 11
9630 0
9631 11
9632 107
9633 17
9634 8
9635 92
9636 26
9637 11
9638 94
9639 68
9640 128
9641 101
9642 8
9643 90
9644 92
9645 58
9646 90
9647 60
9648 57
9649 74
9650 34
9651 77
9652 66
9653 73
9654 71
9655 21
9656 66
9657 60
9658 67
9659 90
9660 48
9661 22
9662 97
9663 9
9664 28
9665 5
9666 5
9667 90
9668 28
9669 22
9670 45
9671 1
9672 50
9673 74
9674 10
9675 74
9676 16
9677 34
9678 80
9679 21
9680 50
9681 90
9682 37
9683 56
9684 66
9685 5
9686 78
9687 11
9688 44
9689 33
9690 92
9691 48
9692 60
9693 107
9694 0
9695 66
9696 34
9697 74
9698 92
9699 28
9700 107
9701 92
9702 67
9703 48
9704 74
9705 106
9706 65
9707 49
9708 5
9709 108
9710 76
9711 11
9712 9
9713 21
9714 93
9715 48
9716 80
9717 10
9718 43
9719 101
9720 22
9721 22
9722 13
9723 6
9724 11
9725 40
9726 80
9727 30
9728 96
9729 38
9730 53
9731 105
9732 53
9733 120
9734 87
9735 20
9736 40
9737 87
9738 46
9739 48
9740 80
9741 17
9742 92
9743 34
9744 101
9745 25
9746 96
9747 11
9748 2
9749 18
9750 26
9751 2
9752 29
9753 107
9754 59
9755 72
9756 11
9757 11
9758 57
9759 59
9760 49
9761 38
9762 6
9763 42
9764 18
9765 97
9766 60
9767 18
9768 92
9769 92
9770 11
9771 70
9772 92
9773 20
9774 119
9775 13
9776 41
9777 60
9778 53
9779 22
9780 18
9781 74
9782 11
9783 60
9784 3
9785 78
9786 5
9787 5
9788 79
9789 29
9790 30
9791 70
9792 11
9793 29
9794 11
9795 48
9796 90
9797 5
9798 22
9799 20
9800 72
9801 17
9802 34
9803 92
9804 11
9805 112
9806 2
9807 60
9808 22
9809 45
9810 96
9811 34
9812 59
9813 74
9814 62
9815 2
9816 101
9817 103
9818 27
9819 96
9820 17
9821 48
9822 49
9823 101
9824 41
9825 22
9826 112
9827 92
9828 77
9829 21
9830 55
9831 35
9832 34
9833 106
9834 112
9835 2
9836 102
9837 92
9838 45
9839 11
9840 5
9841 74
9842 17
9843 17
9844 50
9845 61
9846 34
9847 53
9848 22
9849 103
9850 48
9851 106
9852 50
9853 92
9854 107
9855 60
9856 77
9857 102
9858 89
9859 36
9860 27
9861 56
9862 21
9863 34
9864 75
9865 117
9866 48
9867 21
9868 78
9869 24
9870 30
9871 107
9872 71
9873 11
9874 21
9875 25
9876 101
9877 76
9878 64
9879 22
9880 50
9881 5
9882 90
9883 66
9884 92
9885 36
9886 66
9887 107
9888 107
9889 11
9890 66
9891 57
9892 11
9893 17
9894 66
9895 5
9896 27
9897 87
9898 90
9899 11
9900 74
9901 90
9902 90
9903 82
9904 22
9905 11
9906 89
9907 16
9908 74
9909 50
9910 74
9911 89
9912 5
9913 50
9914 56
9915 11
9916 34
9917 66
9918 66
9919 90
9920 52
9921 82
9922 34
9923 32
9924 107
9925 109
9926 34
9927 47
9928 66
9929 60
9930 109
9931 10
9932 5
9933 4
9934 90
9935 64
9936 89
9937 5
9938 62
9939 74
9940 72
9941 0
9942 11
9943 34
9944 21
9945 31
9946 11
9947 66
9948 11
9949 48
9950 21
9951 17
9952 60
9953 50
9954 66
9955 26
9956 29
9957 11
9958 9
9959 2
9960 82
9961 22
9962 107
9963 74
9964 77
9965 107
9966 61
9967 66
9968 11
9969 107
9970 21
9971 107
9972 16
9973 9
9974 50
9975 43
9976 26
9977 16
9978 60
9979 107
9980 2
9981 11
9982 12
9983 37
9984 50
9985 77
9986 77
9987 17
9988 19
9989 107
9990 22
9991 24
9992 41
9993 73
9994 11
9995 22
9996 18
9997 34
9998 92
9999 18
