0 0
1 1
2 2
3 3
4 4
5 5
6 6
7 7
8 8
9 9
10 10
11 11
12 12
13 0
14 13
15 14
16 15
17 16
18 17
19 18
20 19
21 20
22 21
23 22
24 23
25 24
26 25
27 26
28 27
29 28
30 28
31 29
32 30
33 29
34 19
35 31
36 32
37 14
38 33
39 34
40 35
41 36
42 37
43 38
44 5
45 39
46 40
47 41
48 37
49 30
50 42
51 43
52 44
53 4
54 0
55 45
56 46
57 47
58 48
59 49
60 46
61 50
62 8
63 51
64 41
65 36
66 52
67 8
68 53
69 45
70 5
71 54
72 33
73 6
74 55
75 31
76 56
77 57
78 58
79 32
80 59
81 38
82 31
83 44
84 60
85 61
86 62
87 60
88 63
89 64
90 65
91 8
92 23
93 62
94 34
95 66
96 59
97 67
98 68
99 31
100 69
101 70
102 69
103 39
104 5
105 71
106 72
107 73
108 14
109 68
110 68
111 62
112 74
113 75
114 74
115 8
116 37
117 34
118 76
119 8
120 77
121 73
122 78
123 59
124 79
125 30
126 59
127 5
128 2
129 80
130 13
131 26
132 57
133 46
134 81
135 82
136 73
137 83
138 17
139 74
140 75
141 40
142 73
143 30
144 30
145 84
146 24
147 14
148 85
149 41
150 53
151 48
152 66
153 86
154 21
155 53
156 9
157 86
158 87
159 30
160 86
161 57
162 88
163 30
164 82
165 73
166 9
167 17
168 36
169 59
170 80
171 89
172 69
173 34
174 73
175 23
176 76
177 90
178 91
179 91
180 42
181 8
182 18
183 31
184 49
185 34
186 36
187 30
188 35
189 53
190 16
191 53
192 36
193 92
194 55
195 93
196 88
197 17
198 73
199 35
200 85
201 94
202 95
203 96
204 26
205 2
206 55
207 7
208 97
209 91
210 52
211 98
212 34
213 94
214 91
215 55
216 39
217 86
218 26
219 86
220 85
221 99
222 52
223 85
224 30
225 100
226 62
227 44
228 63
229 36
230 99
231 27
232 91
233 69
234 64
235 88
236 96
237 26
238 66
239 11
240 45
241 94
242 6
243 101
244 13
245 31
246 49
247 96
248 7
249 54
250 39
251 4
252 21
253 30
254 31
255 13
256 100
257 11
258 96
259 30
260 16
261 96
262 42
263 27
264 10
265 97
266 102
267 36
268 89
269 21
270 61
271 15
272 21
273 77
274 29
275 26
276 103
277 104
278 15
279 7
280 61
281 56
282 7
283 19
284 18
285 42
286 88
287 49
288 5
289 26
290 49
291 16
292 15
293 61
294 39
295 8
296 89
297 102
298 40
299 44
300 91
301 42
302 42
303 56
304 18
305 56
306 103
307 18
308 42
309 51
310 87
311 97
312 105
313 100
314 7
315 101
316 85
317 85
318 7
319 54
320 61
321 6
322 106
323 50
324 61
325 15
326 96
327 29
328 33
329 51
330 46
331 34
332 5
333 63
334 107
335 47
336 91
337 61
338 90
339 61
340 40
341 82
342 73
343 15
344 108
345 59
346 18
347 109
348 44
349 74
350 51
351 59
352 100
353 52
354 57
355 41
356 49
357 17
358 4
359 110
360 96
361 78
362 48
363 19
364 100
365 54
366 85
367 44
368 59
369 44
370 111
371 26
372 37
373 69
374 10
375 74
376 7
377 112
378 52
379 15
380 55
381 59
382 2
383 16
384 15
385 5
386 102
387 57
388 83
389 47
390 12
391 18
392 57
393 33
394 61
395 47
396 7
397 48
398 102
399 20
400 8
401 113
402 114
403 99
404 48
405 45
406 0
407 22
408 47
409 22
410 80
411 9
412 61
413 56
414 115
415 56
416 19
417 69
418 33
419 88
420 18
421 102
422 33
423 70
424 116
425 80
426 41
427 56
428 16
429 61
430 90
431 90
432 92
433 28
434 19
435 88
436 74
437 115
438 73
439 117
440 61
441 69
442 42
443 52
444 42
445 85
446 81
447 16
448 5
449 96
450 113
451 52
452 6
453 61
454 47
455 0
456 118
457 0
458 69
459 23
460 119
461 116
462 17
463 55
464 73
465 29
466 25
467 119
468 55
469 32
470 120
471 34
472 41
473 90
474 121
475 55
476 98
477 54
478 118
479 23
480 115
481 69
482 89
483 14
484 80
485 31
486 23
487 32
488 39
489 36
490 8
491 52
492 31
493 107
494 115
495 47
496 44
497 53
498 41
499 17
500 80
501 119
502 76
503 16
504 23
505 69
506 122
507 69
508 2
509 0
510 14
511 73
512 30
513 15
514 14
515 69
516 58
517 69
518 119
519 0
520 22
521 101
522 69
523 107
524 123
525 8
526 44
527 53
528 36
529 115
530 100
531 53
532 55
533 30
534 73
535 25
536 73
537 31
538 52
539 41
540 119
541 76
542 0
543 16
544 119
545 19
546 101
547 107
548 76
549 90
550 11
551 55
552 115
553 119
554 102
555 2
556 99
557 8
558 73
559 40
560 35
561 41
562 53
563 120
564 82
565 12
566 55
567 70
568 35
569 95
570 94
571 98
572 32
573 30
574 68
575 52
576 94
577 55
578 14
579 44
580 14
581 57
582 57
583 32
584 80
585 9
586 59
587 49
588 40
589 59
590 82
591 68
592 112
593 57
594 119
595 90
596 66
597 61
598 90
599 2
600 119
601 40
602 76
603 98
604 37
605 34
606 75
607 22
608 91
609 37
610 54
611 124
612 50
613 125
614 58
615 44
616 23
617 19
618 73
619 83
620 105
621 57
622 91
623 70
624 89
625 85
626 31
627 23
628 12
629 66
630 96
631 18
632 82
633 126
634 102
635 92
636 85
637 119
638 2
639 119
640 53
641 34
642 52
643 9
644 77
645 31
646 61
647 53
648 44
649 7
650 100
651 19
652 93
653 17
654 4
655 82
656 32
657 30
658 30
659 91
660 76
661 68
662 23
663 41
664 80
665 80
666 83
667 69
668 62
669 69
670 38
671 84
672 41
673 86
674 18
675 81
676 108
677 53
678 44
679 44
680 38
681 11
682 59
683 127
684 100
685 11
686 96
687 2
688 26
689 69
690 30
691 49
692 69
693 53
694 36
695 128
696 92
697 70
698 2
699 56
700 71
701 26
702 28
703 59
704 70
705 85
706 57
707 17
708 98
709 38
710 2
711 47
712 56
713 2
714 3
715 68
716 82
717 19
718 96
719 11
720 96
721 16
722 60
723 2
724 98
725 10
726 32
727 49
728 94
729 95
730 51
731 129
732 42
733 7
734 100
735 26
736 96
737 52
738 129
739 52
740 16
741 57
742 60
743 39
744 128
745 91
746 64
747 5
748 15
749 8
750 130
751 44
752 85
753 82
754 38
755 2
756 85
757 61
758 63
759 128
760 42
761 61
762 87
763 68
764 38
765 119
766 15
767 106
768 75
769 96
770 77
771 10
772 108
773 102
774 57
775 96
776 111
777 5
778 52
779 34
780 100
781 69
782 34
783 16
784 84
785 51
786 31
787 55
788 103
789 38
790 53
791 0
792 23
793 115
794 47
795 19
796 115
797 44
798 68
799 91
800 23
801 17
802 82
803 86
804 116
805 53
806 82
807 61
808 94
809 54
810 57
811 53
812 56
813 5
814 47
815 131
816 56
817 80
818 69
819 125
820 2
821 14
822 51
823 35
824 30
825 101
826 5
827 69
828 68
829 56
830 119
831 52
832 101
833 42
834 132
835 127
836 15
837 61
838 46
839 55
840 82
841 80
842 69
843 119
844 119
845 53
846 115
847 71
848 56
849 53
850 83
851 30
852 90
853 128
854 129
855 48
856 57
857 115
858 38
859 51
860 19
861 3
862 91
863 22
864 61
865 57
866 53
867 38
868 47
869 57
870 106
871 62
872 111
873 58
874 42
875 52
876 80
877 4
878 23
879 38
880 75
881 26
882 48
883 98
884 5
885 27
886 51
887 113
888 68
889 46
890 69
891 40
892 49
893 51
894 52
895 73
896 2
897 38
898 53
899 30
900 98
901 2
902 68
903 57
904 53
905 94
906 5
907 61
908 48
909 18
910 118
911 34
912 44
913 69
914 73
915 68
916 47
917 115
918 27
919 56
920 22
921 57
922 107
923 85
924 44
925 98
926 5
927 18
928 0
929 38
930 51
931 38
932 40
933 119
934 90
935 5
936 49
937 90
938 91
939 56
940 85
941 69
942 69
943 42
944 119
945 57
946 53
947 51
948 128
949 50
950 30
951 80
952 80
953 35
954 61
955 74
956 51
957 87
958 69
959 133
960 101
961 76
962 73
963 51
964 57
965 61
966 47
967 60
968 56
969 31
970 80
971 105
972 5
973 73
974 64
975 62
976 127
977 49
978 5
979 18
980 51
981 44
982 41
983 44
984 41
985 41
986 59
987 119
988 44
989 31
990 2
991 42
992 55
993 91
994 88
995 5
996 18
997 119
998 108
999 8
1000 82
1001 44
1002 38
1003 41
1004 5
1005 84
1006 44
1007 116
1008 27
1009 90
1010 115
1011 80
1012 18
1013 42
1014 16
1015 101
1016 80
1017 44
1018 26
1019 5
1020 73
1021 5
1022 30
1023 77
1024 120
1025 84
1026 113
1027 31
1028 80
1029 59
1030 31
1031 55
1032 134
1033 5
1034 68
1035 44
1036 132
1037 119
1038 80
1039 36
1040 26
1041 89
1042 30
1043 41
1044 26
1045 37
1046 54
1047 52
1048 76
1049 97
1050 110
1051 9
1052 53
1053 135
1054 102
1055 53
1056 37
1057 111
1058 55
1059 26
1060 79
1061 130
1062 69
1063 60
1064 46
1065 115
1066 37
1067 67
1068 60
1069 80
1070 53
1071 2
1072 73
1073 119
1074 120
1075 32
1076 26
1077 99
1078 44
1079 13
1080 53
1081 32
1082 28
1083 26
1084 40
1085 31
1086 37
1087 38
1088 5
1089 106
1090 111
1091 16
1092 34
1093 119
1094 28
1095 68
1096 5
1097 115
1098 24
1099 18
1100 18
1101 25
1102 70
1103 46
1104 31
1105 52
1106 42
1107 119
1108 31
1109 26
1110 36
1111 2
1112 44
1113 2
1114 18
1115 50
1116 70
1117 91
1118 24
1119 60
1120 119
1121 29
1122 67
1123 38
1124 49
1125 18
1126 73
1127 91
1128 8
1129 36
1130 92
1131 52
1132 82
1133 38
1134 113
1135 85
1136 2
1137 11
1138 23
1139 5
1140 2
1141 32
1142 53
1143 23
1144 56
1145 57
1146 5
1147 73
1148 116
1149 38
1150 2
1151 14
1152 114
1153 38
1154 85
1155 82
1156 85
1157 34
1158 119
1159 26
1160 2
1161 113
1162 17
1163 91
1164 113
1165 15
1166 2
1167 84
1168 101
1169 72
1170 100
1171 43
1172 17
1173 100
1174 2
1175 98
1176 43
1177 115
1178 74
1179 5
1180 9
1181 82
1182 98
1183 100
1184 96
1185 92
1186 44
1187 19
1188 9
1189 98
1190 69
1191 24
1192 98
1193 88
1194 98
1195 15
1196 136
1197 98
1198 18
1199 115
1200 37
1201 22
1202 35
1203 86
1204 128
1205 13
1206 34
1207 5
1208 85
1209 8
1210 28
1211 16
1212 5
1213 47
1214 41
1215 97
1216 86
1217 19
1218 2
1219 38
1220 31
1221 119
1222 2
1223 76
1224 76
1225 137
1226 93
1227 5
1228 19
1229 9
1230 96
1231 96
1232 17
1233 44
1234 113
1235 13
1236 19
1237 8
1238 26
1239 59
1240 31
1241 100
1242 87
1243 53
1244 9
1245 52
1246 18
1247 94
1248 44
1249 53
1250 51
1251 82
1252 0
1253 93
1254 38
1255 118
1256 50
1257 16
1258 19
1259 11
1260 8
1261 57
1262 84
1263 26
1264 18
1265 17
1266 29
1267 52
1268 5
1269 84
1270 94
1271 53
1272 62
1273 44
1274 96
1275 42
1276 98
1277 14
1278 42
1279 18
1280 85
1281 89
1282 125
1283 56
1284 21
1285 91
1286 138
1287 18
1288 21
1289 23
1290 32
1291 51
1292 97
1293 32
1294 98
1295 85
1296 44
1297 91
1298 123
1299 119
1300 17
1301 44
1302 85
1303 38
1304 11
1305 2
1306 24
1307 38
1308 32
1309 51
1310 51
1311 92
1312 34
1313 68
1314 55
1315 98
1316 12
1317 30
1318 3
1319 56
1320 23
1321 106
1322 38
1323 25
1324 16
1325 85
1326 23
1327 30
1328 18
1329 61
1330 16
1331 16
1332 20
1333 127
1334 19
1335 19
1336 42
1337 18
1338 102
1339 85
1340 5
1341 47
1342 119
1343 15
1344 80
1345 40
1346 32
1347 83
1348 37
1349 98
1350 34
1351 44
1352 80
1353 18
1354 42
1355 2
1356 34
1357 2
1358 38
1359 81
1360 94
1361 44
1362 99
1363 52
1364 119
1365 33
1366 17
1367 68
1368 2
1369 16
1370 68
1371 100
1372 100
1373 80
1374 80
1375 119
1376 118
1377 23
1378 7
1379 17
1380 11
1381 41
1382 24
1383 84
1384 37
1385 47
1386 26
1387 80
1388 119
1389 70
1390 56
1391 51
1392 138
1393 38
1394 29
1395 41
1396 18
1397 42
1398 5
1399 73
1400 69
1401 133
1402 2
1403 19
1404 19
1405 56
1406 69
1407 44
1408 38
1409 82
1410 119
1411 13
1412 103
1413 80
1414 90
1415 126
1416 41
1417 45
1418 38
1419 80
1420 44
1421 61
1422 118
1423 38
1424 52
1425 23
1426 0
1427 112
1428 119
1429 86
1430 68
1431 0
1432 0
1433 38
1434 68
1435 44
1436 17
1437 104
1438 23
1439 9
1440 7
1441 115
1442 51
1443 88
1444 0
1445 38
1446 61
1447 51
1448 82
1449 23
1450 57
1451 119
1452 5
1453 5
1454 18
1455 46
1456 36
1457 2
1458 115
1459 42
1460 23
1461 36
1462 107
1463 73
1464 82
1465 55
1466 52
1467 9
1468 19
1469 29
1470 93
1471 47
1472 29
1473 5
1474 70
1475 90
1476 90
1477 52
1478 82
1479 73
1480 38
1481 23
1482 6
1483 80
1484 56
1485 7
1486 17
1487 25
1488 80
1489 42
1490 38
1491 128
1492 0
1493 30
1494 23
1495 38
1496 44
1497 51
1498 73
1499 29
1500 80
1501 53
1502 52
1503 18
1504 70
1505 74
1506 57
1507 96
1508 53
1509 11
1510 88
1511 47
1512 19
1513 115
1514 37
1515 51
1516 80
1517 23
1518 49
1519 0
1520 76
1521 57
1522 115
1523 47
1524 82
1525 30
1526 67
1527 38
1528 16
1529 58
1530 55
1531 38
1532 115
1533 53
1534 96
1535 73
1536 21
1537 55
1538 106
1539 65
1540 11
1541 14
1542 18
1543 90
1544 30
1545 52
1546 31
1547 115
1548 2
1549 58
1550 57
1551 81
1552 47
1553 57
1554 31
1555 29
1556 44
1557 30
1558 10
1559 139
1560 77
1561 106
1562 47
1563 44
1564 44
1565 2
1566 2
1567 68
1568 76
1569 12
1570 102
1571 31
1572 57
1573 119
1574 15
1575 130
1576 14
1577 12
1578 61
1579 40
1580 23
1581 30
1582 33
1583 57
1584 19
1585 89
1586 33
1587 99
1588 53
1589 5
1590 5
1591 24
1592 70
1593 2
1594 53
1595 51
1596 30
1597 32
1598 88
1599 58
1600 59
1601 83
1602 48
1603 14
1604 46
1605 44
1606 123
1607 53
1608 17
1609 57
1610 42
1611 42
1612 140
1613 48
1614 47
1615 47
1616 99
1617 5
1618 126
1619 2
1620 117
1621 31
1622 126
1623 3
1624 69
1625 2
1626 42
1627 73
1628 4
1629 30
1630 44
1631 60
1632 53
1633 44
1634 44
1635 70
1636 85
1637 59
1638 55
1639 82
1640 103
1641 140
1642 103
1643 92
1644 30
1645 96
1646 52
1647 12
1648 8
1649 52
1650 85
1651 23
1652 23
1653 52
1654 124
1655 34
1656 5
1657 17
1658 82
1659 38
1660 26
1661 70
1662 62
1663 52
1664 5
1665 62
1666 50
1667 76
1668 5
1669 87
1670 101
1671 41
1672 85
1673 82
1674 23
1675 93
1676 30
1677 23
1678 5
1679 43
1680 31
1681 69
1682 43
1683 17
1684 31
1685 2
1686 2
1687 38
1688 84
1689 98
1690 129
1691 15
1692 47
1693 60
1694 69
1695 47
1696 7
1697 38
1698 87
1699 98
1700 30
1701 2
1702 5
1703 26
1704 31
1705 70
1706 74
1707 31
1708 12
1709 52
1710 38
1711 15
1712 115
1713 24
1714 2
1715 86
1716 88
1717 69
1718 75
1719 38
1720 80
1721 56
1722 31
1723 115
1724 7
1725 47
1726 18
1727 96
1728 119
1729 60
1730 27
1731 73
1732 111
1733 23
1734 113
1735 98
1736 80
1737 23
1738 19
1739 18
1740 14
1741 16
1742 29
1743 111
1744 47
1745 96
1746 18
1747 18
1748 119
1749 100
1750 53
1751 98
1752 11
1753 129
1754 32
1755 19
1756 51
1757 19
1758 82
1759 85
1760 52
1761 16
1762 115
1763 54
1764 82
1765 31
1766 18
1767 18
1768 17
1769 60
1770 128
1771 39
1772 80
1773 44
1774 35
1775 2
1776 16
1777 27
1778 17
1779 47
1780 5
1781 47
1782 53
1783 8
1784 18
1785 18
1786 119
1787 5
1788 17
1789 61
1790 69
1791 49
1792 47
1793 19
1794 130
1795 51
1796 86
1797 55
1798 9
1799 85
1800 23
1801 101
1802 55
1803 18
1804 23
1805 126
1806 5
1807 18
1808 38
1809 91
1810 26
1811 82
1812 44
1813 41
1814 38
1815 115
1816 98
1817 5
1818 31
1819 119
1820 13
1821 11
1822 96
1823 52
1824 9
1825 23
1826 47
1827 28
1828 5
1829 44
1830 47
1831 40
1832 53
1833 52
1834 47
1835 18
1836 2
1837 128
1838 44
1839 100
1840 57
1841 77
1842 31
1843 37
1844 53
1845 66
1846 82
1847 21
1848 42
1849 80
1850 115
1851 44
1852 119
1853 17
1854 58
1855 5
1856 51
1857 44
1858 96
1859 53
1860 82
1861 32
1862 80
1863 56
1864 31
1865 91
1866 15
1867 8
1868 16
1869 69
1870 18
1871 57
1872 23
1873 69
1874 102
1875 55
1876 80
1877 98
1878 57
1879 30
1880 2
1881 52
1882 23
1883 115
1884 102
1885 106
1886 69
1887 68
1888 2
1889 44
1890 119
1891 61
1892 119
1893 31
1894 98
1895 16
1896 44
1897 44
1898 90
1899 48
1900 55
1901 80
1902 26
1903 55
1904 120
1905 46
1906 52
1907 96
1908 18
1909 47
1910 2
1911 82
1912 30
1913 57
1914 90
1915 47
1916 74
1917 52
1918 47
1919 50
1920 98
1921 51
1922 53
1923 52
1924 113
1925 42
1926 5
1927 16
1928 56
1929 102
1930 55
1931 51
1932 55
1933 47
1934 80
1935 69
1936 5
1937 41
1938 34
1939 44
1940 38
1941 31
1942 139
1943 73
1944 69
1945 38
1946 55
1947 82
1948 51
1949 47
1950 80
1951 73
1952 15
1953 41
1954 115
1955 69
1956 37
1957 26
1958 73
1959 27
1960 53
1961 55
1962 52
1963 57
1964 53
1965 53
1966 2
1967 73
1968 44
1969 36
1970 47
1971 88
1972 7
1973 69
1974 49
1975 55
1976 35
1977 128
1978 42
1979 31
1980 41
1981 18
1982 134
1983 16
1984 46
1985 18
1986 30
1987 141
1988 98
1989 89
1990 47
1991 52
1992 55
1993 115
1994 30
1995 73
1996 59
1997 59
1998 44
1999 73
2000 2
2001 51
2002 30
2003 119
2004 55
2005 56
2006 38
2007 69
2008 31
2009 5
2010 38
2011 113
2012 14
2013 94
2014 51
2015 119
2016 83
2017 38
2018 119
2019 80
2020 115
2021 30
2022 90
2023 115
2024 30
2025 69
2026 102
2027 30
2028 5
2029 23
2030 26
2031 38
2032 30
2033 47
2034 73
2035 2
2036 57
2037 44
2038 44
2039 18
2040 68
2041 38
2042 55
2043 76
2044 57
2045 58
2046 14
2047 14
2048 57
2049 13
2050 120
2051 27
2052 32
2053 68
2054 110
2055 36
2056 39
2057 26
2058 107
2059 69
2060 117
2061 19
2062 30
2063 86
2064 8
2065 60
2066 76
2067 130
2068 11
2069 60
2070 18
2071 44
2072 54
2073 81
2074 19
2075 56
2076 38
2077 43
2078 21
2079 76
2080 0
2081 60
2082 24
2083 136
2084 79
2085 94
2086 121
2087 60
2088 14
2089 16
2090 68
2091 120
2092 18
2093 115
2094 8
2095 111
2096 57
2097 58
2098 68
2099 13
2100 72
2101 82
2102 56
2103 44
2104 76
2105 51
2106 5
2107 31
2108 44
2109 30
2110 115
2111 84
2112 16
2113 68
2114 41
2115 99
2116 26
2117 127
2118 10
2119 40
2120 75
2121 60
2122 61
2123 44
2124 19
2125 5
2126 47
2127 60
2128 97
2129 106
2130 44
2131 26
2132 73
2133 30
2134 44
2135 18
2136 2
2137 46
2138 14
2139 26
2140 61
2141 44
2142 41
2143 55
2144 69
2145 60
2146 40
2147 76
2148 47
2149 128
2150 128
2151 74
2152 96
2153 41
2154 85
2155 85
2156 77
2157 124
2158 85
2159 31
2160 90
2161 115
2162 141
2163 124
2164 7
2165 19
2166 44
2167 134
2168 98
2169 73
2170 118
2171 91
2172 34
2173 57
2174 85
2175 0
2176 93
2177 38
2178 96
2179 14
2180 26
2181 13
2182 117
2183 2
2184 111
2185 69
2186 44
2187 106
2188 100
2189 93
2190 142
2191 73
2192 94
2193 43
2194 85
2195 93
2196 120
2197 122
2198 86
2199 100
2200 44
2201 96
2202 44
2203 27
2204 128
2205 89
2206 88
2207 43
2208 40
2209 17
2210 30
2211 59
2212 60
2213 127
2214 30
2215 73
2216 44
2217 11
2218 0
2219 66
2220 15
2221 121
2222 23
2223 72
2224 44
2225 91
2226 68
2227 98
2228 120
2229 139
2230 97
2231 34
2232 44
2233 17
2234 84
2235 13
2236 5
2237 88
2238 68
2239 44
2240 85
2241 56
2242 95
2243 52
2244 17
2245 25
2246 37
2247 70
2248 46
2249 76
2250 73
2251 44
2252 87
2253 44
2254 47
2255 19
2256 5
2257 10
2258 37
2259 29
2260 16
2261 14
2262 73
2263 84
2264 102
2265 36
2266 44
2267 105
2268 53
2269 18
2270 49
2271 109
2272 100
2273 60
2274 42
2275 54
2276 1
2277 74
2278 100
2279 121
2280 5
2281 52
2282 51
2283 71
2284 83
2285 63
2286 55
2287 55
2288 7
2289 39
2290 88
2291 30
2292 58
2293 91
2294 100
2295 91
2296 49
2297 30
2298 127
2299 58
2300 68
2301 34
2302 112
2303 107
2304 125
2305 56
2306 138
2307 11
2308 85
2309 52
2310 91
2311 143
2312 68
2313 133
2314 49
2315 124
2316 1
2317 115
2318 21
2319 75
2320 68
2321 118
2322 76
2323 44
2324 46
2325 34
2326 12
2327 115
2328 30
2329 102
2330 94
2331 83
2332 98
2333 26
2334 98
2335 7
2336 73
2337 48
2338 130
2339 92
2340 51
2341 70
2342 111
2343 89
2344 43
2345 76
2346 69
2347 9
2348 77
2349 94
2350 26
2351 84
2352 44
2353 33
2354 91
2355 91
2356 19
2357 96
2358 86
2359 40
2360 21
2361 68
2362 80
2363 54
2364 19
2365 18
2366 8
2367 0
2368 26
2369 132
2370 98
2371 54
2372 47
2373 93
2374 96
2375 38
2376 16
2377 44
2378 80
2379 18
2380 64
2381 46
2382 23
2383 44
2384 51
2385 113
2386 51
2387 29
2388 102
2389 109
2390 41
2391 17
2392 94
2393 52
2394 75
2395 10
2396 26
2397 56
2398 18
2399 47
2400 61
2401 74
2402 82
2403 82
2404 44
2405 26
2406 94
2407 80
2408 96
2409 75
2410 18
2411 139
2412 124
2413 92
2414 57
2415 53
2416 119
2417 81
2418 82
2419 42
2420 26
2421 30
2422 41
2423 100
2424 44
2425 80
2426 23
2427 18
2428 119
2429 57
2430 98
2431 49
2432 115
2433 102
2434 78
2435 19
2436 80
2437 47
2438 116
2439 82
2440 44
2441 61
2442 69
2443 1
2444 117
2445 105
2446 62
2447 0
2448 126
2449 91
2450 119
2451 100
2452 47
2453 42
2454 82
2455 90
2456 0
2457 93
2458 9
2459 48
2460 23
2461 89
2462 100
2463 15
2464 51
2465 62
2466 19
2467 84
2468 44
2469 82
2470 88
2471 96
2472 119
2473 19
2474 32
2475 23
2476 101
2477 99
2478 74
2479 85
2480 119
2481 41
2482 120
2483 44
2484 0
2485 136
2486 6
2487 61
2488 26
2489 115
2490 27
2491 23
2492 44
2493 82
2494 115
2495 13
2496 41
2497 135
2498 87
2499 98
2500 115
2501 73
2502 47
2503 69
2504 23
2505 113
2506 57
2507 44
2508 115
2509 115
2510 15
2511 35
2512 93
2513 103
2514 61
2515 44
2516 69
2517 51
2518 82
2519 14
2520 73
2521 26
2522 31
2523 53
2524 63
2525 115
2526 98
2527 107
2528 82
2529 119
2530 31
2531 69
2532 32
2533 61
2534 69
2535 18
2536 23
2537 119
2538 55
2539 0
2540 28
2541 115
2542 119
2543 69
2544 31
2545 44
2546 23
2547 88
2548 31
2549 37
2550 57
2551 118
2552 115
2553 31
2554 54
2555 0
2556 7
2557 76
2558 21
2559 59
2560 22
2561 73
2562 8
2563 90
2564 27
2565 59
2566 53
2567 52
2568 27
2569 90
2570 115
2571 35
2572 2
2573 41
2574 44
2575 2
2576 85
2577 6
2578 0
2579 18
2580 22
2581 100
2582 120
2583 31
2584 46
2585 81
2586 44
2587 64
2588 128
2589 51
2590 129
2591 115
2592 3
2593 42
2594 46
2595 2
2596 87
2597 14
2598 58
2599 8
2600 8
2601 13
2602 16
2603 61
2604 57
2605 137
2606 1
2607 8
2608 69
2609 59
2610 142
2611 33
2612 96
2613 14
2614 31
2615 32
2616 60
2617 43
2618 55
2619 103
2620 2
2621 43
2622 119
2623 59
2624 5
2625 89
2626 48
2627 91
2628 100
2629 80
2630 0
2631 52
2632 68
2633 68
2634 60
2635 68
2636 73
2637 18
2638 10
2639 69
2640 82
2641 69
2642 40
2643 48
2644 119
2645 48
2646 53
2647 52
2648 18
2649 75
2650 55
2651 18
2652 99
2653 5
2654 80
2655 11
2656 3
2657 23
2658 85
2659 52
2660 7
2661 31
2662 23
2663 119
2664 82
2665 44
2666 113
2667 2
2668 63
2669 73
2670 79
2671 52
2672 69
2673 138
2674 48
2675 0
2676 106
2677 18
2678 30
2679 48
2680 91
2681 17
2682 38
2683 109
2684 31
2685 82
2686 69
2687 90
2688 18
2689 17
2690 91
2691 18
2692 142
2693 30
2694 69
2695 23
2696 2
2697 53
2698 142
2699 2
2700 96
2701 61
2702 8
2703 38
2704 2
2705 38
2706 2
2707 38
2708 85
2709 55
2710 23
2711 14
2712 69
2713 125
2714 23
2715 69
2716 13
2717 48
2718 73
2719 80
2720 52
2721 44
2722 5
2723 131
2724 9
2725 47
2726 32
2727 86
2728 2
2729 82
2730 75
2731 6
2732 69
2733 9
2734 47
2735 9
2736 17
2737 91
2738 27
2739 60
2740 92
2741 133
2742 84
2743 47
2744 91
2745 18
2746 16
2747 31
2748 38
2749 30
2750 47
2751 56
2752 44
2753 128
2754 57
2755 23
2756 84
2757 96
2758 15
2759 80
2760 94
2761 56
2762 0
2763 23
2764 14
2765 119
2766 18
2767 115
2768 43
2769 57
2770 5
2771 23
2772 5
2773 18
2774 55
2775 59
2776 80
2777 38
2778 23
2779 59
2780 23
2781 38
2782 115
2783 47
2784 13
2785 44
2786 44
2787 55
2788 8
2789 124
2790 57
2791 19
2792 96
2793 16
2794 69
2795 68
2796 44
2797 126
2798 10
2799 3
2800 2
2801 69
2802 69
2803 118
2804 96
2805 98
2806 57
2807 44
2808 27
2809 7
2810 69
2811 19
2812 119
2813 3
2814 44
2815 5
2816 18
2817 132
2818 82
2819 51
2820 69
2821 23
2822 31
2823 96
2824 23
2825 51
2826 89
2827 16
2828 2
2829 80
2830 47
2831 2
2832 47
2833 96
2834 82
2835 26
2836 53
2837 69
2838 2
2839 52
2840 22
2841 115
2842 31
2843 53
2844 31
2845 26
2846 94
2847 82
2848 56
2849 31
2850 49
2851 84
2852 18
2853 115
2854 69
2855 76
2856 43
2857 42
2858 47
2859 38
2860 38
2861 119
2862 44
2863 55
2864 18
2865 2
2866 36
2867 101
2868 47
2869 85
2870 17
2871 107
2872 119
2873 107
2874 69
2875 85
2876 26
2877 21
2878 31
2879 115
2880 78
2881 119
2882 80
2883 42
2884 119
2885 18
2886 106
2887 63
2888 134
2889 49
2890 16
2891 69
2892 59
2893 44
2894 61
2895 115
2896 52
2897 53
2898 2
2899 51
2900 30
2901 51
2902 53
2903 2
2904 18
2905 68
2906 96
2907 115
2908 138
2909 62
2910 52
2911 124
2912 17
2913 106
2914 68
2915 54
2916 115
2917 2
2918 34
2919 74
2920 90
2921 61
2922 26
2923 68
2924 41
2925 93
2926 53
2927 23
2928 44
2929 74
2930 2
2931 82
2932 73
2933 73
2934 55
2935 31
2936 73
2937 80
2938 47
2939 47
2940 31
2941 94
2942 10
2943 69
2944 44
2945 34
2946 90
2947 73
2948 61
2949 19
2950 23
2951 57
2952 6
2953 100
2954 82
2955 73
2956 18
2957 0
2958 11
2959 31
2960 51
2961 56
2962 68
2963 61
2964 69
2965 120
2966 53
2967 119
2968 115
2969 61
2970 16
2971 24
2972 115
2973 23
2974 26
2975 112
2976 80
2977 57
2978 5
2979 52
2980 30
2981 57
2982 57
2983 47
2984 66
2985 73
2986 68
2987 73
2988 61
2989 119
2990 26
2991 18
2992 128
2993 68
2994 59
2995 31
2996 38
2997 61
2998 2
2999 31
3000 5
3001 129
3002 1
3003 32
3004 113
3005 6
3006 52
3007 53
3008 53
3009 119
3010 18
3011 2
3012 115
3013 69
3014 32
3015 23
3016 2
3017 52
3018 26
3019 26
3020 9
3021 82
3022 74
3023 115
3024 52
3025 73
3026 68
3027 73
3028 122
3029 57
3030 41
3031 18
3032 69
3033 52
3034 44
3035 41
3036 89
3037 102
3038 82
3039 53
3040 82
3041 80
3042 38
3043 16
3044 31
3045 53
3046 82
3047 52
3048 115
3049 82
3050 69
3051 80
3052 23
3053 30
3054 8
3055 80
3056 115
3057 76
3058 30
3059 18
3060 2
3061 61
3062 14
3063 55
3064 111
3065 82
3066 44
3067 40
3068 82
3069 26
3070 57
3071 55
3072 105
3073 119
3074 76
3075 26
3076 2
3077 131
3078 15
3079 34
3080 36
3081 119
3082 52
3083 31
3084 2
3085 26
3086 52
3087 10
3088 41
3089 55
3090 46
3091 17
3092 26
3093 52
3094 2
3095 76
3096 46
3097 52
3098 73
3099 107
3100 69
3101 7
3102 19
3103 119
3104 26
3105 82
3106 44
3107 23
3108 70
3109 86
3110 138
3111 31
3112 119
3113 107
3114 102
3115 24
3116 99
3117 44
3118 2
3119 52
3120 122
3121 108
3122 41
3123 53
3124 26
3125 112
3126 2
3127 69
3128 5
3129 14
3130 119
3131 68
3132 47
3133 119
3134 53
3135 68
3136 60
3137 58
3138 119
3139 5
3140 119
3141 35
3142 21
3143 53
3144 38
3145 29
3146 38
3147 38
3148 11
3149 23
3150 30
3151 52
3152 12
3153 26
3154 69
3155 44
3156 23
3157 56
3158 82
3159 5
3160 60
3161 47
3162 60
3163 23
3164 5
3165 119
3166 82
3167 57
3168 30
3169 37
3170 2
3171 2
3172 16
3173 0
3174 58
3175 2
3176 54
3177 74
3178 23
3179 26
3180 82
3181 68
3182 70
3183 52
3184 128
3185 12
3186 44
3187 42
3188 119
3189 62
3190 75
3191 91
3192 2
3193 119
3194 55
3195 55
3196 106
3197 38
3198 92
3199 52
3200 23
3201 115
3202 59
3203 46
3204 82
3205 69
3206 37
3207 102
3208 13
3209 2
3210 31
3211 85
3212 119
3213 124
3214 62
3215 38
3216 34
3217 42
3218 18
3219 17
3220 39
3221 5
3222 61
3223 18
3224 17
3225 119
3226 2
3227 5
3228 44
3229 8
3230 106
3231 98
3232 88
3233 90
3234 15
3235 129
3236 7
3237 5
3238 31
3239 82
3240 24
3241 18
3242 41
3243 113
3244 44
3245 74
3246 115
3247 15
3248 60
3249 69
3250 90
3251 20
3252 52
3253 96
3254 23
3255 34
3256 68
3257 44
3258 23
3259 23
3260 49
3261 96
3262 89
3263 36
3264 56
3265 96
3266 23
3267 5
3268 13
3269 18
3270 85
3271 124
3272 128
3273 23
3274 19
3275 44
3276 60
3277 16
3278 116
3279 60
3280 120
3281 18
3282 82
3283 75
3284 85
3285 5
3286 90
3287 14
3288 69
3289 9
3290 0
3291 91
3292 85
3293 88
3294 7
3295 2
3296 19
3297 62
3298 91
3299 85
3300 16
3301 68
3302 90
3303 100
3304 60
3305 85
3306 17
3307 5
3308 49
3309 141
3310 82
3311 84
3312 30
3313 53
3314 46
3315 35
3316 128
3317 19
3318 93
3319 5
3320 16
3321 119
3322 91
3323 84
3324 17
3325 98
3326 38
3327 51
3328 27
3329 32
3330 50
3331 50
3332 96
3333 31
3334 2
3335 119
3336 57
3337 102
3338 44
3339 91
3340 47
3341 29
3342 141
3343 23
3344 82
3345 51
3346 82
3347 52
3348 52
3349 15
3350 132
3351 16
3352 80
3353 14
3354 47
3355 15
3356 7
3357 15
3358 34
3359 62
3360 80
3361 88
3362 82
3363 36
3364 5
3365 2
3366 84
3367 48
3368 111
3369 23
3370 40
3371 18
3372 100
3373 5
3374 10
3375 44
3376 2
3377 98
3378 84
3379 52
3380 82
3381 20
3382 23
3383 98
3384 114
3385 105
3386 94
3387 127
3388 40
3389 30
3390 32
3391 98
3392 7
3393 107
3394 82
3395 75
3396 26
3397 98
3398 34
3399 10
3400 44
3401 119
3402 21
3403 18
3404 5
3405 104
3406 38
3407 82
3408 2
3409 52
3410 47
3411 56
3412 80
3413 124
3414 38
3415 10
3416 17
3417 18
3418 63
3419 38
3420 2
3421 96
3422 85
3423 88
3424 44
3425 68
3426 18
3427 57
3428 44
3429 29
3430 4
3431 2
3432 124
3433 82
3434 2
3435 18
3436 66
3437 83
3438 56
3439 59
3440 16
3441 18
3442 63
3443 15
3444 72
3445 119
3446 113
3447 42
3448 119
3449 18
3450 16
3451 23
3452 47
3453 75
3454 114
3455 38
3456 47
3457 115
3458 47
3459 125
3460 115
3461 5
3462 101
3463 0
3464 34
3465 60
3466 47
3467 82
3468 80
3469 40
3470 5
3471 98
3472 119
3473 13
3474 37
3475 90
3476 23
3477 18
3478 113
3479 16
3480 56
3481 5
3482 18
3483 18
3484 18
3485 88
3486 47
3487 23
3488 5
3489 38
3490 18
3491 18
3492 2
3493 107
3494 41
3495 57
3496 37
3497 90
3498 113
3499 5
3500 38
3501 0
3502 87
3503 115
3504 36
3505 98
3506 80
3507 74
3508 71
3509 133
3510 67
3511 23
3512 86
3513 87
3514 51
3515 23
3516 128
3517 61
3518 85
3519 27
3520 141
3521 69
3522 2
3523 88
3524 38
3525 13
3526 57
3527 119
3528 143
3529 102
3530 132
3531 22
3532 142
3533 9
3534 132
3535 11
3536 52
3537 47
3538 55
3539 26
3540 23
3541 0
3542 48
3543 16
3544 2
3545 35
3546 82
3547 98
3548 80
3549 5
3550 44
3551 52
3552 115
3553 22
3554 57
3555 51
3556 38
3557 82
3558 47
3559 119
3560 38
3561 47
3562 120
3563 44
3564 126
3565 2
3566 53
3567 2
3568 76
3569 14
3570 18
3571 5
3572 47
3573 57
3574 31
3575 5
3576 55
3577 47
3578 69
3579 73
3580 37
3581 115
3582 47
3583 53
3584 18
3585 38
3586 39
3587 115
3588 37
3589 0
3590 11
3591 52
3592 30
3593 70
3594 18
3595 73
3596 85
3597 95
3598 88
3599 69
3600 32
3601 31
3602 10
3603 94
3604 136
3605 25
3606 0
3607 21
3608 12
3609 106
3610 44
3611 46
3612 35
3613 82
3614 8
3615 131
3616 31
3617 119
3618 44
3619 44
3620 60
3621 68
3622 14
3623 128
3624 102
3625 55
3626 127
3627 106
3628 85
3629 46
3630 91
3631 12
3632 115
3633 0
3634 60
3635 53
3636 132
3637 13
3638 2
3639 15
3640 0
3641 66
3642 2
3643 55
3644 2
3645 53
3646 23
3647 119
3648 2
3649 82
3650 137
3651 52
3652 31
3653 124
3654 25
3655 54
3656 5
3657 18
3658 106
3659 52
3660 70
3661 32
3662 19
3663 73
3664 82
3665 82
3666 2
3667 82
3668 115
3669 119
3670 2
3671 82
3672 52
3673 65
3674 52
3675 131
3676 14
3677 52
3678 18
3679 137
3680 48
3681 30
3682 66
3683 60
3684 18
3685 38
3686 15
3687 5
3688 99
3689 107
3690 50
3691 48
3692 32
3693 36
3694 55
3695 5
3696 32
3697 38
3698 96
3699 138
3700 85
3701 31
3702 85
3703 38
3704 32
3705 96
3706 0
3707 44
3708 0
3709 8
3710 105
3711 17
3712 82
3713 26
3714 119
3715 82
3716 143
3717 68
3718 82
3719 82
3720 91
3721 26
3722 5
3723 119
3724 115
3725 82
3726 44
3727 47
3728 84
3729 32
3730 53
3731 52
3732 52
3733 2
3734 39
3735 44
3736 74
3737 5
3738 73
3739 14
3740 44
3741 124
3742 14
3743 119
3744 51
3745 38
3746 115
3747 62
3748 60
3749 33
3750 80
3751 119
3752 87
3753 18
3754 82
3755 66
3756 27
3757 2
3758 31
3759 80
3760 5
3761 140
3762 92
3763 128
3764 89
3765 34
3766 38
3767 78
3768 0
3769 115
3770 69
3771 80
3772 116
3773 56
3774 18
3775 82
3776 52
3777 80
3778 52
3779 38
3780 82
3781 98
3782 57
3783 57
3784 82
3785 98
3786 120
3787 44
3788 98
3789 23
3790 81
3791 115
3792 82
3793 26
3794 128
3795 82
3796 2
3797 96
3798 57
3799 28
3800 93
3801 138
3802 69
3803 119
3804 26
3805 38
3806 80
3807 94
3808 7
3809 47
3810 98
3811 47
3812 80
3813 69
3814 82
3815 26
3816 60
3817 38
3818 80
3819 18
3820 115
3821 23
3822 23
3823 4
3824 91
3825 42
3826 42
3827 72
3828 52
3829 133
3830 52
3831 18
3832 28
3833 82
3834 49
3835 38
3836 82
3837 38
3838 16
3839 67
3840 38
3841 86
3842 18
3843 115
3844 16
3845 18
3846 42
3847 31
3848 51
3849 54
3850 9
3851 94
3852 60
3853 44
3854 38
3855 30
3856 93
3857 13
3858 140
3859 44
3860 38
3861 119
3862 94
3863 2
3864 47
3865 80
3866 91
3867 2
3868 31
3869 82
3870 5
3871 61
3872 19
3873 94
3874 47
3875 5
3876 52
3877 44
3878 25
3879 127
3880 91
3881 42
3882 48
3883 57
3884 115
3885 24
3886 91
3887 44
3888 2
3889 115
3890 55
3891 69
3892 119
3893 37
3894 23
3895 55
3896 91
3897 38
3898 102
3899 51
3900 52
3901 69
3902 56
3903 47
3904 2
3905 12
3906 69
3907 41
3908 57
3909 80
3910 16
3911 16
3912 36
3913 52
3914 47
3915 23
3916 52
3917 44
3918 115
3919 115
3920 115
3921 80
3922 98
3923 5
3924 49
3925 56
3926 68
3927 81
3928 82
3929 68
3930 47
3931 69
3932 53
3933 16
3934 69
3935 38
3936 42
3937 90
3938 44
3939 5
3940 119
3941 98
3942 5
3943 55
3944 90
3945 80
3946 115
3947 53
3948 62
3949 69
3950 55
3951 61
3952 54
3953 57
3954 120
3955 53
3956 68
3957 80
3958 2
3959 47
3960 119
3961 51
3962 53
3963 80
3964 38
3965 37
3966 68
3967 52
3968 55
3969 30
3970 80
3971 55
3972 51
3973 57
3974 57
3975 73
3976 87
3977 115
3978 64
3979 119
3980 115
3981 57
3982 61
3983 87
3984 59
3985 115
3986 115
3987 73
3988 142
3989 93
3990 52
3991 80
3992 31
3993 51
3994 53
3995 51
3996 61
3997 80
3998 119
3999 53
4000 99
4001 36
4002 119
4003 5
4004 89
4005 115
4006 47
4007 44
4008 115
4009 73
4010 53
4011 37
4012 57
4013 53
4014 123
4015 31
4016 77
4017 49
4018 2
4019 59
4020 18
4021 120
4022 6
4023 69
4024 52
4025 44
4026 73
4027 16
4028 96
4029 5
4030 113
4031 32
4032 55
4033 69
4034 52
4035 82
4036 26
4037 119
4038 69
4039 18
4040 44
4041 115
4042 82
4043 0
4044 31
4045 5
4046 47
4047 69
4048 89
4049 2
4050 69
4051 69
4052 57
4053 80
4054 53
4055 40
4056 32
4057 119
4058 47
4059 23
4060 65
4061 37
4062 122
4063 57
4064 31
4065 82
4066 52
4067 102
4068 47
4069 119
4070 6
4071 80
4072 2
4073 52
4074 54
4075 53
4076 2
4077 56
4078 52
4079 18
4080 86
4081 140
4082 61
4083 54
4084 76
4085 23
4086 23
4087 119
4088 2
4089 63
4090 2
4091 49
4092 76
4093 26
4094 53
4095 69
4096 68
4097 31
4098 47
4099 56
4100 47
4101 65
4102 119
4103 6
4104 57
4105 69
4106 12
4107 39
4108 10
4109 31
4110 69
4111 80
4112 6
4113 120
4114 73
4115 68
4116 84
4117 4
4118 73
4119 46
4120 62
4121 26
4122 5
4123 75
4124 56
4125 24
4126 38
4127 128
4128 2
4129 33
4130 68
4131 5
4132 2
4133 13
4134 31
4135 41
4136 8
4137 76
4138 56
4139 49
4140 31
4141 69
4142 76
4143 21
4144 28
4145 44
4146 46
4147 14
4148 5
4149 58
4150 82
4151 33
4152 17
4153 57
4154 29
4155 16
4156 84
4157 36
4158 114
4159 2
4160 140
4161 6
4162 47
4163 55
4164 68
4165 80
4166 131
4167 11
4168 11
4169 55
4170 80
4171 30
4172 119
4173 67
4174 75
4175 11
4176 37
4177 14
4178 59
4179 8
4180 31
4181 19
4182 70
4183 38
4184 119
4185 47
4186 44
4187 108
4188 14
4189 93
4190 93
4191 58
4192 137
4193 32
4194 91
4195 63
4196 138
4197 26
4198 70
4199 30
4200 38
4201 7
4202 73
4203 59
4204 128
4205 53
4206 125
4207 0
4208 95
4209 36
4210 122
4211 19
4212 115
4213 95
4214 31
4215 44
4216 58
4217 91
4218 87
4219 125
4220 26
4221 85
4222 27
4223 136
4224 69
4225 60
4226 52
4227 75
4228 13
4229 37
4230 61
4231 53
4232 96
4233 30
4234 74
4235 66
4236 96
4237 9
4238 17
4239 5
4240 17
4241 0
4242 90
4243 30
4244 21
4245 70
4246 39
4247 60
4248 27
4249 44
4250 57
4251 31
4252 24
4253 51
4254 120
4255 86
4256 90
4257 0
4258 66
4259 43
4260 9
4261 89
4262 55
4263 88
4264 25
4265 25
4266 77
4267 34
4268 86
4269 31
4270 100
4271 85
4272 15
4273 18
4274 78
4275 98
4276 97
4277 32
4278 0
4279 85
4280 68
4281 85
4282 55
4283 44
4284 89
4285 134
4286 119
4287 44
4288 119
4289 44
4290 56
4291 5
4292 49
4293 6
4294 32
4295 23
4296 16
4297 56
4298 17
4299 29
4300 123
4301 36
4302 41
4303 44
4304 26
4305 84
4306 88
4307 73
4308 5
4309 52
4310 23
4311 49
4312 14
4313 73
4314 126
4315 94
4316 44
4317 50
4318 74
4319 49
4320 14
4321 93
4322 16
4323 16
4324 16
4325 100
4326 124
4327 78
4328 8
4329 42
4330 142
4331 31
4332 52
4333 34
4334 7
4335 96
4336 87
4337 74
4338 136
4339 56
4340 10
4341 33
4342 21
4343 96
4344 24
4345 46
4346 42
4347 77
4348 12
4349 86
4350 122
4351 92
4352 7
4353 56
4354 65
4355 49
4356 35
4357 141
4358 41
4359 98
4360 11
4361 51
4362 53
4363 11
4364 61
4365 82
4366 82
4367 24
4368 80
4369 16
4370 45
4371 26
4372 76
4373 107
4374 31
4375 31
4376 21
4377 80
4378 4
4379 44
4380 17
4381 107
4382 76
4383 25
4384 58
4385 42
4386 83
4387 8
4388 98
4389 7
4390 81
4391 57
4392 124
4393 22
4394 100
4395 41
4396 108
4397 82
4398 38
4399 127
4400 12
4401 37
4402 8
4403 32
4404 128
4405 23
4406 18
4407 61
4408 83
4409 29
4410 66
4411 33
4412 44
4413 37
4414 116
4415 24
4416 54
4417 18
4418 56
4419 52
4420 47
4421 61
4422 56
4423 23
4424 26
4425 102
4426 96
4427 35
4428 7
4429 47
4430 44
4431 15
4432 18
4433 49
4434 18
4435 18
4436 37
4437 7
4438 11
4439 20
4440 134
4441 56
4442 44
4443 93
4444 32
4445 42
4446 9
4447 36
4448 37
4449 53
4450 51
4451 68
4452 18
4453 87
4454 118
4455 113
4456 47
4457 59
4458 95
4459 123
4460 104
4461 67
4462 44
4463 82
4464 67
4465 130
4466 57
4467 30
4468 90
4469 72
4470 133
4471 124
4472 98
4473 69
4474 52
4475 59
4476 98
4477 98
4478 129
4479 37
4480 10
4481 23
4482 59
4483 60
4484 23
4485 115
4486 19
4487 90
4488 123
4489 82
4490 70
4491 107
4492 142
4493 82
4494 37
4495 87
4496 61
4497 96
4498 118
4499 47
4500 86
4501 56
4502 57
4503 59
4504 17
4505 61
4506 99
4507 47
4508 96
4509 88
4510 82
4511 87
4512 20
4513 47
4514 52
4515 52
4516 140
4517 58
4518 118
4519 102
4520 81
4521 60
4522 132
4523 70
4524 94
4525 82
4526 82
4527 126
4528 17
4529 42
4530 0
4531 115
4532 85
4533 52
4534 49
4535 57
4536 85
4537 44
4538 70
4539 49
4540 47
4541 38
4542 94
4543 93
4544 52
4545 105
4546 73
4547 119
4548 23
4549 69
4550 69
4551 107
4552 57
4553 23
4554 0
4555 119
4556 2
4557 9
4558 124
4559 16
4560 32
4561 18
4562 115
4563 90
4564 52
4565 23
4566 115
4567 55
4568 105
4569 23
4570 137
4571 57
4572 32
4573 52
4574 46
4575 76
4576 41
4577 31
4578 97
4579 119
4580 80
4581 98
4582 134
4583 106
4584 22
4585 11
4586 69
4587 8
4588 119
4589 18
4590 55
4591 26
4592 44
4593 123
4594 69
4595 54
4596 106
4597 18
4598 119
4599 91
4600 53
4601 32
4602 35
4603 5
4604 113
4605 106
4606 115
4607 11
4608 42
4609 77
4610 30
4611 95
4612 30
4613 90
4614 90
4615 51
4616 90
4617 55
4618 8
4619 14
4620 30
4621 17
4622 106
4623 44
4624 52
4625 76
4626 2
4627 44
4628 54
4629 2
4630 101
4631 41
4632 2
4633 12
4634 2
4635 20
4636 2
4637 131
4638 86
4639 12
4640 41
4641 140
4642 52
4643 52
4644 119
4645 68
4646 29
4647 86
4648 23
4649 73
4650 8
4651 51
4652 22
4653 29
4654 19
4655 2
4656 20
4657 73
4658 2
4659 37
4660 23
4661 68
4662 5
4663 48
4664 2
4665 30
4666 90
4667 5
4668 44
4669 90
4670 2
4671 5
4672 44
4673 43
4674 90
4675 44
4676 5
4677 113
4678 107
4679 82
4680 45
4681 49
4682 8
4683 21
4684 127
4685 44
4686 8
4687 60
4688 106
4689 115
4690 52
4691 113
4692 15
4693 60
4694 73
4695 18
4696 138
4697 82
4698 106
4699 31
4700 93
4701 33
4702 44
4703 5
4704 91
4705 52
4706 105
4707 70
4708 58
4709 32
4710 44
4711 27
4712 23
4713 23
4714 23
4715 98
4716 120
4717 96
4718 73
4719 5
4720 138
4721 65
4722 119
4723 44
4724 132
4725 51
4726 14
4727 23
4728 34
4729 5
4730 39
4731 32
4732 111
4733 44
4734 57
4735 70
4736 44
4737 69
4738 47
4739 82
4740 19
4741 100
4742 52
4743 52
4744 52
4745 17
4746 119
4747 9
4748 86
4749 5
4750 17
4751 38
4752 44
4753 33
4754 38
4755 80
4756 52
4757 15
4758 23
4759 38
4760 46
4761 96
4762 100
4763 15
4764 18
4765 80
4766 18
4767 69
4768 8
4769 26
4770 18
4771 33
4772 52
4773 34
4774 68
4775 52
4776 85
4777 128
4778 68
4779 69
4780 23
4781 128
4782 69
4783 52
4784 119
4785 44
4786 7
4787 69
4788 82
4789 17
4790 47
4791 9
4792 62
4793 69
4794 80
4795 80
4796 44
4797 21
4798 8
4799 115
4800 16
4801 23
4802 91
4803 15
4804 36
4805 26
4806 61
4807 55
4808 69
4809 52
4810 91
4811 38
4812 44
4813 7
4814 55
4815 17
4816 19
4817 57
4818 47
4819 93
4820 99
4821 47
4822 5
4823 18
4824 51
4825 2
4826 94
4827 104
4828 47
4829 56
4830 82
4831 93
4832 73
4833 60
4834 5
4835 18
4836 7
4837 23
4838 17
4839 82
4840 119
4841 44
4842 17
4843 18
4844 47
4845 44
4846 44
4847 2
4848 115
4849 94
4850 80
4851 2
4852 131
4853 78
4854 82
4855 32
4856 106
4857 2
4858 80
4859 61
4860 16
4861 19
4862 55
4863 69
4864 2
4865 118
4866 82
4867 44
4868 55
4869 21
4870 80
4871 51
4872 55
4873 82
4874 94
4875 23
4876 26
4877 2
4878 19
4879 52
4880 80
4881 80
4882 98
4883 30
4884 2
4885 19
4886 119
4887 94
4888 2
4889 119
4890 53
4891 115
4892 57
4893 38
4894 52
4895 47
4896 34
4897 82
4898 5
4899 5
4900 44
4901 19
4902 55
4903 57
4904 81
4905 38
4906 80
4907 52
4908 55
4909 47
4910 38
4911 69
4912 2
4913 82
4914 98
4915 77
4916 105
4917 16
4918 19
4919 44
4920 52
4921 69
4922 80
4923 23
4924 40
4925 115
4926 23
4927 31
4928 31
4929 89
4930 16
4931 55
4932 38
4933 47
4934 23
4935 55
4936 61
4937 52
4938 115
4939 70
4940 38
4941 28
4942 12
4943 90
4944 31
4945 38
4946 19
4947 47
4948 18
4949 54
4950 23
4951 100
4952 52
4953 47
4954 5
4955 23
4956 119
4957 107
4958 16
4959 57
4960 70
4961 119
4962 18
4963 57
4964 31
4965 52
4966 82
4967 54
4968 47
4969 23
4970 26
4971 31
4972 57
4973 23
4974 51
4975 82
4976 23
4977 30
4978 115
4979 80
4980 2
4981 31
4982 59
4983 19
4984 42
4985 38
4986 47
4987 68
4988 5
4989 94
4990 73
4991 5
4992 74
4993 115
4994 115
4995 30
4996 66
4997 82
4998 52
4999 100
5000 2
5001 16
5002 73
5003 143
5004 52
5005 17
5006 118
5007 56
5008 85
5009 98
5010 14
5011 69
5012 53
5013 16
5014 2
5015 53
5016 82
5017 18
5018 55
5019 53
5020 5
5021 26
5022 86
5023 80
5024 68
5025 19
5026 48
5027 82
5028 115
5029 69
5030 53
5031 2
5032 30
5033 38
5034 18
5035 73
5036 5
5037 58
5038 69
5039 98
5040 115
5041 33
5042 73
5043 42
5044 68
5045 119
5046 115
5047 57
5048 75
5049 73
5050 52
5051 26
5052 80
5053 98
5054 56
5055 84
5056 44
5057 68
5058 38
5059 132
5060 80
5061 2
5062 69
5063 30
5064 44
5065 88
5066 128
5067 57
5068 123
5069 57
5070 82
5071 53
5072 73
5073 44
5074 11
5075 23
5076 94
5077 38
5078 25
5079 31
5080 115
5081 5
5082 80
5083 119
5084 57
5085 127
5086 52
5087 69
5088 115
5089 79
5090 57
5091 88
5092 82
5093 119
5094 69
5095 30
5096 31
5097 26
5098 80
5099 32
5100 113
5101 82
5102 138
5103 115
5104 34
5105 53
5106 74
5107 9
5108 108
5109 0
5110 57
5111 69
5112 115
5113 20
5114 23
5115 69
5116 52
5117 60
5118 5
5119 51
5120 52
5121 28
5122 73
5123 85
5124 6
5125 112
5126 130
5127 133
5128 14
5129 29
5130 49
5131 119
5132 35
5133 82
5134 52
5135 0
5136 100
5137 61
5138 5
5139 73
5140 115
5141 2
5142 90
5143 46
5144 11
5145 73
5146 2
5147 14
5148 8
5149 2
5150 73
5151 44
5152 55
5153 8
5154 48
5155 128
5156 111
5157 115
5158 33
5159 31
5160 38
5161 31
5162 0
5163 2
5164 88
5165 69
5166 90
5167 128
5168 59
5169 57
5170 30
5171 9
5172 96
5173 119
5174 2
5175 119
5176 142
5177 90
5178 119
5179 44
5180 119
5181 76
5182 119
5183 31
5184 68
5185 75
5186 12
5187 106
5188 26
5189 98
5190 113
5191 38
5192 87
5193 123
5194 14
5195 42
5196 2
5197 22
5198 23
5199 2
5200 43
5201 14
5202 110
5203 2
5204 83
5205 8
5206 26
5207 82
5208 40
5209 38
5210 26
5211 5
5212 84
5213 14
5214 131
5215 2
5216 40
5217 114
5218 38
5219 5
5220 44
5221 31
5222 2
5223 80
5224 23
5225 67
5226 119
5227 52
5228 2
5229 2
5230 2
5231 5
5232 76
5233 73
5234 82
5235 67
5236 44
5237 23
5238 76
5239 64
5240 53
5241 23
5242 44
5243 26
5244 2
5245 111
5246 119
5247 46
5248 119
5249 68
5250 18
5251 38
5252 140
5253 18
5254 5
5255 60
5256 44
5257 2
5258 23
5259 59
5260 68
5261 15
5262 69
5263 46
5264 86
5265 53
5266 62
5267 39
5268 38
5269 40
5270 52
5271 32
5272 96
5273 129
5274 82
5275 96
5276 26
5277 119
5278 38
5279 55
5280 98
5281 23
5282 126
5283 70
5284 110
5285 76
5286 46
5287 25
5288 71
5289 26
5290 18
5291 34
5292 33
5293 38
5294 52
5295 17
5296 119
5297 18
5298 39
5299 41
5300 98
5301 5
5302 5
5303 140
5304 17
5305 27
5306 143
5307 82
5308 44
5309 38
5310 96
5311 30
5312 7
5313 17
5314 19
5315 17
5316 19
5317 7
5318 120
5319 38
5320 19
5321 16
5322 44
5323 110
5324 124
5325 23
5326 90
5327 94
5328 23
5329 120
5330 0
5331 8
5332 142
5333 34
5334 91
5335 89
5336 105
5337 95
5338 126
5339 49
5340 5
5341 18
5342 49
5343 119
5344 36
5345 5
5346 82
5347 14
5348 16
5349 4
5350 23
5351 24
5352 40
5353 42
5354 38
5355 65
5356 85
5357 23
5358 16
5359 68
5360 5
5361 11
5362 60
5363 82
5364 17
5365 52
5366 126
5367 58
5368 105
5369 96
5370 68
5371 119
5372 38
5373 6
5374 31
5375 30
5376 18
5377 52
5378 53
5379 82
5380 5
5381 2
5382 52
5383 119
5384 8
5385 17
5386 115
5387 38
5388 42
5389 51
5390 52
5391 47
5392 55
5393 16
5394 19
5395 52
5396 99
5397 5
5398 38
5399 123
5400 49
5401 77
5402 19
5403 26
5404 82
5405 128
5406 44
5407 52
5408 19
5409 56
5410 119
5411 98
5412 86
5413 81
5414 5
5415 2
5416 119
5417 23
5418 12
5419 94
5420 56
5421 80
5422 134
5423 120
5424 19
5425 52
5426 44
5427 46
5428 52
5429 11
5430 8
5431 45
5432 82
5433 82
5434 18
5435 80
5436 22
5437 11
5438 34
5439 119
5440 96
5441 5
5442 2
5443 86
5444 17
5445 5
5446 18
5447 41
5448 100
5449 46
5450 42
5451 52
5452 42
5453 44
5454 32
5455 16
5456 31
5457 52
5458 33
5459 47
5460 95
5461 140
5462 52
5463 120
5464 56
5465 17
5466 53
5467 62
5468 15
5469 5
5470 90
5471 38
5472 50
5473 36
5474 38
5475 18
5476 57
5477 59
5478 68
5479 51
5480 52
5481 12
5482 53
5483 26
5484 137
5485 130
5486 7
5487 5
5488 70
5489 12
5490 49
5491 102
5492 80
5493 89
5494 51
5495 46
5496 22
5497 38
5498 57
5499 115
5500 120
5501 8
5502 23
5503 37
5504 117
5505 59
5506 18
5507 82
5508 100
5509 119
5510 18
5511 9
5512 83
5513 96
5514 23
5515 23
5516 26
5517 23
5518 38
5519 119
5520 23
5521 79
5522 39
5523 49
5524 119
5525 100
5526 52
5527 80
5528 47
5529 82
5530 96
5531 42
5532 69
5533 2
5534 57
5535 24
5536 5
5537 56
5538 52
5539 130
5540 87
5541 44
5542 52
5543 115
5544 2
5545 89
5546 48
5547 44
5548 119
5549 86
5550 107
5551 0
5552 85
5553 57
5554 2
5555 42
5556 37
5557 5
5558 116
5559 96
5560 80
5561 32
5562 52
5563 5
5564 88
5565 73
5566 132
5567 44
5568 80
5569 63
5570 100
5571 111
5572 42
5573 80
5574 76
5575 50
5576 23
5577 135
5578 52
5579 55
5580 9
5581 85
5582 84
5583 57
5584 129
5585 47
5586 23
5587 2
5588 18
5589 6
5590 82
5591 18
5592 128
5593 82
5594 82
5595 47
5596 23
5597 119
5598 119
5599 57
5600 47
5601 51
5602 80
5603 44
5604 82
5605 69
5606 53
5607 82
5608 119
5609 55
5610 86
5611 52
5612 52
5613 44
5614 19
5615 80
5616 124
5617 30
5618 2
5619 36
5620 31
5621 82
5622 44
5623 73
5624 69
5625 18
5626 88
5627 15
5628 5
5629 115
5630 36
5631 47
5632 8
5633 52
5634 107
5635 107
5636 44
5637 77
5638 55
5639 130
5640 92
5641 128
5642 19
5643 21
5644 118
5645 128
5646 12
5647 92
5648 85
5649 76
5650 18
5651 73
5652 41
5653 55
5654 26
5655 21
5656 46
5657 19
5658 25
5659 100
5660 32
5661 57
5662 41
5663 42
5664 44
5665 73
5666 38
5667 129
5668 0
5669 2
5670 5
5671 59
5672 115
5673 47
5674 40
5675 99
5676 9
5677 36
5678 52
5679 23
5680 55
5681 0
5682 116
5683 55
5684 59
5685 81
5686 11
5687 57
5688 47
5689 14
5690 50
5691 52
5692 58
5693 80
5694 68
5695 82
5696 82
5697 141
5698 140
5699 53
5700 5
5701 33
5702 2
5703 29
5704 58
5705 111
5706 60
5707 31
5708 95
5709 38
5710 29
5711 41
5712 99
5713 0
5714 44
5715 59
5716 18
5717 23
5718 61
5719 89
5720 93
5721 44
5722 97
5723 18
5724 131
5725 82
5726 23
5727 113
5728 63
5729 5
5730 55
5731 52
5732 31
5733 53
5734 38
5735 2
5736 5
5737 51
5738 38
5739 5
5740 34
5741 44
5742 52
5743 52
5744 82
5745 44
5746 38
5747 53
5748 53
5749 62
5750 38
5751 69
5752 52
5753 21
5754 5
5755 85
5756 115
5757 59
5758 32
5759 2
5760 77
5761 27
5762 6
5763 17
5764 107
5765 45
5766 17
5767 12
5768 85
5769 44
5770 117
5771 23
5772 110
5773 23
5774 51
5775 69
5776 52
5777 0
5778 44
5779 47
5780 5
5781 37
5782 69
5783 44
5784 116
5785 69
5786 52
5787 38
5788 18
5789 98
5790 32
5791 82
5792 18
5793 59
5794 18
5795 2
5796 32
5797 115
5798 2
5799 59
5800 90
5801 97
5802 85
5803 68
5804 43
5805 15
5806 115
5807 69
5808 30
5809 44
5810 52
5811 49
5812 82
5813 82
5814 108
5815 90
5816 82
5817 73
5818 38
5819 85
5820 52
5821 69
5822 47
5823 82
5824 57
5825 115
5826 52
5827 107
5828 115
5829 110
5830 115
5831 56
5832 38
5833 2
5834 18
5835 5
5836 57
5837 123
5838 49
5839 6
5840 98
5841 84
5842 124
5843 11
5844 52
5845 53
5846 119
5847 82
5848 38
5849 57
5850 98
5851 119
5852 23
5853 115
5854 115
5855 18
5856 84
5857 52
5858 69
5859 57
5860 98
5861 38
5862 115
5863 143
5864 128
5865 57
5866 92
5867 95
5868 47
5869 5
5870 44
5871 128
5872 44
5873 60
5874 5
5875 92
5876 55
5877 44
5878 98
5879 38
5880 19
5881 68
5882 119
5883 18
5884 52
5885 51
5886 44
5887 52
5888 119
5889 82
5890 18
5891 60
5892 69
5893 115
5894 55
5895 82
5896 102
5897 44
5898 80
5899 42
5900 53
5901 100
5902 80
5903 42
5904 115
5905 46
5906 16
5907 5
5908 2
5909 57
5910 2
5911 25
5912 38
5913 57
5914 15
5915 15
5916 47
5917 46
5918 49
5919 38
5920 53
5921 38
5922 38
5923 57
5924 2
5925 55
5926 2
5927 55
5928 128
5929 96
5930 2
5931 18
5932 119
5933 7
5934 47
5935 52
5936 82
5937 37
5938 119
5939 44
5940 52
5941 98
5942 23
5943 115
5944 75
5945 47
5946 69
5947 53
5948 55
5949 5
5950 16
5951 69
5952 18
5953 57
5954 42
5955 129
5956 5
5957 29
5958 18
5959 38
5960 38
5961 86
5962 40
5963 128
5964 38
5965 44
5966 130
5967 5
5968 2
5969 119
5970 83
5971 31
5972 126
5973 55
5974 18
5975 57
5976 108
5977 69
5978 55
5979 90
5980 23
5981 80
5982 102
5983 52
5984 18
5985 73
5986 5
5987 23
5988 18
5989 120
5990 19
5991 109
5992 57
5993 82
5994 102
5995 47
5996 44
5997 30
5998 27
5999 47
6000 80
6001 44
6002 23
6003 38
6004 69
6005 80
6006 55
6007 68
6008 102
6009 119
6010 82
6011 2
6012 31
6013 24
6014 2
6015 82
6016 68
6017 26
6018 98
6019 38
6020 52
6021 119
6022 30
6023 53
6024 18
6025 73
6026 23
6027 55
6028 23
6029 30
6030 59
6031 47
6032 55
6033 115
6034 90
6035 38
6036 69
6037 82
6038 119
6039 26
6040 80
6041 26
6042 82
6043 31
6044 73
6045 38
6046 60
6047 31
6048 47
6049 41
6050 0
6051 100
6052 74
6053 0
6054 38
6055 104
6056 98
6057 30
6058 31
6059 80
6060 119
6061 31
6062 137
6063 62
6064 2
6065 115
6066 5
6067 30
6068 30
6069 80
6070 18
6071 68
6072 55
6073 80
6074 52
6075 76
6076 51
6077 55
6078 69
6079 52
6080 80
6081 5
6082 6
6083 90
6084 2
6085 80
6086 29
6087 61
6088 115
6089 90
6090 0
6091 26
6092 44
6093 57
6094 52
6095 90
6096 30
6097 85
6098 61
6099 94
6100 27
6101 18
6102 52
6103 30
6104 17
6105 56
6106 115
6107 0
6108 41
6109 94
6110 6
6111 53
6112 53
6113 115
6114 82
6115 140
6116 80
6117 14
6118 69
6119 38
6120 55
6121 5
6122 119
6123 55
6124 73
6125 38
6126 2
6127 16
6128 57
6129 51
6130 30
6131 107
6132 23
6133 82
6134 57
6135 89
6136 119
6137 26
6138 82
6139 53
6140 38
6141 31
6142 5
6143 90
6144 30
6145 58
6146 38
6147 3
6148 8
6149 92
6150 69
6151 31
6152 74
6153 14
6154 76
6155 58
6156 16
6157 59
6158 2
6159 119
6160 106
6161 78
6162 77
6163 59
6164 74
6165 97
6166 120
6167 44
6168 8
6169 58
6170 102
6171 73
6172 33
6173 5
6174 21
6175 8
6176 39
6177 55
6178 81
6179 0
6180 37
6181 26
6182 44
6183 58
6184 90
6185 64
6186 37
6187 19
6188 86
6189 127
6190 14
6191 24
6192 102
6193 54
6194 119
6195 35
6196 50
6197 60
6198 115
6199 69
6200 55
6201 60
6202 71
6203 40
6204 94
6205 8
6206 98
6207 120
6208 76
6209 15
6210 68
6211 46
6212 44
6213 48
6214 47
6215 10
6216 44
6217 46
6218 112
6219 73
6220 30
6221 90
6222 44
6223 19
6224 59
6225 106
6226 69
6227 93
6228 60
6229 93
6230 57
6231 98
6232 104
6233 75
6234 68
6235 115
6236 14
6237 22
6238 122
6239 53
6240 17
6241 102
6242 111
6243 94
6244 14
6245 60
6246 0
6247 85
6248 6
6249 28
6250 96
6251 69
6252 60
6253 74
6254 76
6255 73
6256 106
6257 48
6258 12
6259 85
6260 87
6261 23
6262 26
6263 115
6264 41
6265 74
6266 105
6267 56
6268 26
6269 53
6270 136
6271 15
6272 68
6273 32
6274 131
6275 96
6276 30
6277 76
6278 44
6279 53
6280 94
6281 80
6282 68
6283 97
6284 57
6285 109
6286 106
6287 89
6288 68
6289 111
6290 94
6291 13
6292 44
6293 8
6294 96
6295 8
6296 16
6297 128
6298 47
6299 30
6300 62
6301 61
6302 98
6303 57
6304 103
6305 84
6306 129
6307 44
6308 98
6309 7
6310 44
6311 53
6312 98
6313 7
6314 129
6315 132
6316 99
6317 37
6318 85
6319 141
6320 30
6321 71
6322 98
6323 14
6324 68
6325 17
6326 30
6327 6
6328 36
6329 94
6330 73
6331 128
6332 84
6333 17
6334 99
6335 21
6336 16
6337 1
6338 30
6339 69
6340 60
6341 110
6342 70
6343 52
6344 16
6345 44
6346 69
6347 56
6348 55
6349 45
6350 108
6351 59
6352 29
6353 56
6354 29
6355 100
6356 52
6357 55
6358 76
6359 84
6360 60
6361 17
6362 42
6363 53
6364 34
6365 56
6366 44
6367 122
6368 36
6369 6
6370 113
6371 12
6372 17
6373 44
6374 37
6375 52
6376 15
6377 100
6378 120
6379 4
6380 51
6381 60
6382 126
6383 19
6384 42
6385 129
6386 72
6387 30
6388 70
6389 130
6390 91
6391 44
6392 126
6393 58
6394 94
6395 61
6396 52
6397 45
6398 7
6399 61
6400 26
6401 44
6402 106
6403 112
6404 85
6405 56
6406 34
6407 96
6408 26
6409 85
6410 80
6411 61
6412 3
6413 15
6414 83
6415 44
6416 61
6417 112
6418 44
6419 49
6420 102
6421 88
6422 99
6423 80
6424 32
6425 52
6426 60
6427 142
6428 80
6429 56
6430 57
6431 45
6432 61
6433 66
6434 20
6435 100
6436 55
6437 47
6438 84
6439 14
6440 96
6441 16
6442 61
6443 96
6444 21
6445 53
6446 34
6447 37
6448 15
6449 51
6450 56
6451 48
6452 18
6453 23
6454 41
6455 133
6456 136
6457 76
6458 26
6459 88
6460 47
6461 111
6462 61
6463 33
6464 86
6465 51
6466 18
6467 47
6468 23
6469 23
6470 47
6471 128
6472 43
6473 88
6474 99
6475 85
6476 116
6477 16
6478 59
6479 56
6480 83
6481 18
6482 97
6483 90
6484 17
6485 82
6486 128
6487 61
6488 44
6489 44
6490 42
6491 12
6492 23
6493 85
6494 95
6495 51
6496 42
6497 52
6498 85
6499 59
6500 57
6501 80
6502 105
6503 48
6504 57
6505 47
6506 23
6507 47
6508 82
6509 121
6510 29
6511 66
6512 44
6513 72
6514 41
6515 115
6516 19
6517 59
6518 83
6519 93
6520 79
6521 93
6522 92
6523 52
6524 74
6525 47
6526 15
6527 106
6528 37
6529 51
6530 10
6531 122
6532 39
6533 119
6534 57
6535 30
6536 16
6537 41
6538 49
6539 42
6540 73
6541 47
6542 51
6543 72
6544 114
6545 7
6546 120
6547 31
6548 96
6549 57
6550 98
6551 44
6552 90
6553 18
6554 85
6555 115
6556 115
6557 47
6558 84
6559 20
6560 138
6561 49
6562 52
6563 80
6564 69
6565 130
6566 119
6567 119
6568 17
6569 142
6570 119
6571 75
6572 82
6573 57
6574 23
6575 44
6576 97
6577 119
6578 122
6579 73
6580 102
6581 142
6582 47
6583 56
6584 119
6585 47
6586 90
6587 76
6588 23
6589 52
6590 55
6591 85
6592 56
6593 125
6594 23
6595 41
6596 68
6597 52
6598 68
6599 86
6600 101
6601 35
6602 42
6603 128
6604 91
6605 0
6606 69
6607 52
6608 69
6609 82
6610 52
6611 14
6612 47
6613 88
6614 44
6615 59
6616 92
6617 57
6618 57
6619 42
6620 54
6621 80
6622 57
6623 119
6624 29
6625 115
6626 8
6627 70
6628 88
6629 53
6630 105
6631 15
6632 44
6633 76
6634 80
6635 31
6636 13
6637 93
6638 52
6639 77
6640 9
6641 26
6642 52
6643 57
6644 67
6645 61
6646 82
6647 119
6648 128
6649 73
6650 53
6651 69
6652 59
6653 55
6654 59
6655 5
6656 44
6657 15
6658 32
6659 5
6660 56
6661 20
6662 61
6663 81
6664 109
6665 15
6666 134
6667 44
6668 18
6669 67
6670 6
6671 44
6672 57
6673 61
6674 52
6675 31
6676 84
6677 111
6678 52
6679 20
6680 42
6681 0
6682 2
6683 44
6684 54
6685 57
6686 119
6687 76
6688 74
6689 29
6690 115
6691 119
6692 88
6693 46
6694 60
6695 98
6696 31
6697 2
6698 23
6699 115
6700 55
6701 8
6702 44
6703 69
6704 55
6705 44
6706 80
6707 2
6708 142
6709 56
6710 119
6711 53
6712 44
6713 79
6714 52
6715 23
6716 5
6717 55
6718 115
6719 0
6720 108
6721 66
6722 82
6723 77
6724 14
6725 44
6726 17
6727 52
6728 41
6729 83
6730 2
6731 22
6732 139
6733 82
6734 95
6735 25
6736 75
6737 119
6738 53
6739 139
6740 116
6741 115
6742 70
6743 56
6744 86
6745 70
6746 117
6747 50
6748 29
6749 43
6750 9
6751 18
6752 57
6753 5
6754 114
6755 29
6756 119
6757 44
6758 21
6759 52
6760 66
6761 86
6762 110
6763 2
6764 2
6765 48
6766 129
6767 0
6768 69
6769 69
6770 62
6771 31
6772 41
6773 5
6774 5
6775 91
6776 85
6777 7
6778 82
6779 101
6780 47
6781 5
6782 133
6783 53
6784 38
6785 23
6786 42
6787 103
6788 21
6789 132
6790 18
6791 69
6792 23
6793 23
6794 52
6795 119
6796 60
6797 38
6798 82
6799 15
6800 130
6801 32
6802 23
6803 85
6804 53
6805 52
6806 47
6807 3
6808 17
6809 69
6810 47
6811 31
6812 69
6813 7
6814 114
6815 93
6816 18
6817 52
6818 47
6819 115
6820 60
6821 14
6822 47
6823 80
6824 69
6825 8
6826 34
6827 5
6828 41
6829 17
6830 98
6831 52
6832 52
6833 69
6834 0
6835 90
6836 38
6837 102
6838 6
6839 38
6840 57
6841 85
6842 107
6843 96
6844 19
6845 27
6846 32
6847 115
6848 98
6849 57
6850 47
6851 59
6852 80
6853 18
6854 69
6855 95
6856 2
6857 119
6858 68
6859 93
6860 38
6861 22
6862 56
6863 23
6864 80
6865 82
6866 44
6867 16
6868 80
6869 19
6870 24
6871 38
6872 88
6873 82
6874 76
6875 82
6876 60
6877 140
6878 115
6879 93
6880 56
6881 52
6882 115
6883 119
6884 26
6885 135
6886 44
6887 80
6888 5
6889 38
6890 19
6891 80
6892 56
6893 38
6894 5
6895 80
6896 38
6897 91
6898 5
6899 51
6900 55
6901 52
6902 115
6903 64
6904 119
6905 5
6906 52
6907 69
6908 52
6909 23
6910 118
6911 36
6912 60
6913 80
6914 80
6915 61
6916 5
6917 86
6918 98
6919 91
6920 94
6921 88
6922 69
6923 111
6924 56
6925 96
6926 55
6927 98
6928 47
6929 56
6930 130
6931 119
6932 7
6933 80
6934 53
6935 44
6936 102
6937 23
6938 52
6939 56
6940 102
6941 48
6942 18
6943 68
6944 57
6945 35
6946 11
6947 69
6948 1
6949 44
6950 84
6951 51
6952 38
6953 66
6954 44
6955 70
6956 2
6957 57
6958 47
6959 56
6960 37
6961 115
6962 38
6963 25
6964 55
6965 68
6966 115
6967 57
6968 52
6969 31
6970 100
6971 52
6972 69
6973 68
6974 58
6975 23
6976 37
6977 5
6978 38
6979 40
6980 67
6981 5
6982 16
6983 52
6984 5
6985 102
6986 17
6987 38
6988 90
6989 31
6990 69
6991 115
6992 2
6993 61
6994 68
6995 49
6996 38
6997 31
6998 44
6999 55
7000 98
7001 31
7002 53
7003 18
7004 115
7005 102
7006 18
7007 52
7008 23
7009 23
7010 52
7011 30
7012 47
7013 18
7014 69
7015 31
7016 18
7017 30
7018 47
7019 102
7020 42
7021 23
7022 31
7023 44
7024 30
7025 41
7026 73
7027 65
7028 94
7029 82
7030 59
7031 59
7032 30
7033 18
7034 80
7035 44
7036 69
7037 41
7038 115
7039 26
7040 98
7041 76
7042 53
7043 38
7044 18
7045 57
7046 15
7047 55
7048 21
7049 18
7050 102
7051 30
7052 68
7053 27
7054 115
7055 44
7056 44
7057 30
7058 119
7059 52
7060 74
7061 69
7062 55
7063 80
7064 82
7065 106
7066 56
7067 18
7068 96
7069 55
7070 119
7071 5
7072 46
7073 47
7074 38
7075 121
7076 80
7077 115
7078 44
7079 23
7080 26
7081 5
7082 115
7083 30
7084 59
7085 123
7086 68
7087 65
7088 55
7089 69
7090 31
7091 58
7092 119
7093 69
7094 30
7095 57
7096 57
7097 85
7098 53
7099 53
7100 2
7101 63
7102 80
7103 68
7104 86
7105 2
7106 115
7107 69
7108 42
7109 116
7110 57
7111 119
7112 69
7113 68
7114 52
7115 110
7116 73
7117 68
7118 57
7119 74
7120 9
7121 42
7122 31
7123 47
7124 51
7125 44
7126 52
7127 55
7128 18
7129 73
7130 47
7131 26
7132 38
7133 30
7134 29
7135 6
7136 26
7137 5
7138 68
7139 26
7140 31
7141 38
7142 82
7143 115
7144 68
7145 106
7146 2
7147 93
7148 124
7149 38
7150 69
7151 79
7152 23
7153 115
7154 81
7155 15
7156 90
7157 47
7158 86
7159 44
7160 68
7161 80
7162 38
7163 1
7164 43
7165 69
7166 119
7167 31
7168 41
7169 76
7170 52
7171 82
7172 36
7173 68
7174 107
7175 69
7176 104
7177 80
7178 52
7179 44
7180 31
7181 139
7182 32
7183 103
7184 2
7185 57
7186 48
7187 65
7188 12
7189 2
7190 61
7191 56
7192 44
7193 45
7194 2
7195 90
7196 55
7197 32
7198 68
7199 60
7200 126
7201 102
7202 60
7203 26
7204 80
7205 119
7206 60
7207 43
7208 5
7209 122
7210 97
7211 8
7212 90
7213 59
7214 70
7215 53
7216 40
7217 26
7218 79
7219 23
7220 23
7221 2
7222 90
7223 23
7224 30
7225 5
7226 32
7227 142
7228 38
7229 44
7230 68
7231 44
7232 73
7233 5
7234 2
7235 68
7236 120
7237 44
7238 18
7239 76
7240 13
7241 10
7242 38
7243 44
7244 30
7245 18
7246 18
7247 70
7248 23
7249 109
7250 5
7251 23
7252 52
7253 93
7254 5
7255 25
7256 14
7257 18
7258 82
7259 122
7260 42
7261 2
7262 80
7263 38
7264 74
7265 31
7266 44
7267 90
7268 18
7269 8
7270 59
7271 69
7272 57
7273 14
7274 62
7275 79
7276 89
7277 44
7278 66
7279 119
7280 68
7281 12
7282 58
7283 23
7284 132
7285 18
7286 21
7287 54
7288 18
7289 82
7290 24
7291 23
7292 119
7293 44
7294 38
7295 47
7296 71
7297 17
7298 41
7299 48
7300 44
7301 2
7302 52
7303 76
7304 18
7305 23
7306 48
7307 0
7308 44
7309 82
7310 26
7311 2
7312 91
7313 32
7314 38
7315 17
7316 68
7317 5
7318 96
7319 23
7320 96
7321 86
7322 52
7323 123
7324 18
7325 119
7326 2
7327 55
7328 5
7329 2
7330 88
7331 48
7332 79
7333 41
7334 130
7335 91
7336 44
7337 111
7338 38
7339 128
7340 38
7341 44
7342 23
7343 25
7344 75
7345 18
7346 96
7347 8
7348 41
7349 34
7350 24
7351 22
7352 5
7353 25
7354 75
7355 44
7356 53
7357 97
7358 44
7359 33
7360 23
7361 52
7362 23
7363 8
7364 131
7365 79
7366 119
7367 52
7368 104
7369 119
7370 7
7371 18
7372 16
7373 14
7374 26
7375 52
7376 82
7377 105
7378 139
7379 85
7380 5
7381 15
7382 2
7383 85
7384 96
7385 108
7386 60
7387 18
7388 100
7389 26
7390 52
7391 133
7392 29
7393 98
7394 30
7395 62
7396 2
7397 23
7398 108
7399 31
7400 18
7401 94
7402 51
7403 38
7404 82
7405 19
7406 100
7407 94
7408 44
7409 68
7410 38
7411 98
7412 119
7413 31
7414 18
7415 65
7416 107
7417 98
7418 38
7419 5
7420 36
7421 119
7422 7
7423 71
7424 38
7425 88
7426 23
7427 38
7428 2
7429 119
7430 34
7431 20
7432 37
7433 53
7434 36
7435 85
7436 119
7437 45
7438 61
7439 91
7440 18
7441 7
7442 42
7443 82
7444 94
7445 18
7446 80
7447 47
7448 29
7449 49
7450 106
7451 119
7452 43
7453 111
7454 17
7455 129
7456 115
7457 120
7458 18
7459 38
7460 98
7461 5
7462 82
7463 131
7464 111
7465 80
7466 38
7467 44
7468 5
7469 85
7470 78
7471 118
7472 108
7473 52
7474 26
7475 14
7476 52
7477 2
7478 5
7479 5
7480 23
7481 23
7482 34
7483 98
7484 82
7485 31
7486 33
7487 33
7488 15
7489 49
7490 42
7491 82
7492 18
7493 47
7494 7
7495 119
7496 2
7497 17
7498 5
7499 38
7500 113
7501 37
7502 2
7503 81
7504 126
7505 7
7506 18
7507 82
7508 25
7509 17
7510 52
7511 37
7512 44
7513 80
7514 82
7515 53
7516 93
7517 52
7518 52
7519 80
7520 138
7521 120
7522 48
7523 85
7524 15
7525 47
7526 44
7527 18
7528 57
7529 41
7530 52
7531 5
7532 18
7533 52
7534 105
7535 58
7536 5
7537 2
7538 132
7539 90
7540 38
7541 68
7542 34
7543 18
7544 57
7545 108
7546 126
7547 19
7548 85
7549 23
7550 41
7551 19
7552 38
7553 61
7554 2
7555 18
7556 61
7557 80
7558 23
7559 122
7560 119
7561 46
7562 23
7563 69
7564 90
7565 102
7566 82
7567 26
7568 23
7569 126
7570 42
7571 52
7572 115
7573 92
7574 18
7575 82
7576 52
7577 140
7578 139
7579 69
7580 57
7581 51
7582 78
7583 40
7584 27
7585 102
7586 16
7587 19
7588 80
7589 119
7590 47
7591 2
7592 57
7593 85
7594 43
7595 141
7596 18
7597 82
7598 80
7599 81
7600 47
7601 51
7602 55
7603 68
7604 142
7605 80
7606 37
7607 13
7608 35
7609 115
7610 119
7611 17
7612 2
7613 18
7614 119
7615 38
7616 42
7617 94
7618 88
7619 2
7620 47
7621 56
7622 2
7623 5
7624 88
7625 57
7626 57
7627 22
7628 2
7629 115
7630 80
7631 93
7632 44
7633 52
7634 23
7635 127
7636 112
7637 73
7638 44
7639 5
7640 30
7641 5
7642 73
7643 47
7644 115
7645 2
7646 32
7647 52
7648 45
7649 18
7650 115
7651 55
7652 86
7653 57
7654 57
7655 47
7656 73
7657 103
7658 119
7659 90
7660 69
7661 53
7662 85
7663 52
7664 119
7665 27
7666 16
7667 52
7668 57
7669 10
7670 70
7671 30
7672 30
7673 76
7674 36
7675 80
7676 2
7677 117
7678 111
7679 38
7680 76
7681 132
7682 82
7683 119
7684 52
7685 95
7686 55
7687 38
7688 57
7689 2
7690 53
7691 52
7692 88
7693 53
7694 16
7695 51
7696 76
7697 30
7698 75
7699 82
7700 56
7701 55
7702 44
7703 36
7704 99
7705 102
7706 44
7707 37
7708 111
7709 44
7710 52
7711 47
7712 2
7713 68
7714 47
7715 32
7716 130
7717 23
7718 52
7719 115
7720 90
7721 56
7722 41
7723 12
7724 52
7725 59
7726 43
7727 37
7728 33
7729 68
7730 30
7731 128
7732 120
7733 59
7734 32
7735 59
7736 53
7737 32
7738 12
7739 82
7740 28
7741 0
7742 82
7743 52
7744 82
7745 47
7746 27
7747 23
7748 80
7749 18
7750 5
7751 82
7752 23
7753 52
7754 115
7755 18
7756 8
7757 60
7758 69
7759 120
7760 23
7761 38
7762 53
7763 38
7764 142
7765 2
7766 2
7767 80
7768 82
7769 82
7770 124
7771 52
7772 44
7773 14
7774 5
7775 44
7776 25
7777 44
7778 23
7779 32
7780 59
7781 68
7782 119
7783 38
7784 2
7785 140
7786 82
7787 5
7788 55
7789 96
7790 91
7791 74
7792 14
7793 41
7794 84
7795 42
7796 87
7797 96
7798 18
7799 4
7800 5
7801 119
7802 95
7803 113
7804 30
7805 70
7806 96
7807 5
7808 68
7809 52
7810 11
7811 81
7812 5
7813 123
7814 76
7815 94
7816 23
7817 17
7818 82
7819 38
7820 124
7821 38
7822 74
7823 93
7824 44
7825 76
7826 73
7827 73
7828 25
7829 74
7830 141
7831 89
7832 120
7833 94
7834 113
7835 86
7836 86
7837 92
7838 84
7839 38
7840 96
7841 47
7842 27
7843 38
7844 2
7845 86
7846 88
7847 44
7848 2
7849 2
7850 44
7851 47
7852 92
7853 44
7854 26
7855 18
7856 94
7857 115
7858 47
7859 82
7860 8
7861 5
7862 119
7863 38
7864 86
7865 7
7866 80
7867 69
7868 2
7869 57
7870 82
7871 68
7872 84
7873 5
7874 26
7875 37
7876 5
7877 52
7878 2
7879 100
7880 23
7881 86
7882 23
7883 119
7884 69
7885 108
7886 15
7887 15
7888 57
7889 15
7890 115
7891 85
7892 18
7893 91
7894 23
7895 96
7896 82
7897 100
7898 38
7899 82
7900 80
7901 60
7902 119
7903 119
7904 98
7905 56
7906 51
7907 57
7908 57
7909 74
7910 5
7911 119
7912 115
7913 38
7914 85
7915 56
7916 57
7917 121
7918 30
7919 44
7920 82
7921 55
7922 57
7923 52
7924 100
7925 52
7926 94
7927 19
7928 52
7929 38
7930 138
7931 119
7932 38
7933 47
7934 55
7935 44
7936 68
7937 94
7938 52
7939 23
7940 115
7941 18
7942 52
7943 18
7944 44
7945 42
7946 2
7947 119
7948 115
7949 19
7950 32
7951 69
7952 7
7953 66
7954 82
7955 38
7956 44
7957 23
7958 15
7959 73
7960 69
7961 55
7962 47
7963 52
7964 82
7965 49
7966 44
7967 53
7968 18
7969 69
7970 42
7971 10
7972 55
7973 47
7974 38
7975 115
7976 55
7977 49
7978 69
7979 55
7980 19
7981 23
7982 55
7983 85
7984 55
7985 61
7986 55
7987 53
7988 38
7989 52
7990 46
7991 76
7992 85
7993 2
7994 16
7995 98
7996 53
7997 17
7998 80
7999 23
8000 43
8001 6
8002 31
8003 57
8004 56
8005 17
8006 68
8007 36
8008 57
8009 53
8010 96
8011 80
8012 57
8013 53
8014 119
8015 69
8016 52
8017 69
8018 115
8019 49
8020 7
8021 16
8022 52
8023 70
8024 31
8025 96
8026 82
8027 69
8028 57
8029 5
8030 53
8031 57
8032 73
8033 119
8034 37
8035 68
8036 18
8037 38
8038 23
8039 38
8040 115
8041 2
8042 68
8043 47
8044 109
8045 115
8046 30
8047 115
8048 69
8049 56
8050 75
8051 38
8052 80
8053 5
8054 5
8055 44
8056 11
8057 113
8058 90
8059 16
8060 119
8061 58
8062 17
8063 55
8064 119
8065 23
8066 23
8067 16
8068 16
8069 30
8070 111
8071 134
8072 80
8073 73
8074 26
8075 82
8076 69
8077 2
8078 17
8079 115
8080 89
8081 73
8082 28
8083 68
8084 5
8085 31
8086 46
8087 53
8088 73
8089 73
8090 2
8091 59
8092 53
8093 5
8094 53
8095 26
8096 41
8097 19
8098 115
8099 41
8100 115
8101 47
8102 38
8103 38
8104 122
8105 48
8106 16
8107 5
8108 102
8109 5
8110 30
8111 44
8112 49
8113 47
8114 27
8115 26
8116 88
8117 38
8118 38
8119 31
8120 68
8121 127
8122 44
8123 6
8124 30
8125 44
8126 119
8127 107
8128 38
8129 38
8130 57
8131 29
8132 56
8133 41
8134 80
8135 47
8136 59
8137 59
8138 80
8139 38
8140 55
8141 48
8142 68
8143 47
8144 41
8145 86
8146 31
8147 52
8148 115
8149 52
8150 2
8151 59
8152 117
8153 47
8154 122
8155 68
8156 18
8157 18
8158 26
8159 23
8160 53
8161 57
8162 94
8163 31
8164 115
8165 19
8166 31
8167 38
8168 89
8169 18
8170 122
8171 76
8172 73
8173 44
8174 36
8175 76
8176 44
8177 59
8178 69
8179 2
8180 30
8181 68
8182 80
8183 119
8184 51
8185 57
8186 38
8187 29
8188 53
8189 119
8190 68
8191 16
8192 61
8193 6
8194 95
8195 118
8196 123
8197 53
8198 57
8199 83
8200 120
8201 68
8202 30
8203 69
8204 10
8205 8
8206 31
8207 106
8208 3
8209 142
8210 31
8211 44
8212 60
8213 32
8214 125
8215 73
8216 129
8217 55
8218 102
8219 37
8220 80
8221 55
8222 5
8223 32
8224 23
8225 29
8226 84
8227 31
8228 44
8229 80
8230 41
8231 35
8232 2
8233 0
8234 90
8235 60
8236 120
8237 63
8238 0
8239 60
8240 26
8241 25
8242 35
8243 121
8244 59
8245 66
8246 31
8247 89
8248 41
8249 107
8250 61
8251 68
8252 0
8253 76
8254 106
8255 44
8256 60
8257 31
8258 55
8259 28
8260 14
8261 53
8262 124
8263 69
8264 61
8265 59
8266 135
8267 40
8268 53
8269 134
8270 68
8271 70
8272 126
8273 119
8274 30
8275 129
8276 12
8277 10
8278 31
8279 0
8280 19
8281 57
8282 104
8283 102
8284 138
8285 73
8286 53
8287 36
8288 73
8289 85
8290 40
8291 33
8292 0
8293 26
8294 34
8295 69
8296 80
8297 49
8298 85
8299 53
8300 119
8301 65
8302 132
8303 32
8304 87
8305 136
8306 60
8307 75
8308 76
8309 102
8310 24
8311 77
8312 21
8313 69
8314 23
8315 55
8316 68
8317 85
8318 127
8319 130
8320 32
8321 96
8322 47
8323 27
8324 38
8325 7
8326 41
8327 44
8328 26
8329 91
8330 115
8331 36
8332 113
8333 87
8334 15
8335 18
8336 17
8337 60
8338 8
8339 74
8340 96
8341 7
8342 17
8343 68
8344 98
8345 73
8346 44
8347 91
8348 32
8349 135
8350 44
8351 57
8352 2
8353 26
8354 59
8355 10
8356 126
8357 2
8358 2
8359 84
8360 87
8361 7
8362 91
8363 11
8364 92
8365 85
8366 57
8367 30
8368 99
8369 77
8370 14
8371 51
8372 36
8373 44
8374 91
8375 55
8376 8
8377 15
8378 34
8379 9
8380 94
8381 85
8382 140
8383 52
8384 31
8385 35
8386 118
8387 91
8388 60
8389 29
8390 81
8391 91
8392 81
8393 100
8394 89
8395 19
8396 17
8397 99
8398 68
8399 56
8400 124
8401 73
8402 88
8403 135
8404 96
8405 86
8406 89
8407 31
8408 16
8409 53
8410 95
8411 10
8412 98
8413 85
8414 34
8415 34
8416 45
8417 44
8418 121
8419 38
8420 16
8421 19
8422 68
8423 10
8424 42
8425 98
8426 68
8427 2
8428 86
8429 100
8430 65
8431 94
8432 16
8433 141
8434 29
8435 106
8436 60
8437 100
8438 10
8439 44
8440 10
8441 56
8442 20
8443 142
8444 82
8445 105
8446 130
8447 56
8448 20
8449 44
8450 29
8451 15
8452 111
8453 80
8454 87
8455 60
8456 34
8457 29
8458 98
8459 22
8460 17
8461 47
8462 93
8463 47
8464 73
8465 49
8466 8
8467 34
8468 103
8469 86
8470 82
8471 7
8472 84
8473 85
8474 47
8475 86
8476 54
8477 47
8478 34
8479 14
8480 6
8481 16
8482 82
8483 16
8484 15
8485 52
8486 117
8487 26
8488 44
8489 47
8490 42
8491 18
8492 51
8493 56
8494 140
8495 47
8496 26
8497 96
8498 18
8499 61
8500 44
8501 80
8502 47
8503 76
8504 47
8505 84
8506 6
8507 135
8508 46
8509 61
8510 80
8511 47
8512 60
8513 100
8514 52
8515 43
8516 80
8517 16
8518 42
8519 80
8520 70
8521 133
8522 29
8523 132
8524 82
8525 87
8526 102
8527 40
8528 90
8529 121
8530 21
8531 8
8532 26
8533 85
8534 53
8535 68
8536 52
8537 90
8538 47
8539 59
8540 7
8541 58
8542 111
8543 24
8544 52
8545 17
8546 23
8547 111
8548 57
8549 57
8550 40
8551 119
8552 122
8553 59
8554 44
8555 57
8556 57
8557 98
8558 47
8559 47
8560 80
8561 18
8562 56
8563 39
8564 44
8565 30
8566 80
8567 69
8568 82
8569 23
8570 18
8571 57
8572 119
8573 27
8574 44
8575 85
8576 125
8577 106
8578 44
8579 44
8580 120
8581 82
8582 90
8583 15
8584 52
8585 134
8586 47
8587 52
8588 61
8589 88
8590 92
8591 44
8592 40
8593 47
8594 52
8595 76
8596 118
8597 90
8598 90
8599 47
8600 115
8601 69
8602 52
8603 25
8604 41
8605 34
8606 52
8607 118
8608 44
8609 84
8610 90
8611 80
8612 80
8613 80
8614 80
8615 86
8616 59
8617 62
8618 45
8619 9
8620 44
8621 44
8622 18
8623 94
8624 27
8625 55
8626 94
8627 22
8628 112
8629 52
8630 9
8631 58
8632 69
8633 32
8634 88
8635 13
8636 69
8637 36
8638 56
8639 115
8640 82
8641 62
8642 119
8643 19
8644 0
8645 73
8646 81
8647 82
8648 19
8649 45
8650 29
8651 96
8652 119
8653 102
8654 6
8655 83
8656 79
8657 55
8658 32
8659 18
8660 93
8661 23
8662 32
8663 88
8664 18
8665 30
8666 86
8667 33
8668 14
8669 73
8670 18
8671 47
8672 61
8673 18
8674 11
8675 69
8676 88
8677 69
8678 32
8679 52
8680 106
8681 141
8682 99
8683 44
8684 55
8685 57
8686 57
8687 23
8688 98
8689 89
8690 18
8691 84
8692 5
8693 5
8694 55
8695 112
8696 77
8697 119
8698 42
8699 136
8700 42
8701 102
8702 23
8703 47
8704 14
8705 120
8706 56
8707 55
8708 44
8709 6
8710 11
8711 16
8712 52
8713 2
8714 100
8715 54
8716 36
8717 5
8718 16
8719 115
8720 54
8721 65
8722 111
8723 126
8724 97
8725 14
8726 115
8727 2
8728 119
8729 55
8730 30
8731 52
8732 2
8733 13
8734 43
8735 32
8736 12
8737 53
8738 41
8739 66
8740 23
8741 36
8742 89
8743 88
8744 40
8745 8
8746 47
8747 23
8748 80
8749 30
8750 32
8751 21
8752 69
8753 0
8754 31
8755 68
8756 63
8757 128
8758 95
8759 68
8760 90
8761 54
8762 90
8763 53
8764 30
8765 0
8766 48
8767 44
8768 8
8769 51
8770 23
8771 40
8772 95
8773 82
8774 73
8775 57
8776 5
8777 75
8778 46
8779 82
8780 68
8781 76
8782 128
8783 52
8784 52
8785 57
8786 48
8787 22
8788 23
8789 56
8790 2
8791 73
8792 75
8793 55
8794 109
8795 5
8796 134
8797 44
8798 46
8799 73
8800 48
8801 91
8802 82
8803 44
8804 41
8805 62
8806 80
8807 119
8808 99
8809 16
8810 105
8811 52
8812 98
8813 18
8814 77
8815 68
8816 77
8817 92
8818 44
8819 62
8820 142
8821 69
8822 70
8823 18
8824 22
8825 137
8826 47
8827 0
8828 103
8829 101
8830 89
8831 69
8832 23
8833 15
8834 52
8835 2
8836 26
8837 2
8838 85
8839 0
8840 119
8841 2
8842 31
8843 7
8844 52
8845 52
8846 73
8847 89
8848 52
8849 47
8850 119
8851 17
8852 115
8853 52
8854 44
8855 53
8856 44
8857 5
8858 48
8859 34
8860 60
8861 34
8862 74
8863 70
8864 2
8865 82
8866 98
8867 23
8868 44
8869 0
8870 47
8871 115
8872 52
8873 85
8874 100
8875 55
8876 23
8877 137
8878 59
8879 88
8880 55
8881 47
8882 135
8883 86
8884 14
8885 98
8886 86
8887 47
8888 82
8889 2
8890 23
8891 8
8892 18
8893 100
8894 69
8895 88
8896 16
8897 115
8898 102
8899 44
8900 82
8901 37
8902 44
8903 5
8904 143
8905 38
8906 82
8907 57
8908 98
8909 19
8910 52
8911 44
8912 23
8913 2
8914 84
8915 44
8916 91
8917 91
8918 119
8919 26
8920 45
8921 5
8922 76
8923 40
8924 49
8925 44
8926 23
8927 23
8928 74
8929 95
8930 85
8931 60
8932 115
8933 38
8934 57
8935 18
8936 75
8937 137
8938 85
8939 18
8940 38
8941 44
8942 119
8943 85
8944 86
8945 69
8946 19
8947 82
8948 128
8949 142
8950 44
8951 38
8952 42
8953 19
8954 57
8955 57
8956 16
8957 69
8958 80
8959 52
8960 141
8961 115
8962 68
8963 119
8964 5
8965 46
8966 56
8967 91
8968 128
8969 44
8970 82
8971 57
8972 18
8973 58
8974 47
8975 52
8976 38
8977 119
8978 82
8979 96
8980 17
8981 82
8982 47
8983 47
8984 69
8985 55
8986 44
8987 38
8988 5
8989 53
8990 44
8991 47
8992 2
8993 80
8994 36
8995 38
8996 34
8997 52
8998 23
8999 26
9000 51
9001 69
9002 53
9003 48
9004 17
9005 5
9006 52
9007 61
9008 53
9009 96
9010 47
9011 116
9012 47
9013 107
9014 54
9015 44
9016 35
9017 57
9018 2
9019 53
9020 5
9021 57
9022 31
9023 38
9024 31
9025 94
9026 109
9027 5
9028 61
9029 91
9030 119
9031 69
9032 47
9033 47
9034 40
9035 59
9036 5
9037 5
9038 90
9039 47
9040 18
9041 115
9042 2
9043 40
9044 66
9045 44
9046 52
9047 55
9048 47
9049 60
9050 30
9051 47
9052 44
9053 55
9054 48
9055 69
9056 15
9057 111
9058 44
9059 82
9060 53
9061 2
9062 82
9063 30
9064 57
9065 113
9066 17
9067 59
9068 30
9069 55
9070 80
9071 38
9072 31
9073 31
9074 69
9075 68
9076 55
9077 96
9078 52
9079 37
9080 47
9081 44
9082 55
9083 102
9084 17
9085 57
9086 69
9087 57
9088 85
9089 62
9090 26
9091 96
9092 42
9093 119
9094 26
9095 23
9096 55
9097 44
9098 26
9099 30
9100 59
9101 26
9102 69
9103 55
9104 30
9105 23
9106 47
9107 51
9108 84
9109 23
9110 57
9111 18
9112 73
9113 53
9114 131
9115 31
9116 55
9117 69
9118 80
9119 89
9120 52
9121 80
9122 92
9123 98
9124 47
9125 119
9126 2
9127 79
9128 32
9129 47
9130 80
9131 5
9132 69
9133 119
9134 82
9135 85
9136 80
9137 26
9138 119
9139 26
9140 140
9141 41
9142 18
9143 59
9144 107
9145 115
9146 53
9147 5
9148 17
9149 90
9150 68
9151 119
9152 2
9153 73
9154 23
9155 80
9156 55
9157 97
9158 51
9159 82
9160 42
9161 52
9162 52
9163 23
9164 44
9165 115
9166 57
9167 38
9168 29
9169 119
9170 30
9171 57
9172 23
9173 38
9174 47
9175 57
9176 88
9177 88
9178 14
9179 115
9180 80
9181 16
9182 109
9183 0
9184 38
9185 8
9186 23
9187 18
9188 52
9189 109
9190 46
9191 57
9192 47
9193 8
9194 69
9195 23
9196 5
9197 42
9198 76
9199 68
9200 20
9201 14
9202 55
9203 51
9204 31
9205 6
9206 69
9207 99
9208 18
9209 23
9210 44
9211 2
9212 111
9213 38
9214 30
9215 119
9216 53
9217 8
9218 35
9219 0
9220 16
9221 115
9222 52
9223 30
9224 47
9225 2
9226 2
9227 81
9228 69
9229 37
9230 59
9231 0
9232 14
9233 61
9234 44
9235 54
9236 3
9237 90
9238 27
9239 47
9240 2
9241 38
9242 55
9243 141
9244 88
9245 57
9246 35
9247 68
9248 53
9249 0
9250 119
9251 68
9252 84
9253 26
9254 115
9255 30
9256 8
9257 52
9258 119
9259 30
9260 52
9261 12
9262 98
9263 68
9264 36
9265 115
9266 115
9267 2
9268 98
9269 52
9270 2
9271 106
9272 108
9273 128
9274 52
9275 119
9276 0
9277 57
9278 44
9279 119
9280 0
9281 23
9282 80
9283 30
9284 23
9285 82
9286 8
9287 51
9288 111
9289 82
9290 37
9291 2
9292 96
9293 68
9294 106
9295 5
9296 2
9297 59
9298 51
9299 32
9300 52
9301 44
9302 23
9303 5
9304 8
9305 14
9306 52
9307 107
9308 57
9309 126
9310 119
9311 52
9312 5
9313 40
9314 2
9315 46
9316 115
9317 67
9318 70
9319 5
9320 85
9321 44
9322 122
9323 110
9324 132
9325 44
9326 87
9327 2
9328 18
9329 38
9330 0
9331 124
9332 27
9333 111
9334 92
9335 17
9336 85
9337 73
9338 18
9339 26
9340 135
9341 140
9342 90
9343 48
9344 55
9345 1
9346 38
9347 26
9348 65
9349 67
9350 7
9351 127
9352 2
9353 38
9354 85
9355 23
9356 76
9357 44
9358 23
9359 113
9360 17
9361 2
9362 82
9363 74
9364 38
9365 37
9366 87
9367 129
9368 23
9369 18
9370 92
9371 2
9372 98
9373 119
9374 17
9375 88
9376 34
9377 80
9378 34
9379 18
9380 44
9381 119
9382 98
9383 44
9384 18
9385 2
9386 2
9387 73
9388 23
9389 40
9390 52
9391 11
9392 47
9393 34
9394 5
9395 71
9396 49
9397 44
9398 35
9399 57
9400 125
9401 108
9402 143
9403 127
9404 49
9405 119
9406 44
9407 103
9408 23
9409 52
9410 34
9411 76
9412 85
9413 23
9414 55
9415 19
9416 13
9417 84
9418 44
9419 100
9420 60
9421 52
9422 68
9423 138
9424 19
9425 109
9426 96
9427 32
9428 5
9429 29
9430 2
9431 23
9432 5
9433 26
9434 91
9435 16
9436 56
9437 82
9438 67
9439 96
9440 33
9441 73
9442 82
9443 13
9444 55
9445 91
9446 119
9447 85
9448 141
9449 38
9450 55
9451 8
9452 2
9453 5
9454 94
9455 68
9456 96
9457 7
9458 82
9459 5
9460 82
9461 140
9462 106
9463 5
9464 111
9465 26
9466 18
9467 119
9468 123
9469 87
9470 128
9471 2
9472 119
9473 107
9474 111
9475 44
9476 19
9477 51
9478 44
9479 82
9480 23
9481 31
9482 52
9483 47
9484 0
9485 82
9486 29
9487 16
9488 44
9489 18
9490 20
9491 5
9492 61
9493 16
9494 38
9495 98
9496 2
9497 5
9498 52
9499 106
9500 18
9501 33
9502 61
9503 47
9504 94
9505 29
9506 97
9507 80
9508 38
9509 75
9510 60
9511 65
9512 52
9513 5
9514 52
9515 119
9516 69
9517 125
9518 82
9519 55
9520 59
9521 45
9522 80
9523 97
9524 136
9525 2
9526 106
9527 23
9528 29
9529 96
9530 26
9531 53
9532 21
9533 51
9534 40
9535 23
9536 40
9537 119
9538 56
9539 52
9540 96
9541 130
9542 91
9543 95
9544 91
9545 47
9546 34
9547 33
9548 18
9549 2
9550 2
9551 5
9552 52
9553 85
9554 49
9555 17
9556 82
9557 23
9558 37
9559 12
9560 52
9561 51
9562 30
9563 42
9564 58
9565 5
9566 23
9567 62
9568 74
9569 99
9570 59
9571 47
9572 17
9573 59
9574 104
9575 102
9576 82
9577 43
9578 16
9579 80
9580 16
9581 119
9582 102
9583 140
9584 62
9585 49
9586 2
9587 52
9588 119
9589 80
9590 28
9591 44
9592 85
9593 23
9594 47
9595 52
9596 82
9597 87
9598 40
9599 101
9600 23
9601 115
9602 5
9603 80
9604 77
9605 74
9606 109
9607 2
9608 85
9609 2
9610 2
9611 115
9612 5
9613 69
9614 57
9615 38
9616 1
9617 52
9618 75
9619 44
9620 25
9621 90
9622 102
9623 130
9624 102
9625 119
9626 57
9627 87
9628 42
9629 84
9630 38
9631 23
9632 86
9633 18
9634 27
9635 92
9636 19
9637 80
9638 23
9639 93
9640 44
9641 42
9642 69
9643 82
9644 44
9645 0
9646 44
9647 100
9648 23
9649 38
9650 102
9651 2
9652 84
9653 44
9654 90
9655 61
9656 129
9657 52
9658 55
9659 57
9660 5
9661 55
9662 60
9663 119
9664 82
9665 128
9666 60
9667 80
9668 56
9669 73
9670 52
9671 23
9672 23
9673 18
9674 38
9675 82
9676 17
9677 9
9678 27
9679 5
9680 92
9681 2
9682 59
9683 82
9684 47
9685 21
9686 38
9687 80
9688 143
9689 30
9690 42
9691 80
9692 136
9693 69
9694 73
9695 115
9696 74
9697 63
9698 38
9699 69
9700 55
9701 73
9702 64
9703 29
9704 52
9705 31
9706 55
9707 76
9708 41
9709 52
9710 41
9711 44
9712 61
9713 31
9714 38
9715 23
9716 2
9717 55
9718 47
9719 100
9720 57
9721 58
9722 119
9723 94
9724 51
9725 73
9726 5
9727 119
9728 115
9729 55
9730 50
9731 82
9732 44
9733 44
9734 73
9735 2
9736 82
9737 56
9738 52
9739 139
9740 14
9741 44
9742 29
9743 115
9744 74
9745 37
9746 55
9747 29
9748 57
9749 0
9750 37
9751 52
9752 106
9753 31
9754 68
9755 2
9756 8
9757 52
9758 79
9759 73
9760 46
9761 31
9762 68
9763 119
9764 130
9765 8
9766 38
9767 29
9768 100
9769 2
9770 7
9771 30
9772 46
9773 30
9774 52
9775 38
9776 76
9777 53
9778 52
9779 115
9780 52
9781 119
9782 13
9783 38
9784 16
9785 29
9786 14
9787 63
9788 83
9789 16
9790 23
9791 5
9792 119
9793 51
9794 52
9795 0
9796 82
9797 51
9798 119
9799 18
9800 68
9801 114
9802 90
9803 82
9804 119
9805 124
9806 119
9807 104
9808 53
9809 28
9810 119
9811 68
9812 55
9813 126
9814 23
9815 23
9816 44
9817 55
9818 68
9819 53
9820 2
9821 52
9822 2
9823 30
9824 2
9825 34
9826 48
9827 5
9828 52
9829 23
9830 11
9831 53
9832 18
9833 40
9834 69
9835 85
9836 82
9837 8
9838 27
9839 53
9840 4
9841 23
9842 7
9843 23
9844 119
9845 80
9846 48
9847 107
9848 38
9849 71
9850 65
9851 143
9852 5
9853 126
9854 18
9855 116
9856 40
9857 17
9858 119
9859 92
9860 74
9861 119
9862 9
9863 44
9864 94
9865 142
9866 58
9867 85
9868 23
9869 69
9870 2
9871 96
9872 44
9873 23
9874 91
9875 38
9876 80
9877 96
9878 96
9879 13
9880 23
9881 114
9882 52
9883 7
9884 69
9885 18
9886 18
9887 31
9888 8
9889 52
9890 119
9891 55
9892 18
9893 52
9894 18
9895 115
9896 85
9897 44
9898 18
9899 35
9900 52
9901 90
9902 2
9903 82
9904 81
9905 68
9906 23
9907 121
9908 36
9909 52
9910 44
9911 69
9912 0
9913 100
9914 52
9915 120
9916 52
9917 5
9918 38
9919 119
9920 38
9921 47
9922 115
9923 47
9924 98
9925 44
9926 82
9927 9
9928 75
9929 85
9930 23
9931 70
9932 115
9933 23
9934 69
9935 94
9936 15
9937 5
9938 7
9939 57
9940 96
9941 7
9942 15
9943 52
9944 38
9945 38
9946 19
9947 32
9948 23
9949 31
9950 44
9951 54
9952 38
9953 31
9954 23
9955 18
9956 119
9957 57
9958 44
9959 82
9960 55
9961 44
9962 115
9963 68
9964 4
9965 82
9966 45
9967 57
9968 115
9969 56
9970 69
9971 42
9972 122
9973 77
9974 133
9975 51
9976 130
9977 69
9978 52
9979 119
9980 55
9981 57
9982 44
9983 2
9984 52
9985 34
9986 57
9987 21
9988 119
9989 119
9990 47
9991 74
9992 57
9993 84
9994 119
9995 31
9996 97
9997 32
9998 52
9999 98
