0 0
1 1
2 2
3 3
4 4
5 1
6 5
7 6
8 7
9 8
10 9
11 10
12 11
13 12
14 13
15 14
16 15
17 13
18 16
19 17
20 18
21 19
22 20
23 21
24 22
25 23
26 24
27 6
28 25
29 26
30 15
31 1
32 27
33 28
34 29
35 30
36 31
37 32
38 5
39 33
40 1
41 34
42 35
43 36
44 37
45 38
46 8
47 39
48 40
49 41
50 42
51 43
52 44
53 45
54 46
55 42
56 23
57 32
58 47
59 48
60 49
61 18
62 21
63 6
64 7
65 50
66 26
67 25
68 51
69 52
70 53
71 54
72 32
73 33
74 51
75 55
76 16
77 56
78 13
79 49
80 57
81 58
82 19
83 32
84 48
85 59
86 9
87 60
88 17
89 6
90 61
91 62
92 63
93 22
94 64
95 65
96 66
97 32
98 7
99 67
100 62
101 68
102 69
103 49
104 54
105 23
106 70
107 52
108 71
109 8
110 12
111 63
112 72
113 73
114 57
115 48
116 74
117 75
118 76
119 28
120 56
121 73
122 9
123 36
124 43
125 77
126 32
127 43
128 78
129 79
130 43
131 80
132 52
133 61
134 81
135 47
136 3
137 68
138 67
139 82
140 2
141 31
142 83
143 11
144 52
145 63
146 30
147 76
148 84
149 25
150 18
151 60
152 43
153 85
154 16
155 36
156 1
157 51
158 1
159 79
160 86
161 87
162 88
163 62
164 58
165 37
166 89
167 77
168 84
169 44
170 73
171 56
172 58
173 70
174 77
175 23
176 90
177 69
178 91
179 92
180 14
181 24
182 65
183 9
184 93
185 58
186 71
187 71
188 28
189 10
190 22
191 21
192 94
193 95
194 89
195 87
196 96
197 97
198 68
199 74
200 24
201 98
202 59
203 67
204 54
205 99
206 20
207 78
208 15
209 100
210 15
211 33
212 71
213 91
214 101
215 68
216 63
217 52
218 51
219 53
220 101
221 80
222 80
223 67
224 65
225 12
226 3
227 16
228 45
229 18
230 31
231 49
232 92
233 102
234 102
235 49
236 7
237 9
238 70
239 103
240 48
241 104
242 37
243 56
244 14
245 61
246 67
247 31
248 13
249 75
250 81
251 72
252 35
253 70
254 105
255 34
256 78
257 105
258 31
259 78
260 45
261 58
262 103
263 101
264 48
265 106
266 107
267 75
268 107
269 108
270 40
271 4
272 12
273 109
274 101
275 47
276 58
277 110
278 30
279 110
280 17
281 32
282 91
283 74
284 63
285 23
286 83
287 68
288 81
289 37
290 59
291 63
292 111
293 53
294 111
295 105
296 98
297 36
298 84
299 109
300 25
301 101
302 6
303 64
304 93
305 52
306 87
307 35
308 33
309 52
310 43
311 95
312 92
313 1
314 93
315 97
316 99
317 4
318 42
319 46
320 4
321 25
322 99
323 96
324 83
325 105
326 61
327 81
328 9
329 77
330 112
331 25
332 24
333 113
334 71
335 69
336 46
337 52
338 26
339 97
340 59
341 9
342 89
343 85
344 89
345 48
346 101
347 53
348 8
349 35
350 1
351 44
352 57
353 114
354 28
355 94
356 39
357 6
358 79
359 31
360 115
361 103
362 56
363 104
364 24
365 53
366 103
367 71
368 43
369 116
370 6
371 25
372 73
373 3
374 50
375 0
376 7
377 6
378 45
379 99
380 117
381 15
382 118
383 117
384 91
385 64
386 4
387 69
388 88
389 15
390 50
391 31
392 43
393 111
394 53
395 98
396 115
397 15
398 93
399 81
400 17
401 83
402 74
403 9
404 107
405 99
406 75
407 15
408 32
409 15
410 105
411 56
412 54
413 26
414 36
415 54
416 101
417 44
418 93
419 21
420 88
421 17
422 23
423 100
424 60
425 61
426 7
427 98
428 51
429 32
430 78
431 20
432 39
433 79
434 103
435 65
436 68
437 20
438 71
439 81
440 58
441 37
442 31
443 88
444 31
445 67
446 48
447 110
448 87
449 72
450 18
451 95
452 10
453 51
454 117
455 20
456 31
457 68
458 92
459 26
460 60
461 4
462 36
463 17
464 45
465 4
466 26
467 73
468 27
469 12
470 91
471 25
472 40
473 24
474 23
475 60
476 47
477 36
478 107
479 117
480 69
481 48
482 62
483 62
484 19
485 50
486 73
487 75
488 32
489 114
490 34
491 62
492 21
493 90
494 95
495 6
496 14
497 39
498 19
499 91
500 77
501 32
502 72
503 37
504 83
505 61
506 46
507 21
508 76
509 56
510 109
511 32
512 45
513 43
514 93
515 61
516 83
517 57
518 79
519 119
520 89
521 63
522 48
523 40
524 25
525 65
526 3
527 55
528 6
529 70
530 68
531 17
532 2
533 24
534 29
535 69
536 22
537 14
538 25
539 29
540 64
541 19
542 26
543 24
544 20
545 72
546 83
547 16
548 94
549 36
550 105
551 31
552 36
553 97
554 4
555 30
556 18
557 54
558 99
559 37
560 120
561 73
562 83
563 1
564 34
565 12
566 57
567 6
568 52
569 20
570 25
571 119
572 20
573 77
574 114
575 94
576 89
577 111
578 91
579 56
580 74
581 52
582 114
583 14
584 70
585 65
586 119
587 33
588 8
589 52
590 20
591 73
592 44
593 1
594 103
595 51
596 74
597 93
598 59
599 111
600 121
601 23
602 90
603 32
604 37
605 8
606 71
607 54
608 10
609 73
610 59
611 47
612 51
613 88
614 15
615 94
616 44
617 69
618 98
619 33
620 51
621 71
622 59
623 100
624 22
625 53
626 31
627 32
628 4
629 9
630 48
631 35
632 95
633 35
634 96
635 23
636 68
637 1
638 45
639 69
640 102
641 116
642 108
643 83
644 91
645 68
646 48
647 100
648 62
649 8
650 75
651 109
652 5
653 67
654 53
655 23
656 52
657 4
658 48
659 35
660 66
661 68
662 44
663 14
664 13
665 110
666 70
667 32
668 53
669 46
670 63
671 91
672 3
673 42
674 24
675 96
676 71
677 64
678 25
679 68
680 83
681 60
682 32
683 49
684 71
685 14
686 58
687 60
688 1
689 57
690 92
691 52
692 13
693 81
694 89
695 20
696 80
697 44
698 82
699 32
700 100
701 16
702 49
703 114
704 24
705 14
706 29
707 16
708 32
709 30
710 12
711 88
712 19
713 87
714 53
715 25
716 75
717 97
718 94
719 30
720 33
721 1
722 23
723 14
724 15
725 62
726 63
727 48
728 47
729 25
730 22
731 11
732 80
733 13
734 47
735 77
736 15
737 7
738 13
739 111
740 71
741 105
742 1
743 97
744 115
745 63
746 19
747 91
748 5
749 21
750 25
751 30
752 101
753 29
754 100
755 22
756 29
757 39
758 0
759 52
760 32
761 19
762 111
763 63
764 21
765 0
766 104
767 21
768 114
769 40
770 6
771 112
772 82
773 49
774 37
775 103
776 91
777 54
778 17
779 71
780 96
781 83
782 15
783 29
784 80
785 56
786 29
787 48
788 7
789 102
790 100
791 35
792 72
793 89
794 45
795 3
796 89
797 53
798 11
799 121
800 5
801 113
802 59
803 53
804 43
805 12
806 17
807 90
808 62
809 100
810 74
811 34
812 66
813 78
814 89
815 43
816 24
817 6
818 104
819 11
820 23
821 113
822 47
823 6
824 69
825 58
826 8
827 21
828 75
829 111
830 95
831 104
832 102
833 23
834 3
835 53
836 67
837 48
838 17
839 74
840 58
841 121
842 73
843 70
844 7
845 66
846 36
847 24
848 45
849 92
850 3
851 91
852 9
853 98
854 63
855 111
856 30
857 32
858 83
859 21
860 14
861 113
862 104
863 72
864 29
865 98
866 66
867 91
868 70
869 103
870 81
871 56
872 120
873 6
874 119
875 29
876 8
877 49
878 48
879 19
880 114
881 9
882 93
883 89
884 9
885 63
886 47
887 38
888 15
889 6
890 36
891 102
892 27
893 86
894 117
895 6
896 36
897 64
898 122
899 20
900 72
901 14
902 7
903 86
904 30
905 26
906 89
907 57
908 123
909 107
910 52
911 19
912 12
913 105
914 62
915 61
916 111
917 1
918 62
919 113
920 18
921 114
922 35
923 47
924 14
925 36
926 31
927 98
928 32
929 121
930 81
931 76
932 93
933 26
934 30
935 63
936 57
937 20
938 30
939 88
940 34
941 4
942 44
943 92
944 29
945 57
946 22
947 40
948 26
949 73
950 1
951 45
952 101
953 68
954 65
955 90
956 15
957 85
958 49
959 105
960 107
961 64
962 0
963 32
964 25
965 61
966 122
967 23
968 23
969 28
970 39
971 18
972 20
973 100
974 91
975 47
976 14
977 68
978 43
979 96
980 18
981 63
982 102
983 95
984 43
985 100
986 89
987 18
988 22
989 25
990 93
991 63
992 26
993 16
994 88
995 45
996 22
997 8
998 69
999 1
1000 20
1001 82
1002 51
1003 48
1004 52
1005 110
1006 121
1007 114
1008 109
1009 80
1010 75
1011 120
1012 84
1013 36
1014 119
1015 74
1016 96
1017 39
1018 34
1019 59
1020 12
1021 23
1022 69
1023 117
1024 25
1025 109
1026 122
1027 58
1028 18
1029 90
1030 12
1031 3
1032 81
1033 74
1034 42
1035 59
1036 54
1037 11
1038 93
1039 19
1040 112
1041 23
1042 48
1043 89
1044 2
1045 51
1046 16
1047 42
1048 67
1049 10
1050 65
1051 100
1052 56
1053 9
1054 8
1055 6
1056 48
1057 121
1058 39
1059 74
1060 14
1061 123
1062 53
1063 82
1064 102
1065 63
1066 109
1067 35
1068 49
1069 82
1070 74
1071 58
1072 58
1073 119
1074 105
1075 58
1076 113
1077 33
1078 44
1079 118
1080 85
1081 52
1082 118
1083 57
1084 22
1085 98
1086 43
1087 45
1088 55
1089 94
1090 123
1091 66
1092 73
1093 58
1094 22
1095 119
1096 120
1097 102
1098 103
1099 62
1100 6
1101 82
1102 116
1103 45
1104 24
1105 97
1106 79
1107 21
1108 48
1109 64
1110 73
1111 107
1112 6
1113 84
1114 91
1115 17
1116 85
1117 119
1118 124
1119 46
1120 123
1121 44
1122 54
1123 41
1124 60
1125 33
1126 8
1127 32
1128 52
1129 1
1130 95
1131 80
1132 32
1133 51
1134 35
1135 59
1136 6
1137 12
1138 12
1139 2
1140 24
1141 100
1142 47
1143 61
1144 113
1145 17
1146 10
1147 14
1148 102
1149 98
1150 121
1151 56
1152 7
1153 5
1154 89
1155 52
1156 112
1157 85
1158 35
1159 48
1160 66
1161 113
1162 103
1163 22
1164 109
1165 20
1166 116
1167 94
1168 71
1169 32
1170 51
1171 111
1172 36
1173 90
1174 41
1175 25
1176 81
1177 78
1178 46
1179 5
1180 19
1181 99
1182 34
1183 3
1184 31
1185 100
1186 3
1187 46
1188 76
1189 40
1190 71
1191 17
1192 76
1193 59
1194 25
1195 21
1196 30
1197 86
1198 26
1199 39
1200 65
1201 74
1202 60
1203 41
1204 67
1205 29
1206 119
1207 25
1208 39
1209 18
1210 38
1211 78
1212 5
1213 49
1214 26
1215 35
1216 101
1217 43
1218 99
1219 47
1220 21
1221 6
1222 69
1223 36
1224 6
1225 5
1226 40
1227 4
1228 102
1229 44
1230 68
1231 41
1232 6
1233 77
1234 30
1235 77
1236 114
1237 61
1238 37
1239 107
1240 41
1241 99
1242 84
1243 32
1244 93
1245 74
1246 100
1247 87
1248 51
1249 13
1250 17
1251 92
1252 30
1253 73
1254 18
1255 68
1256 69
1257 32
1258 78
1259 120
1260 19
1261 15
1262 30
1263 114
1264 105
1265 76
1266 62
1267 105
1268 47
1269 35
1270 32
1271 90
1272 78
1273 90
1274 45
1275 10
1276 20
1277 76
1278 86
1279 114
1280 73
1281 102
1282 63
1283 39
1284 50
1285 122
1286 35
1287 45
1288 67
1289 39
1290 39
1291 45
1292 92
1293 105
1294 123
1295 65
1296 11
1297 82
1298 23
1299 61
1300 110
1301 49
1302 97
1303 100
1304 45
1305 18
1306 114
1307 94
1308 107
1309 52
1310 98
1311 114
1312 123
1313 73
1314 79
1315 32
1316 53
1317 120
1318 109
1319 29
1320 66
1321 22
1322 62
1323 88
1324 10
1325 17
1326 68
1327 111
1328 81
1329 25
1330 37
1331 55
1332 53
1333 33
1334 4
1335 29
1336 25
1337 14
1338 56
1339 71
1340 90
1341 32
1342 8
1343 53
1344 109
1345 91
1346 48
1347 46
1348 59
1349 26
1350 119
1351 56
1352 53
1353 68
1354 54
1355 13
1356 95
1357 71
1358 43
1359 101
1360 88
1361 86
1362 121
1363 92
1364 6
1365 13
1366 99
1367 2
1368 32
1369 26
1370 29
1371 70
1372 28
1373 46
1374 84
1375 58
1376 98
1377 52
1378 8
1379 43
1380 48
1381 26
1382 82
1383 19
1384 32
1385 6
1386 26
1387 101
1388 10
1389 91
1390 13
1391 81
1392 28
1393 95
1394 11
1395 50
1396 114
1397 72
1398 3
1399 67
1400 43
1401 105
1402 42
1403 3
1404 86
1405 88
1406 82
1407 35
1408 101
1409 32
1410 23
1411 117
1412 96
1413 18
1414 125
1415 71
1416 20
1417 52
1418 107
1419 32
1420 99
1421 28
1422 23
1423 18
1424 108
1425 55
1426 58
1427 83
1428 13
1429 54
1430 55
1431 3
1432 22
1433 34
1434 78
1435 46
1436 12
1437 3
1438 120
1439 78
1440 16
1441 1
1442 122
1443 76
1444 16
1445 11
1446 40
1447 35
1448 23
1449 35
1450 10
1451 84
1452 74
1453 12
1454 61
1455 33
1456 59
1457 99
1458 43
1459 20
1460 11
1461 32
1462 65
1463 47
1464 72
1465 56
1466 43
1467 70
1468 80
1469 41
1470 21
1471 60
1472 100
1473 78
1474 20
1475 15
1476 94
1477 114
1478 75
1479 99
1480 59
1481 61
1482 43
1483 121
1484 33
1485 90
1486 47
1487 76
1488 67
1489 3
1490 65
1491 14
1492 24
1493 111
1494 5
1495 61
1496 40
1497 85
1498 18
1499 43
1500 9
1501 1
1502 65
1503 81
1504 69
1505 25
1506 70
1507 58
1508 47
1509 71
1510 108
1511 43
1512 30
1513 62
1514 47
1515 62
1516 99
1517 4
1518 94
1519 101
1520 102
1521 26
1522 51
1523 74
1524 62
1525 53
1526 6
1527 41
1528 19
1529 94
1530 24
1531 75
1532 15
1533 31
1534 61
1535 40
1536 46
1537 47
1538 19
1539 116
1540 49
1541 116
1542 32
1543 31
1544 111
1545 40
1546 8
1547 50
1548 102
1549 117
1550 18
1551 91
1552 74
1553 75
1554 44
1555 94
1556 14
1557 93
1558 107
1559 74
1560 95
1561 37
1562 31
1563 18
1564 59
1565 4
1566 53
1567 51
1568 13
1569 63
1570 58
1571 34
1572 2
1573 30
1574 44
1575 4
1576 69
1577 71
1578 30
1579 71
1580 8
1581 11
1582 80
1583 24
1584 96
1585 73
1586 89
1587 43
1588 34
1589 74
1590 49
1591 68
1592 21
1593 11
1594 67
1595 56
1596 70
1597 112
1598 65
1599 56
1600 112
1601 86
1602 121
1603 9
1604 26
1605 70
1606 41
1607 57
1608 9
1609 19
1610 50
1611 12
1612 97
1613 103
1614 79
1615 75
1616 39
1617 27
1618 48
1619 111
1620 47
1621 5
1622 21
1623 61
1624 32
1625 18
1626 17
1627 74
1628 104
1629 89
1630 89
1631 50
1632 24
1633 1
1634 88
1635 90
1636 99
1637 14
1638 40
1639 121
1640 62
1641 36
1642 6
1643 69
1644 119
1645 81
1646 47
1647 74
1648 52
1649 62
1650 18
1651 123
1652 17
1653 115
1654 108
1655 78
1656 52
1657 33
1658 52
1659 27
1660 17
1661 60
1662 74
1663 58
1664 115
1665 37
1666 80
1667 26
1668 30
1669 40
1670 57
1671 16
1672 59
1673 53
1674 82
1675 17
1676 81
1677 42
1678 12
1679 47
1680 78
1681 35
1682 40
1683 47
1684 58
1685 48
1686 0
1687 53
1688 73
1689 51
1690 25
1691 98
1692 7
1693 111
1694 103
1695 37
1696 59
1697 34
1698 64
1699 96
1700 31
1701 120
1702 61
1703 40
1704 65
1705 10
1706 84
1707 100
1708 84
1709 65
1710 58
1711 90
1712 63
1713 25
1714 38
1715 52
1716 92
1717 27
1718 99
1719 56
1720 35
1721 65
1722 13
1723 73
1724 108
1725 30
1726 32
1727 79
1728 67
1729 51
1730 67
1731 19
1732 102
1733 73
1734 98
1735 114
1736 43
1737 34
1738 102
1739 16
1740 6
1741 20
1742 88
1743 6
1744 84
1745 43
1746 90
1747 92
1748 117
1749 20
1750 26
1751 115
1752 98
1753 76
1754 51
1755 34
1756 3
1757 45
1758 19
1759 45
1760 17
1761 62
1762 123
1763 105
1764 98
1765 67
1766 92
1767 37
1768 41
1769 47
1770 27
1771 109
1772 56
1773 87
1774 52
1775 35
1776 11
1777 91
1778 22
1779 24
1780 111
1781 1
1782 49
1783 81
1784 58
1785 8
1786 45
1787 56
1788 63
1789 111
1790 37
1791 80
1792 108
1793 48
1794 68
1795 58
1796 113
1797 37
1798 48
1799 78
1800 75
1801 19
1802 104
1803 113
1804 63
1805 35
1806 52
1807 72
1808 48
1809 26
1810 25
1811 110
1812 39
1813 114
1814 24
1815 32
1816 108
1817 25
1818 102
1819 25
1820 91
1821 88
1822 52
1823 44
1824 36
1825 49
1826 41
1827 4
1828 113
1829 59
1830 70
1831 61
1832 69
1833 99
1834 39
1835 65
1836 16
1837 4
1838 71
1839 118
1840 3
1841 47
1842 81
1843 103
1844 61
1845 56
1846 89
1847 61
1848 103
1849 84
1850 35
1851 117
1852 94
1853 109
1854 39
1855 24
1856 76
1857 5
1858 72
1859 43
1860 17
1861 96
1862 8
1863 112
1864 52
1865 84
1866 87
1867 44
1868 0
1869 91
1870 30
1871 94
1872 86
1873 92
1874 15
1875 3
1876 12
1877 33
1878 5
1879 81
1880 34
1881 43
1882 114
1883 72
1884 109
1885 53
1886 88
1887 30
1888 88
1889 70
1890 98
1891 41
1892 71
1893 107
1894 17
1895 21
1896 50
1897 100
1898 120
1899 80
1900 81
1901 7
1902 108
1903 62
1904 56
1905 82
1906 33
1907 4
1908 101
1909 15
1910 63
1911 61
1912 95
1913 78
1914 15
1915 114
1916 90
1917 75
1918 33
1919 96
1920 94
1921 3
1922 40
1923 121
1924 87
1925 14
1926 121
1927 25
1928 0
1929 43
1930 18
1931 113
1932 7
1933 32
1934 121
1935 33
1936 6
1937 20
1938 33
1939 96
1940 49
1941 91
1942 123
1943 120
1944 83
1945 95
1946 70
1947 103
1948 28
1949 102
1950 99
1951 83
1952 31
1953 83
1954 14
1955 6
1956 90
1957 100
1958 6
1959 63
1960 54
1961 16
1962 5
1963 32
1964 36
1965 17
1966 84
1967 8
1968 95
1969 11
1970 23
1971 3
1972 111
1973 62
1974 121
1975 110
1976 35
1977 69
1978 123
1979 67
1980 31
1981 5
1982 90
1983 50
1984 84
1985 16
1986 93
1987 120
1988 82
1989 97
1990 20
1991 69
1992 39
1993 12
1994 64
1995 23
1996 88
1997 63
1998 99
1999 14
2000 19
2001 4
2002 15
2003 32
2004 65
2005 84
2006 50
2007 100
2008 38
2009 109
2010 79
2011 83
2012 11
2013 113
2014 100
2015 96
2016 69
2017 71
2018 88
2019 23
2020 18
2021 61
2022 9
2023 12
2024 70
2025 75
2026 68
2027 42
2028 15
2029 26
2030 119
2031 76
2032 32
2033 63
2034 86
2035 110
2036 53
2037 33
2038 55
2039 32
2040 70
2041 98
2042 49
2043 19
2044 116
2045 6
2046 6
2047 95
2048 17
2049 33
2050 90
2051 55
2052 30
2053 40
2054 71
2055 111
2056 56
2057 123
2058 26
2059 30
2060 54
2061 57
2062 36
2063 43
2064 42
2065 23
2066 76
2067 17
2068 6
2069 49
2070 95
2071 108
2072 36
2073 49
2074 98
2075 120
2076 76
2077 24
2078 3
2079 24
2080 62
2081 46
2082 113
2083 111
2084 38
2085 14
2086 34
2087 89
2088 20
2089 89
2090 83
2091 23
2092 103
2093 120
2094 67
2095 98
2096 98
2097 89
2098 74
2099 100
2100 75
2101 74
2102 53
2103 113
2104 29
2105 65
2106 114
2107 123
2108 36
2109 99
2110 62
2111 16
2112 80
2113 96
2114 84
2115 99
2116 100
2117 51
2118 121
2119 0
2120 29
2121 18
2122 88
2123 82
2124 111
2125 87
2126 65
2127 98
2128 83
2129 59
2130 88
2131 105
2132 71
2133 59
2134 15
2135 72
2136 48
2137 29
2138 114
2139 20
2140 5
2141 97
2142 6
2143 83
2144 89
2145 70
2146 69
2147 65
2148 65
2149 1
2150 39
2151 49
2152 87
2153 33
2154 86
2155 88
2156 83
2157 105
2158 63
2159 52
2160 10
2161 36
2162 0
2163 112
2164 49
2165 32
2166 34
2167 78
2168 48
2169 29
2170 65
2171 98
2172 3
2173 109
2174 87
2175 63
2176 82
2177 2
2178 65
2179 89
2180 71
2181 35
2182 64
2183 11
2184 7
2185 8
2186 11
2187 82
2188 95
2189 108
2190 122
2191 63
2192 34
2193 84
2194 22
2195 73
2196 36
2197 115
2198 62
2199 71
2200 62
2201 115
2202 58
2203 120
2204 26
2205 48
2206 43
2207 6
2208 49
2209 115
2210 26
2211 104
2212 25
2213 4
2214 88
2215 89
2216 74
2217 74
2218 69
2219 69
2220 123
2221 28
2222 73
2223 101
2224 56
2225 74
2226 34
2227 113
2228 9
2229 32
2230 2
2231 50
2232 120
2233 55
2234 74
2235 60
2236 55
2237 91
2238 93
2239 64
2240 67
2241 14
2242 26
2243 76
2244 41
2245 7
2246 24
2247 103
2248 59
2249 78
2250 26
2251 74
2252 14
2253 47
2254 35
2255 8
2256 126
2257 76
2258 11
2259 72
2260 15
2261 63
2262 56
2263 108
2264 71
2265 39
2266 58
2267 67
2268 69
2269 27
2270 25
2271 75
2272 15
2273 68
2274 35
2275 49
2276 30
2277 108
2278 32
2279 114
2280 20
2281 115
2282 79
2283 42
2284 23
2285 48
2286 79
2287 38
2288 20
2289 91
2290 89
2291 127
2292 115
2293 20
2294 55
2295 64
2296 45
2297 93
2298 117
2299 110
2300 11
2301 37
2302 71
2303 1
2304 50
2305 8
2306 109
2307 32
2308 9
2309 49
2310 60
2311 70
2312 47
2313 40
2314 116
2315 99
2316 29
2317 58
2318 23
2319 73
2320 120
2321 89
2322 44
2323 37
2324 15
2325 70
2326 41
2327 95
2328 72
2329 9
2330 3
2331 31
2332 26
2333 41
2334 64
2335 32
2336 108
2337 5
2338 123
2339 21
2340 34
2341 79
2342 52
2343 74
2344 21
2345 43
2346 91
2347 19
2348 86
2349 77
2350 111
2351 83
2352 52
2353 8
2354 84
2355 2
2356 20
2357 86
2358 4
2359 20
2360 105
2361 57
2362 8
2363 20
2364 98
2365 54
2366 50
2367 110
2368 6
2369 10
2370 97
2371 98
2372 67
2373 105
2374 62
2375 87
2376 48
2377 15
2378 90
2379 72
2380 75
2381 49
2382 56
2383 59
2384 10
2385 58
2386 78
2387 32
2388 77
2389 25
2390 88
2391 15
2392 99
2393 32
2394 22
2395 20
2396 93
2397 28
2398 37
2399 31
2400 47
2401 24
2402 57
2403 98
2404 98
2405 52
2406 32
2407 51
2408 102
2409 112
2410 122
2411 102
2412 49
2413 71
2414 79
2415 20
2416 102
2417 59
2418 6
2419 25
2420 75
2421 32
2422 58
2423 14
2424 42
2425 69
2426 43
2427 54
2428 26
2429 65
2430 32
2431 22
2432 9
2433 78
2434 114
2435 115
2436 49
2437 107
2438 25
2439 14
2440 116
2441 7
2442 49
2443 15
2444 111
2445 4
2446 12
2447 72
2448 69
2449 16
2450 93
2451 109
2452 111
2453 82
2454 71
2455 48
2456 29
2457 54
2458 9
2459 79
2460 43
2461 94
2462 76
2463 17
2464 1
2465 47
2466 2
2467 48
2468 35
2469 67
2470 80
2471 55
2472 68
2473 95
2474 115
2475 100
2476 83
2477 32
2478 23
2479 47
2480 88
2481 113
2482 9
2483 13
2484 52
2485 49
2486 53
2487 22
2488 116
2489 116
2490 78
2491 17
2492 47
2493 9
2494 20
2495 61
2496 53
2497 36
2498 5
2499 90
2500 26
2501 54
2502 47
2503 3
2504 90
2505 90
2506 40
2507 91
2508 87
2509 74
2510 34
2511 32
2512 31
2513 116
2514 72
2515 5
2516 12
2517 119
2518 36
2519 52
2520 45
2521 24
2522 63
2523 86
2524 97
2525 16
2526 35
2527 65
2528 50
2529 63
2530 38
2531 3
2532 59
2533 97
2534 12
2535 50
2536 3
2537 68
2538 110
2539 32
2540 21
2541 108
2542 65
2543 24
2544 103
2545 69
2546 40
2547 5
2548 96
2549 29
2550 69
2551 62
2552 53
2553 65
2554 119
2555 63
2556 63
2557 9
2558 68
2559 40
2560 12
2561 78
2562 38
2563 32
2564 45
2565 84
2566 101
2567 33
2568 90
2569 17
2570 58
2571 52
2572 34
2573 29
2574 9
2575 69
2576 30
2577 90
2578 59
2579 90
2580 58
2581 53
2582 71
2583 16
2584 6
2585 107
2586 0
2587 15
2588 3
2589 101
2590 41
2591 99
2592 53
2593 28
2594 122
2595 63
2596 14
2597 56
2598 11
2599 37
2600 32
2601 102
2602 3
2603 74
2604 45
2605 76
2606 39
2607 41
2608 22
2609 98
2610 109
2611 73
2612 9
2613 24
2614 31
2615 90
2616 30
2617 23
2618 28
2619 77
2620 11
2621 17
2622 32
2623 19
2624 56
2625 12
2626 88
2627 50
2628 7
2629 6
2630 81
2631 29
2632 3
2633 12
2634 7
2635 73
2636 30
2637 63
2638 7
2639 30
2640 67
2641 6
2642 7
2643 107
2644 39
2645 74
2646 22
2647 74
2648 61
2649 48
2650 60
2651 48
2652 9
2653 20
2654 13
2655 10
2656 3
2657 39
2658 89
2659 53
2660 100
2661 56
2662 3
2663 14
2664 93
2665 90
2666 70
2667 15
2668 74
2669 48
2670 23
2671 35
2672 36
2673 25
2674 107
2675 56
2676 100
2677 15
2678 50
2679 28
2680 94
2681 22
2682 30
2683 24
2684 123
2685 75
2686 116
2687 25
2688 94
2689 78
2690 73
2691 9
2692 103
2693 120
2694 120
2695 45
2696 56
2697 89
2698 77
2699 23
2700 69
2701 100
2702 65
2703 23
2704 5
2705 19
2706 25
2707 108
2708 72
2709 83
2710 59
2711 35
2712 63
2713 40
2714 102
2715 33
2716 119
2717 118
2718 64
2719 50
2720 48
2721 14
2722 73
2723 120
2724 101
2725 22
2726 79
2727 33
2728 14
2729 4
2730 94
2731 48
2732 18
2733 58
2734 36
2735 17
2736 35
2737 111
2738 63
2739 101
2740 95
2741 6
2742 6
2743 58
2744 19
2745 4
2746 50
2747 20
2748 73
2749 99
2750 65
2751 20
2752 75
2753 113
2754 101
2755 50
2756 30
2757 52
2758 73
2759 6
2760 45
2761 70
2762 93
2763 28
2764 71
2765 73
2766 99
2767 1
2768 6
2769 78
2770 61
2771 87
2772 21
2773 113
2774 68
2775 47
2776 14
2777 76
2778 0
2779 73
2780 56
2781 63
2782 122
2783 63
2784 53
2785 23
2786 102
2787 89
2788 3
2789 122
2790 98
2791 18
2792 62
2793 99
2794 1
2795 6
2796 26
2797 68
2798 7
2799 53
2800 3
2801 20
2802 60
2803 10
2804 21
2805 95
2806 34
2807 45
2808 9
2809 91
2810 103
2811 71
2812 54
2813 119
2814 102
2815 48
2816 98
2817 34
2818 80
2819 60
2820 58
2821 76
2822 13
2823 17
2824 70
2825 48
2826 128
2827 5
2828 34
2829 22
2830 117
2831 33
2832 6
2833 114
2834 65
2835 74
2836 73
2837 18
2838 37
2839 0
2840 24
2841 76
2842 20
2843 49
2844 21
2845 18
2846 49
2847 24
2848 25
2849 78
2850 63
2851 92
2852 85
2853 68
2854 0
2855 99
2856 15
2857 34
2858 103
2859 80
2860 48
2861 109
2862 111
2863 116
2864 3
2865 61
2866 18
2867 42
2868 123
2869 47
2870 3
2871 95
2872 79
2873 115
2874 96
2875 11
2876 21
2877 13
2878 22
2879 120
2880 56
2881 114
2882 43
2883 3
2884 49
2885 20
2886 41
2887 3
2888 90
2889 22
2890 65
2891 8
2892 90
2893 11
2894 113
2895 116
2896 20
2897 43
2898 37
2899 23
2900 120
2901 14
2902 111
2903 88
2904 55
2905 64
2906 3
2907 76
2908 47
2909 16
2910 3
2911 43
2912 68
2913 92
2914 48
2915 60
2916 58
2917 9
2918 103
2919 25
2920 28
2921 8
2922 121
2923 13
2924 100
2925 117
2926 26
2927 34
2928 73
2929 107
2930 7
2931 72
2932 6
2933 104
2934 12
2935 6
2936 11
2937 24
2938 56
2939 76
2940 61
2941 115
2942 51
2943 84
2944 70
2945 8
2946 117
2947 99
2948 47
2949 71
2950 47
2951 21
2952 59
2953 37
2954 68
2955 56
2956 23
2957 1
2958 39
2959 70
2960 15
2961 60
2962 93
2963 35
2964 48
2965 6
2966 61
2967 123
2968 74
2969 76
2970 55
2971 94
2972 43
2973 59
2974 105
2975 94
2976 70
2977 7
2978 14
2979 34
2980 72
2981 13
2982 1
2983 41
2984 118
2985 56
2986 30
2987 10
2988 103
2989 58
2990 36
2991 48
2992 19
2993 73
2994 58
2995 65
2996 6
2997 101
2998 19
2999 98
3000 47
3001 35
3002 117
3003 59
3004 31
3005 35
3006 66
3007 96
3008 102
3009 80
3010 29
3011 91
3012 31
3013 24
3014 55
3015 35
3016 11
3017 109
3018 59
3019 17
3020 111
3021 108
3022 47
3023 24
3024 47
3025 75
3026 12
3027 61
3028 105
3029 3
3030 12
3031 81
3032 52
3033 104
3034 53
3035 64
3036 71
3037 27
3038 21
3039 49
3040 111
3041 63
3042 111
3043 21
3044 19
3045 121
3046 49
3047 81
3048 100
3049 46
3050 3
3051 69
3052 10
3053 120
3054 4
3055 24
3056 36
3057 20
3058 22
3059 117
3060 25
3061 76
3062 105
3063 83
3064 108
3065 54
3066 102
3067 108
3068 89
3069 51
3070 81
3071 114
3072 67
3073 37
3074 24
3075 88
3076 7
3077 72
3078 89
3079 7
3080 28
3081 84
3082 78
3083 27
3084 43
3085 110
3086 49
3087 107
3088 24
3089 121
3090 111
3091 28
3092 75
3093 37
3094 25
3095 47
3096 51
3097 2
3098 15
3099 32
3100 42
3101 99
3102 47
3103 24
3104 53
3105 87
3106 14
3107 72
3108 4
3109 6
3110 24
3111 53
3112 67
3113 2
3114 14
3115 70
3116 96
3117 80
3118 129
3119 65
3120 75
3121 28
3122 8
3123 7
3124 69
3125 65
3126 123
3127 87
3128 89
3129 120
3130 54
3131 83
3132 1
3133 102
3134 109
3135 44
3136 14
3137 17
3138 62
3139 7
3140 29
3141 104
3142 43
3143 66
3144 61
3145 71
3146 120
3147 85
3148 95
3149 7
3150 35
3151 102
3152 92
3153 89
3154 63
3155 7
3156 35
3157 71
3158 4
3159 50
3160 51
3161 103
3162 54
3163 58
3164 63
3165 83
3166 99
3167 105
3168 30
3169 23
3170 32
3171 8
3172 35
3173 15
3174 59
3175 8
3176 105
3177 19
3178 73
3179 29
3180 119
3181 90
3182 49
3183 63
3184 0
3185 14
3186 10
3187 63
3188 45
3189 90
3190 11
3191 111
3192 47
3193 10
3194 81
3195 29
3196 58
3197 6
3198 68
3199 93
3200 108
3201 5
3202 70
3203 89
3204 41
3205 60
3206 116
3207 48
3208 29
3209 11
3210 81
3211 82
3212 44
3213 22
3214 26
3215 109
3216 75
3217 59
3218 98
3219 43
3220 69
3221 66
3222 95
3223 4
3224 91
3225 102
3226 85
3227 75
3228 23
3229 8
3230 0
3231 23
3232 61
3233 34
3234 74
3235 100
3236 89
3237 58
3238 27
3239 50
3240 120
3241 37
3242 78
3243 15
3244 30
3245 16
3246 61
3247 18
3248 73
3249 38
3250 78
3251 6
3252 119
3253 7
3254 43
3255 120
3256 9
3257 74
3258 32
3259 48
3260 55
3261 25
3262 114
3263 28
3264 97
3265 102
3266 37
3267 58
3268 79
3269 60
3270 88
3271 48
3272 123
3273 100
3274 30
3275 116
3276 93
3277 64
3278 63
3279 78
3280 98
3281 8
3282 111
3283 43
3284 111
3285 0
3286 51
3287 57
3288 57
3289 122
3290 116
3291 59
3292 57
3293 19
3294 47
3295 37
3296 34
3297 12
3298 56
3299 31
3300 64
3301 34
3302 37
3303 25
3304 25
3305 20
3306 30
3307 89
3308 9
3309 47
3310 62
3311 14
3312 66
3313 56
3314 33
3315 118
3316 63
3317 43
3318 24
3319 113
3320 103
3321 51
3322 60
3323 16
3324 48
3325 63
3326 115
3327 82
3328 86
3329 90
3330 98
3331 5
3332 56
3333 89
3334 32
3335 49
3336 57
3337 3
3338 53
3339 58
3340 116
3341 108
3342 52
3343 6
3344 60
3345 36
3346 63
3347 21
3348 57
3349 96
3350 70
3351 77
3352 43
3353 0
3354 63
3355 61
3356 28
3357 76
3358 96
3359 69
3360 65
3361 34
3362 111
3363 85
3364 64
3365 95
3366 102
3367 78
3368 114
3369 7
3370 5
3371 122
3372 120
3373 14
3374 42
3375 52
3376 56
3377 122
3378 6
3379 120
3380 5
3381 123
3382 36
3383 48
3384 7
3385 17
3386 105
3387 73
3388 83
3389 19
3390 24
3391 96
3392 63
3393 19
3394 20
3395 83
3396 3
3397 36
3398 16
3399 24
3400 130
3401 77
3402 65
3403 79
3404 26
3405 11
3406 56
3407 81
3408 88
3409 26
3410 91
3411 89
3412 41
3413 51
3414 98
3415 49
3416 12
3417 72
3418 29
3419 20
3420 57
3421 74
3422 23
3423 74
3424 123
3425 107
3426 13
3427 80
3428 1
3429 15
3430 9
3431 95
3432 72
3433 6
3434 29
3435 94
3436 0
3437 46
3438 89
3439 33
3440 49
3441 31
3442 0
3443 88
3444 8
3445 36
3446 87
3447 120
3448 117
3449 17
3450 108
3451 93
3452 80
3453 31
3454 9
3455 20
3456 80
3457 10
3458 75
3459 43
3460 73
3461 110
3462 114
3463 25
3464 58
3465 18
3466 97
3467 69
3468 51
3469 20
3470 3
3471 3
3472 103
3473 113
3474 14
3475 108
3476 46
3477 123
3478 102
3479 100
3480 101
3481 29
3482 36
3483 18
3484 17
3485 98
3486 62
3487 51
3488 70
3489 72
3490 51
3491 54
3492 118
3493 12
3494 50
3495 38
3496 5
3497 64
3498 53
3499 81
3500 49
3501 114
3502 100
3503 74
3504 107
3505 18
3506 77
3507 98
3508 10
3509 105
3510 101
3511 13
3512 110
3513 77
3514 100
3515 117
3516 48
3517 76
3518 36
3519 53
3520 109
3521 26
3522 47
3523 17
3524 44
3525 50
3526 99
3527 72
3528 98
3529 24
3530 115
3531 97
3532 37
3533 11
3534 72
3535 95
3536 117
3537 72
3538 96
3539 90
3540 70
3541 4
3542 35
3543 76
3544 53
3545 70
3546 90
3547 22
3548 123
3549 20
3550 26
3551 68
3552 31
3553 120
3554 4
3555 11
3556 107
3557 80
3558 70
3559 93
3560 35
3561 107
3562 24
3563 58
3564 78
3565 114
3566 47
3567 99
3568 74
3569 25
3570 3
3571 31
3572 52
3573 82
3574 99
3575 53
3576 23
3577 62
3578 3
3579 97
3580 67
3581 53
3582 43
3583 6
3584 25
3585 100
3586 9
3587 1
3588 1
3589 55
3590 33
3591 20
3592 85
3593 52
3594 74
3595 61
3596 54
3597 49
3598 118
3599 75
3600 53
3601 53
3602 30
3603 85
3604 116
3605 18
3606 105
3607 90
3608 41
3609 49
3610 19
3611 107
3612 20
3613 98
3614 54
3615 101
3616 65
3617 62
3618 86
3619 81
3620 115
3621 47
3622 72
3623 62
3624 0
3625 35
3626 11
3627 73
3628 97
3629 21
3630 10
3631 34
3632 54
3633 20
3634 92
3635 61
3636 11
3637 28
3638 72
3639 107
3640 91
3641 75
3642 83
3643 12
3644 14
3645 111
3646 71
3647 63
3648 116
3649 11
3650 71
3651 19
3652 61
3653 116
3654 103
3655 4
3656 73
3657 24
3658 16
3659 7
3660 108
3661 81
3662 77
3663 4
3664 20
3665 11
3666 20
3667 48
3668 119
3669 6
3670 14
3671 45
3672 59
3673 121
3674 78
3675 4
3676 34
3677 70
3678 6
3679 84
3680 54
3681 43
3682 49
3683 27
3684 59
3685 108
3686 48
3687 64
3688 52
3689 7
3690 103
3691 1
3692 50
3693 43
3694 3
3695 67
3696 91
3697 52
3698 27
3699 90
3700 49
3701 72
3702 61
3703 114
3704 36
3705 61
3706 72
3707 46
3708 58
3709 20
3710 9
3711 98
3712 21
3713 74
3714 100
3715 85
3716 84
3717 54
3718 86
3719 100
3720 112
3721 9
3722 89
3723 98
3724 10
3725 31
3726 89
3727 91
3728 48
3729 53
3730 87
3731 29
3732 54
3733 25
3734 53
3735 22
3736 4
3737 26
3738 31
3739 87
3740 92
3741 46
3742 57
3743 96
3744 66
3745 119
3746 81
3747 83
3748 94
3749 97
3750 93
3751 42
3752 36
3753 8
3754 20
3755 40
3756 74
3757 19
3758 23
3759 95
3760 57
3761 99
3762 56
3763 117
3764 64
3765 111
3766 111
3767 8
3768 44
3769 61
3770 51
3771 6
3772 3
3773 37
3774 74
3775 20
3776 10
3777 32
3778 33
3779 35
3780 76
3781 88
3782 11
3783 65
3784 88
3785 79
3786 114
3787 92
3788 59
3789 94
3790 114
3791 5
3792 72
3793 15
3794 92
3795 81
3796 76
3797 57
3798 14
3799 33
3800 69
3801 10
3802 78
3803 52
3804 63
3805 78
3806 67
3807 68
3808 93
3809 2
3810 26
3811 34
3812 84
3813 116
3814 5
3815 101
3816 81
3817 53
3818 56
3819 84
3820 6
3821 114
3822 122
3823 24
3824 118
3825 28
3826 26
3827 123
3828 114
3829 54
3830 110
3831 47
3832 21
3833 19
3834 80
3835 76
3836 68
3837 48
3838 6
3839 35
3840 105
3841 47
3842 44
3843 44
3844 1
3845 75
3846 22
3847 110
3848 49
3849 12
3850 11
3851 80
3852 73
3853 61
3854 0
3855 69
3856 91
3857 117
3858 63
3859 115
3860 98
3861 56
3862 131
3863 50
3864 83
3865 2
3866 26
3867 77
3868 86
3869 46
3870 12
3871 43
3872 90
3873 41
3874 21
3875 28
3876 112
3877 58
3878 32
3879 2
3880 63
3881 67
3882 114
3883 24
3884 52
3885 118
3886 36
3887 80
3888 57
3889 32
3890 17
3891 47
3892 18
3893 27
3894 57
3895 20
3896 69
3897 40
3898 58
3899 51
3900 51
3901 97
3902 102
3903 43
3904 80
3905 40
3906 56
3907 6
3908 53
3909 47
3910 102
3911 7
3912 19
3913 37
3914 47
3915 108
3916 63
3917 63
3918 55
3919 64
3920 17
3921 17
3922 113
3923 110
3924 24
3925 15
3926 103
3927 12
3928 4
3929 90
3930 117
3931 0
3932 31
3933 61
3934 58
3935 2
3936 122
3937 65
3938 97
3939 115
3940 29
3941 91
3942 49
3943 33
3944 36
3945 63
3946 16
3947 69
3948 47
3949 2
3950 37
3951 1
3952 117
3953 21
3954 66
3955 116
3956 97
3957 26
3958 33
3959 32
3960 32
3961 82
3962 37
3963 28
3964 78
3965 17
3966 30
3967 114
3968 57
3969 7
3970 51
3971 87
3972 39
3973 67
3974 108
3975 69
3976 66
3977 60
3978 32
3979 79
3980 119
3981 46
3982 98
3983 7
3984 74
3985 63
3986 102
3987 0
3988 14
3989 63
3990 36
3991 123
3992 59
3993 32
3994 61
3995 3
3996 98
3997 1
3998 34
3999 24
4000 11
4001 24
4002 19
4003 58
4004 54
4005 3
4006 121
4007 87
4008 28
4009 69
4010 7
4011 84
4012 47
4013 4
4014 17
4015 112
4016 100
4017 62
4018 48
4019 81
4020 93
4021 23
4022 20
4023 87
4024 15
4025 39
4026 7
4027 68
4028 12
4029 25
4030 123
4031 57
4032 22
4033 37
4034 71
4035 19
4036 58
4037 118
4038 33
4039 111
4040 73
4041 29
4042 81
4043 6
4044 69
4045 107
4046 68
4047 97
4048 63
4049 36
4050 100
4051 31
4052 21
4053 11
4054 111
4055 74
4056 64
4057 47
4058 73
4059 20
4060 14
4061 67
4062 58
4063 94
4064 37
4065 6
4066 51
4067 50
4068 29
4069 8
4070 56
4071 28
4072 96
4073 87
4074 98
4075 31
4076 65
4077 15
4078 26
4079 7
4080 77
4081 22
4082 3
4083 23
4084 74
4085 91
4086 61
4087 43
4088 52
4089 87
4090 24
4091 88
4092 25
4093 63
4094 74
4095 10
4096 92
4097 94
4098 69
4099 103
4100 29
4101 17
4102 9
4103 6
4104 114
4105 24
4106 21
4107 67
4108 11
4109 122
4110 79
4111 30
4112 28
4113 109
4114 15
4115 5
4116 12
4117 90
4118 10
4119 107
4120 98
4121 91
4122 79
4123 116
4124 110
4125 86
4126 120
4127 99
4128 83
4129 58
4130 88
4131 26
4132 32
4133 34
4134 56
4135 1
4136 103
4137 95
4138 114
4139 86
4140 17
4141 37
4142 118
4143 21
4144 132
4145 75
4146 88
4147 51
4148 88
4149 24
4150 109
4151 7
4152 28
4153 32
4154 105
4155 81
4156 17
4157 116
4158 70
4159 86
4160 96
4161 84
4162 3
4163 83
4164 79
4165 1
4166 11
4167 94
4168 8
4169 9
4170 8
4171 63
4172 7
4173 18
4174 98
4175 59
4176 77
4177 10
4178 123
4179 51
4180 96
4181 69
4182 19
4183 91
4184 21
4185 90
4186 42
4187 30
4188 25
4189 75
4190 92
4191 75
4192 30
4193 24
4194 108
4195 70
4196 57
4197 24
4198 115
4199 91
4200 7
4201 12
4202 73
4203 68
4204 0
4205 34
4206 94
4207 19
4208 120
4209 92
4210 23
4211 23
4212 3
4213 9
4214 100
4215 37
4216 1
4217 49
4218 95
4219 97
4220 75
4221 9
4222 69
4223 69
4224 83
4225 15
4226 80
4227 95
4228 117
4229 78
4230 9
4231 115
4232 64
4233 68
4234 102
4235 19
4236 93
4237 25
4238 101
4239 25
4240 50
4241 31
4242 96
4243 89
4244 29
4245 23
4246 99
4247 24
4248 119
4249 3
4250 52
4251 46
4252 68
4253 36
4254 25
4255 13
4256 123
4257 96
4258 61
4259 101
4260 7
4261 60
4262 10
4263 72
4264 84
4265 105
4266 7
4267 118
4268 100
4269 86
4270 83
4271 28
4272 27
4273 38
4274 102
4275 91
4276 102
4277 119
4278 69
4279 26
4280 67
4281 92
4282 43
4283 72
4284 91
4285 20
4286 73
4287 107
4288 18
4289 20
4290 52
4291 90
4292 67
4293 94
4294 96
4295 1
4296 36
4297 22
4298 50
4299 6
4300 11
4301 71
4302 85
4303 68
4304 96
4305 51
4306 32
4307 61
4308 6
4309 65
4310 97
4311 113
4312 7
4313 16
4314 37
4315 111
4316 58
4317 7
4318 120
4319 9
4320 68
4321 66
4322 16
4323 49
4324 110
4325 90
4326 117
4327 73
4328 67
4329 58
4330 36
4331 35
4332 26
4333 53
4334 33
4335 24
4336 105
4337 21
4338 32
4339 123
4340 11
4341 22
4342 115
4343 63
4344 6
4345 36
4346 65
4347 34
4348 96
4349 112
4350 123
4351 64
4352 86
4353 118
4354 121
4355 64
4356 44
4357 47
4358 44
4359 43
4360 61
4361 41
4362 17
4363 13
4364 95
4365 73
4366 119
4367 88
4368 92
4369 94
4370 37
4371 118
4372 37
4373 67
4374 110
4375 92
4376 61
4377 62
4378 31
4379 105
4380 88
4381 87
4382 25
4383 29
4384 74
4385 102
4386 63
4387 103
4388 42
4389 53
4390 98
4391 75
4392 15
4393 49
4394 111
4395 65
4396 48
4397 5
4398 27
4399 101
4400 37
4401 7
4402 19
4403 61
4404 63
4405 56
4406 110
4407 1
4408 22
4409 13
4410 101
4411 36
4412 55
4413 15
4414 109
4415 6
4416 113
4417 35
4418 110
4419 30
4420 21
4421 63
4422 71
4423 7
4424 117
4425 98
4426 63
4427 91
4428 100
4429 97
4430 26
4431 92
4432 84
4433 37
4434 49
4435 117
4436 113
4437 51
4438 46
4439 1
4440 77
4441 77
4442 81
4443 22
4444 120
4445 75
4446 20
4447 54
4448 68
4449 111
4450 34
4451 82
4452 63
4453 70
4454 44
4455 54
4456 5
4457 78
4458 11
4459 112
4460 116
4461 6
4462 6
4463 19
4464 10
4465 35
4466 16
4467 76
4468 0
4469 10
4470 7
4471 18
4472 113
4473 0
4474 22
4475 42
4476 62
4477 21
4478 23
4479 39
4480 49
4481 28
4482 83
4483 18
4484 98
4485 96
4486 10
4487 95
4488 74
4489 20
4490 91
4491 69
4492 4
4493 26
4494 117
4495 57
4496 109
4497 92
4498 86
4499 96
4500 3
4501 30
4502 5
4503 56
4504 49
4505 116
4506 71
4507 47
4508 111
4509 73
4510 10
4511 3
4512 84
4513 55
4514 100
4515 30
4516 67
4517 103
4518 3
4519 89
4520 64
4521 93
4522 65
4523 58
4524 47
4525 82
4526 81
4527 74
4528 73
4529 52
4530 87
4531 36
4532 3
4533 81
4534 15
4535 68
4536 33
4537 4
4538 7
4539 63
4540 97
4541 9
4542 59
4543 94
4544 2
4545 36
4546 44
4547 18
4548 49
4549 8
4550 111
4551 56
4552 59
4553 98
4554 108
4555 116
4556 34
4557 65
4558 60
4559 84
4560 28
4561 100
4562 70
4563 110
4564 16
4565 121
4566 71
4567 42
4568 12
4569 86
4570 73
4571 105
4572 3
4573 53
4574 44
4575 55
4576 74
4577 7
4578 1
4579 118
4580 47
4581 94
4582 14
4583 19
4584 65
4585 24
4586 31
4587 60
4588 71
4589 12
4590 37
4591 45
4592 59
4593 33
4594 78
4595 6
4596 74
4597 15
4598 14
4599 120
4600 57
4601 24
4602 11
4603 16
4604 85
4605 105
4606 117
4607 98
4608 118
4609 54
4610 37
4611 1
4612 14
4613 88
4614 28
4615 85
4616 29
4617 2
4618 84
4619 32
4620 55
4621 77
4622 105
4623 86
4624 1
4625 40
4626 46
4627 81
4628 82
4629 52
4630 98
4631 83
4632 42
4633 43
4634 75
4635 111
4636 105
4637 94
4638 122
4639 51
4640 92
4641 43
4642 65
4643 0
4644 26
4645 83
4646 59
4647 43
4648 81
4649 45
4650 76
4651 45
4652 108
4653 2
4654 0
4655 38
4656 54
4657 18
4658 75
4659 70
4660 64
4661 65
4662 9
4663 4
4664 48
4665 32
4666 22
4667 60
4668 85
4669 48
4670 118
4671 54
4672 118
4673 16
4674 47
4675 114
4676 78
4677 37
4678 36
4679 78
4680 89
4681 61
4682 19
4683 98
4684 109
4685 42
4686 105
4687 111
4688 80
4689 31
4690 49
4691 60
4692 12
4693 100
4694 113
4695 74
4696 80
4697 1
4698 61
4699 12
4700 71
4701 100
4702 36
4703 55
4704 73
4705 81
4706 75
4707 94
4708 53
4709 32
4710 19
4711 84
4712 90
4713 32
4714 68
4715 104
4716 83
4717 47
4718 14
4719 25
4720 99
4721 82
4722 97
4723 53
4724 9
4725 10
4726 14
4727 70
4728 9
4729 57
4730 60
4731 65
4732 68
4733 16
4734 33
4735 38
4736 15
4737 84
4738 9
4739 52
4740 90
4741 72
4742 0
4743 4
4744 63
4745 26
4746 108
4747 36
4748 54
4749 48
4750 71
4751 68
4752 122
4753 35
4754 16
4755 51
4756 23
4757 110
4758 46
4759 2
4760 50
4761 95
4762 19
4763 93
4764 25
4765 54
4766 71
4767 104
4768 26
4769 19
4770 32
4771 27
4772 59
4773 82
4774 63
4775 47
4776 0
4777 117
4778 16
4779 122
4780 62
4781 89
4782 13
4783 101
4784 123
4785 29
4786 108
4787 119
4788 91
4789 58
4790 28
4791 3
4792 11
4793 48
4794 50
4795 63
4796 50
4797 61
4798 38
4799 36
4800 11
4801 14
4802 84
4803 120
4804 56
4805 90
4806 123
4807 122
4808 96
4809 53
4810 86
4811 115
4812 44
4813 60
4814 55
4815 38
4816 37
4817 42
4818 67
4819 87
4820 48
4821 36
4822 107
4823 103
4824 32
4825 4
4826 16
4827 96
4828 79
4829 86
4830 60
4831 89
4832 88
4833 69
4834 24
4835 1
4836 75
4837 68
4838 88
4839 15
4840 53
4841 69
4842 98
4843 61
4844 34
4845 92
4846 49
4847 68
4848 40
4849 63
4850 92
4851 30
4852 60
4853 69
4854 19
4855 29
4856 19
4857 119
4858 88
4859 22
4860 25
4861 72
4862 69
4863 113
4864 112
4865 72
4866 60
4867 73
4868 49
4869 7
4870 91
4871 115
4872 26
4873 1
4874 61
4875 32
4876 69
4877 51
4878 21
4879 105
4880 45
4881 47
4882 5
4883 102
4884 121
4885 73
4886 24
4887 79
4888 113
4889 49
4890 102
4891 29
4892 59
4893 2
4894 120
4895 133
4896 18
4897 81
4898 78
4899 36
4900 54
4901 14
4902 10
4903 111
4904 29
4905 48
4906 122
4907 72
4908 71
4909 84
4910 16
4911 36
4912 0
4913 5
4914 16
4915 50
4916 56
4917 91
4918 22
4919 108
4920 118
4921 41
4922 121
4923 58
4924 94
4925 33
4926 76
4927 45
4928 112
4929 48
4930 80
4931 17
4932 72
4933 2
4934 97
4935 77
4936 116
4937 19
4938 64
4939 12
4940 6
4941 34
4942 25
4943 17
4944 100
4945 95
4946 46
4947 113
4948 99
4949 36
4950 30
4951 31
4952 9
4953 13
4954 2
4955 53
4956 39
4957 62
4958 90
4959 108
4960 69
4961 62
4962 62
4963 32
4964 53
4965 49
4966 85
4967 31
4968 46
4969 86
4970 75
4971 9
4972 79
4973 100
4974 76
4975 56
4976 3
4977 30
4978 6
4979 100
4980 40
4981 118
4982 110
4983 51
4984 57
4985 42
4986 64
4987 45
4988 37
4989 61
4990 48
4991 1
4992 32
4993 109
4994 15
4995 79
4996 9
4997 16
4998 31
4999 20
5000 75
5001 76
5002 77
5003 3
5004 0
5005 26
5006 98
5007 32
5008 118
5009 118
5010 40
5011 23
5012 63
5013 50
5014 98
5015 113
5016 100
5017 65
5018 28
5019 6
5020 51
5021 101
5022 93
5023 36
5024 100
5025 98
5026 89
5027 48
5028 105
5029 24
5030 6
5031 24
5032 37
5033 3
5034 1
5035 39
5036 88
5037 39
5038 3
5039 107
5040 53
5041 30
5042 16
5043 63
5044 52
5045 7
5046 5
5047 120
5048 15
5049 59
5050 81
5051 109
5052 103
5053 73
5054 91
5055 22
5056 14
5057 16
5058 11
5059 5
5060 15
5061 3
5062 45
5063 24
5064 70
5065 37
5066 63
5067 4
5068 100
5069 95
5070 83
5071 119
5072 34
5073 63
5074 25
5075 30
5076 25
5077 56
5078 6
5079 122
5080 20
5081 78
5082 17
5083 119
5084 82
5085 51
5086 2
5087 35
5088 86
5089 16
5090 20
5091 45
5092 43
5093 22
5094 34
5095 99
5096 62
5097 6
5098 115
5099 9
5100 15
5101 91
5102 92
5103 23
5104 114
5105 11
5106 1
5107 84
5108 21
5109 110
5110 2
5111 99
5112 111
5113 3
5114 115
5115 14
5116 90
5117 85
5118 11
5119 110
5120 95
5121 53
5122 11
5123 17
5124 20
5125 1
5126 63
5127 90
5128 7
5129 93
5130 63
5131 47
5132 39
5133 51
5134 42
5135 105
5136 56
5137 1
5138 48
5139 121
5140 14
5141 6
5142 96
5143 93
5144 60
5145 53
5146 0
5147 97
5148 122
5149 109
5150 34
5151 107
5152 32
5153 69
5154 60
5155 1
5156 59
5157 34
5158 117
5159 14
5160 62
5161 100
5162 98
5163 120
5164 47
5165 24
5166 48
5167 90
5168 6
5169 61
5170 6
5171 122
5172 22
5173 101
5174 0
5175 65
5176 65
5177 24
5178 47
5179 81
5180 15
5181 89
5182 99
5183 46
5184 0
5185 40
5186 24
5187 74
5188 64
5189 117
5190 40
5191 65
5192 10
5193 121
5194 80
5195 2
5196 9
5197 123
5198 73
5199 79
5200 87
5201 33
5202 59
5203 11
5204 7
5205 22
5206 10
5207 28
5208 104
5209 117
5210 75
5211 51
5212 53
5213 34
5214 39
5215 32
5216 87
5217 56
5218 20
5219 98
5220 81
5221 21
5222 26
5223 114
5224 17
5225 118
5226 50
5227 25
5228 36
5229 25
5230 116
5231 25
5232 21
5233 75
5234 58
5235 10
5236 123
5237 93
5238 16
5239 34
5240 43
5241 100
5242 27
5243 0
5244 5
5245 88
5246 20
5247 76
5248 103
5249 29
5250 28
5251 116
5252 22
5253 34
5254 61
5255 1
5256 66
5257 100
5258 8
5259 110
5260 44
5261 14
5262 57
5263 33
5264 24
5265 20
5266 97
5267 29
5268 30
5269 59
5270 31
5271 11
5272 3
5273 69
5274 61
5275 95
5276 101
5277 17
5278 22
5279 10
5280 20
5281 4
5282 67
5283 89
5284 86
5285 74
5286 74
5287 32
5288 71
5289 36
5290 7
5291 15
5292 90
5293 52
5294 5
5295 22
5296 47
5297 9
5298 51
5299 95
5300 90
5301 2
5302 77
5303 38
5304 114
5305 5
5306 0
5307 28
5308 51
5309 21
5310 13
5311 51
5312 41
5313 88
5314 5
5315 16
5316 102
5317 75
5318 43
5319 62
5320 89
5321 96
5322 57
5323 43
5324 63
5325 65
5326 98
5327 54
5328 78
5329 120
5330 1
5331 72
5332 114
5333 87
5334 27
5335 90
5336 22
5337 63
5338 57
5339 103
5340 46
5341 113
5342 69
5343 15
5344 94
5345 29
5346 48
5347 25
5348 79
5349 52
5350 30
5351 63
5352 56
5353 93
5354 0
5355 58
5356 16
5357 53
5358 85
5359 41
5360 95
5361 37
5362 62
5363 47
5364 34
5365 100
5366 80
5367 117
5368 58
5369 37
5370 21
5371 28
5372 76
5373 73
5374 101
5375 32
5376 48
5377 70
5378 20
5379 90
5380 46
5381 114
5382 100
5383 38
5384 76
5385 48
5386 12
5387 26
5388 45
5389 35
5390 93
5391 28
5392 24
5393 53
5394 28
5395 43
5396 102
5397 61
5398 20
5399 7
5400 31
5401 36
5402 63
5403 49
5404 41
5405 94
5406 28
5407 105
5408 73
5409 69
5410 68
5411 7
5412 3
5413 100
5414 16
5415 17
5416 21
5417 75
5418 93
5419 71
5420 79
5421 21
5422 2
5423 70
5424 98
5425 15
5426 45
5427 67
5428 35
5429 98
5430 32
5431 100
5432 88
5433 63
5434 49
5435 10
5436 116
5437 54
5438 21
5439 102
5440 14
5441 75
5442 10
5443 50
5444 57
5445 71
5446 63
5447 76
5448 12
5449 46
5450 86
5451 99
5452 39
5453 6
5454 71
5455 111
5456 13
5457 51
5458 71
5459 114
5460 103
5461 6
5462 5
5463 19
5464 95
5465 100
5466 88
5467 32
5468 76
5469 56
5470 34
5471 30
5472 105
5473 54
5474 84
5475 74
5476 0
5477 28
5478 79
5479 32
5480 59
5481 6
5482 37
5483 16
5484 36
5485 54
5486 78
5487 61
5488 114
5489 28
5490 99
5491 3
5492 6
5493 55
5494 81
5495 24
5496 120
5497 60
5498 69
5499 99
5500 64
5501 57
5502 29
5503 109
5504 59
5505 72
5506 54
5507 88
5508 54
5509 9
5510 57
5511 52
5512 72
5513 39
5514 15
5515 57
5516 31
5517 91
5518 63
5519 103
5520 41
5521 108
5522 25
5523 42
5524 109
5525 18
5526 42
5527 24
5528 92
5529 76
5530 110
5531 80
5532 108
5533 32
5534 103
5535 10
5536 67
5537 61
5538 41
5539 92
5540 95
5541 6
5542 108
5543 35
5544 91
5545 103
5546 37
5547 93
5548 31
5549 113
5550 50
5551 81
5552 47
5553 47
5554 71
5555 18
5556 28
5557 59
5558 99
5559 58
5560 91
5561 90
5562 19
5563 4
5564 43
5565 117
5566 3
5567 3
5568 23
5569 25
5570 103
5571 22
5572 29
5573 123
5574 35
5575 54
5576 31
5577 10
5578 36
5579 68
5580 5
5581 14
5582 57
5583 6
5584 71
5585 83
5586 90
5587 28
5588 114
5589 63
5590 26
5591 3
5592 96
5593 3
5594 7
5595 16
5596 95
5597 88
5598 32
5599 5
5600 118
5601 28
5602 7
5603 71
5604 110
5605 92
5606 94
5607 114
5608 66
5609 97
5610 76
5611 40
5612 65
5613 51
5614 63
5615 35
5616 42
5617 103
5618 114
5619 101
5620 58
5621 58
5622 62
5623 31
5624 70
5625 69
5626 98
5627 51
5628 109
5629 43
5630 49
5631 11
5632 66
5633 74
5634 10
5635 32
5636 18
5637 68
5638 7
5639 30
5640 31
5641 31
5642 69
5643 62
5644 65
5645 80
5646 37
5647 84
5648 43
5649 20
5650 19
5651 25
5652 90
5653 78
5654 32
5655 68
5656 95
5657 58
5658 9
5659 32
5660 42
5661 8
5662 89
5663 29
5664 74
5665 25
5666 91
5667 66
5668 14
5669 50
5670 53
5671 76
5672 98
5673 108
5674 26
5675 99
5676 56
5677 48
5678 81
5679 71
5680 72
5681 11
5682 95
5683 107
5684 33
5685 24
5686 37
5687 107
5688 48
5689 115
5690 80
5691 31
5692 46
5693 68
5694 62
5695 16
5696 111
5697 7
5698 114
5699 75
5700 0
5701 59
5702 75
5703 91
5704 30
5705 121
5706 116
5707 105
5708 3
5709 63
5710 31
5711 25
5712 76
5713 37
5714 71
5715 112
5716 11
5717 21
5718 17
5719 20
5720 1
5721 48
5722 5
5723 97
5724 34
5725 70
5726 117
5727 71
5728 7
5729 25
5730 1
5731 89
5732 123
5733 105
5734 107
5735 52
5736 73
5737 64
5738 49
5739 36
5740 69
5741 30
5742 87
5743 72
5744 53
5745 7
5746 56
5747 63
5748 17
5749 95
5750 37
5751 101
5752 39
5753 77
5754 83
5755 26
5756 22
5757 48
5758 6
5759 1
5760 90
5761 89
5762 110
5763 20
5764 102
5765 14
5766 36
5767 58
5768 114
5769 1
5770 105
5771 22
5772 99
5773 12
5774 51
5775 90
5776 110
5777 40
5778 100
5779 16
5780 32
5781 32
5782 83
5783 63
5784 0
5785 85
5786 108
5787 77
5788 82
5789 109
5790 49
5791 29
5792 84
5793 118
5794 72
5795 64
5796 60
5797 107
5798 13
5799 12
5800 39
5801 44
5802 23
5803 36
5804 40
5805 6
5806 83
5807 48
5808 22
5809 87
5810 54
5811 62
5812 116
5813 5
5814 118
5815 37
5816 75
5817 121
5818 47
5819 91
5820 51
5821 49
5822 47
5823 0
5824 9
5825 19
5826 71
5827 23
5828 48
5829 75
5830 78
5831 37
5832 60
5833 45
5834 76
5835 20
5836 109
5837 13
5838 72
5839 10
5840 114
5841 56
5842 97
5843 61
5844 72
5845 87
5846 11
5847 117
5848 62
5849 58
5850 100
5851 80
5852 25
5853 6
5854 99
5855 22
5856 104
5857 103
5858 69
5859 45
5860 77
5861 98
5862 64
5863 75
5864 77
5865 0
5866 103
5867 3
5868 43
5869 61
5870 111
5871 18
5872 50
5873 3
5874 94
5875 111
5876 116
5877 8
5878 20
5879 94
5880 96
5881 22
5882 4
5883 53
5884 79
5885 21
5886 97
5887 89
5888 6
5889 36
5890 59
5891 94
5892 21
5893 111
5894 89
5895 65
5896 16
5897 102
5898 32
5899 90
5900 5
5901 98
5902 25
5903 97
5904 14
5905 63
5906 119
5907 26
5908 4
5909 117
5910 17
5911 66
5912 86
5913 98
5914 107
5915 30
5916 91
5917 111
5918 102
5919 118
5920 105
5921 28
5922 89
5923 41
5924 91
5925 14
5926 58
5927 102
5928 117
5929 13
5930 54
5931 43
5932 12
5933 29
5934 66
5935 120
5936 15
5937 42
5938 49
5939 27
5940 50
5941 103
5942 71
5943 52
5944 61
5945 51
5946 33
5947 90
5948 10
5949 84
5950 51
5951 15
5952 5
5953 28
5954 64
5955 70
5956 105
5957 51
5958 73
5959 83
5960 40
5961 0
5962 50
5963 5
5964 74
5965 82
5966 36
5967 7
5968 7
5969 91
5970 1
5971 28
5972 35
5973 93
5974 15
5975 63
5976 117
5977 91
5978 37
5979 68
5980 114
5981 56
5982 71
5983 12
5984 6
5985 3
5986 88
5987 71
5988 45
5989 18
5990 114
5991 34
5992 18
5993 14
5994 81
5995 100
5996 71
5997 16
5998 52
5999 63
6000 111
6001 64
6002 98
6003 96
6004 50
6005 113
6006 56
6007 23
6008 48
6009 47
6010 39
6011 49
6012 58
6013 117
6014 29
6015 46
6016 29
6017 12
6018 73
6019 71
6020 70
6021 64
6022 19
6023 20
6024 17
6025 56
6026 81
6027 91
6028 74
6029 116
6030 11
6031 67
6032 25
6033 33
6034 119
6035 42
6036 68
6037 30
6038 4
6039 105
6040 20
6041 75
6042 19
6043 49
6044 87
6045 31
6046 3
6047 100
6048 13
6049 0
6050 105
6051 2
6052 25
6053 1
6054 68
6055 69
6056 39
6057 59
6058 60
6059 108
6060 21
6061 122
6062 29
6063 91
6064 65
6065 88
6066 4
6067 71
6068 0
6069 12
6070 100
6071 101
6072 120
6073 113
6074 80
6075 89
6076 20
6077 3
6078 76
6079 28
6080 10
6081 43
6082 119
6083 44
6084 33
6085 96
6086 58
6087 17
6088 117
6089 31
6090 92
6091 69
6092 41
6093 76
6094 15
6095 76
6096 118
6097 10
6098 78
6099 114
6100 59
6101 48
6102 99
6103 81
6104 103
6105 20
6106 23
6107 119
6108 33
6109 39
6110 34
6111 51
6112 113
6113 64
6114 81
6115 56
6116 115
6117 68
6118 111
6119 91
6120 69
6121 42
6122 108
6123 66
6124 65
6125 81
6126 99
6127 58
6128 43
6129 37
6130 26
6131 74
6132 18
6133 109
6134 52
6135 69
6136 35
6137 58
6138 62
6139 58
6140 20
6141 47
6142 28
6143 52
6144 118
6145 102
6146 99
6147 39
6148 65
6149 10
6150 56
6151 47
6152 23
6153 76
6154 101
6155 104
6156 12
6157 30
6158 105
6159 95
6160 70
6161 39
6162 104
6163 48
6164 24
6165 17
6166 75
6167 118
6168 50
6169 3
6170 19
6171 47
6172 32
6173 60
6174 78
6175 37
6176 9
6177 55
6178 89
6179 35
6180 36
6181 91
6182 50
6183 17
6184 52
6185 80
6186 1
6187 23
6188 75
6189 59
6190 37
6191 1
6192 102
6193 46
6194 18
6195 101
6196 72
6197 56
6198 15
6199 88
6200 44
6201 11
6202 99
6203 123
6204 55
6205 29
6206 10
6207 36
6208 30
6209 32
6210 56
6211 50
6212 50
6213 118
6214 43
6215 63
6216 70
6217 45
6218 109
6219 91
6220 21
6221 7
6222 45
6223 78
6224 3
6225 33
6226 111
6227 41
6228 4
6229 33
6230 98
6231 58
6232 123
6233 107
6234 36
6235 83
6236 99
6237 42
6238 22
6239 4
6240 76
6241 21
6242 52
6243 28
6244 119
6245 20
6246 108
6247 2
6248 117
6249 97
6250 66
6251 10
6252 105
6253 100
6254 20
6255 60
6256 99
6257 115
6258 77
6259 74
6260 52
6261 61
6262 61
6263 77
6264 99
6265 100
6266 117
6267 26
6268 16
6269 116
6270 119
6271 68
6272 109
6273 9
6274 59
6275 28
6276 57
6277 3
6278 123
6279 25
6280 91
6281 73
6282 53
6283 107
6284 34
6285 83
6286 98
6287 95
6288 97
6289 64
6290 39
6291 66
6292 63
6293 99
6294 117
6295 39
6296 76
6297 118
6298 71
6299 59
6300 20
6301 47
6302 96
6303 52
6304 30
6305 123
6306 43
6307 94
6308 9
6309 35
6310 16
6311 123
6312 35
6313 119
6314 9
6315 87
6316 103
6317 111
6318 69
6319 38
6320 107
6321 94
6322 116
6323 1
6324 57
6325 16
6326 95
6327 6
6328 15
6329 32
6330 47
6331 120
6332 13
6333 20
6334 17
6335 118
6336 94
6337 32
6338 112
6339 89
6340 27
6341 105
6342 26
6343 85
6344 12
6345 4
6346 9
6347 7
6348 119
6349 120
6350 74
6351 58
6352 24
6353 109
6354 16
6355 120
6356 0
6357 72
6358 100
6359 43
6360 15
6361 31
6362 89
6363 20
6364 114
6365 21
6366 59
6367 22
6368 54
6369 31
6370 7
6371 114
6372 117
6373 13
6374 32
6375 66
6376 6
6377 116
6378 28
6379 7
6380 113
6381 118
6382 88
6383 116
6384 48
6385 49
6386 49
6387 3
6388 64
6389 69
6390 96
6391 68
6392 11
6393 91
6394 45
6395 37
6396 52
6397 83
6398 113
6399 37
6400 84
6401 41
6402 8
6403 42
6404 67
6405 98
6406 35
6407 90
6408 68
6409 3
6410 88
6411 98
6412 83
6413 36
6414 80
6415 48
6416 1
6417 27
6418 100
6419 33
6420 66
6421 11
6422 52
6423 79
6424 114
6425 123
6426 103
6427 98
6428 3
6429 117
6430 100
6431 89
6432 6
6433 37
6434 68
6435 1
6436 112
6437 96
6438 16
6439 73
6440 67
6441 1
6442 12
6443 68
6444 122
6445 91
6446 54
6447 35
6448 98
6449 104
6450 43
6451 123
6452 20
6453 65
6454 93
6455 120
6456 7
6457 65
6458 40
6459 37
6460 88
6461 25
6462 85
6463 116
6464 79
6465 89
6466 80
6467 32
6468 63
6469 67
6470 34
6471 114
6472 8
6473 89
6474 121
6475 14
6476 83
6477 84
6478 49
6479 21
6480 60
6481 43
6482 81
6483 36
6484 22
6485 84
6486 52
6487 10
6488 93
6489 64
6490 37
6491 105
6492 55
6493 57
6494 53
6495 121
6496 5
6497 17
6498 66
6499 102
6500 98
6501 100
6502 28
6503 86
6504 67
6505 20
6506 75
6507 61
6508 118
6509 54
6510 13
6511 30
6512 0
6513 65
6514 103
6515 23
6516 30
6517 14
6518 58
6519 33
6520 134
6521 42
6522 108
6523 49
6524 66
6525 26
6526 21
6527 110
6528 55
6529 53
6530 43
6531 83
6532 83
6533 33
6534 49
6535 48
6536 65
6537 77
6538 33
6539 49
6540 63
6541 107
6542 35
6543 53
6544 4
6545 69
6546 123
6547 60
6548 39
6549 49
6550 120
6551 63
6552 49
6553 39
6554 37
6555 33
6556 119
6557 104
6558 79
6559 45
6560 37
6561 4
6562 68
6563 114
6564 51
6565 9
6566 56
6567 90
6568 24
6569 0
6570 90
6571 23
6572 111
6573 59
6574 9
6575 91
6576 3
6577 48
6578 41
6579 74
6580 26
6581 12
6582 91
6583 65
6584 49
6585 80
6586 19
6587 20
6588 81
6589 90
6590 58
6591 45
6592 88
6593 48
6594 9
6595 22
6596 118
6597 58
6598 98
6599 97
6600 61
6601 69
6602 92
6603 95
6604 39
6605 0
6606 75
6607 24
6608 29
6609 13
6610 17
6611 107
6612 93
6613 43
6614 77
6615 24
6616 20
6617 14
6618 110
6619 91
6620 92
6621 73
6622 100
6623 12
6624 25
6625 9
6626 6
6627 56
6628 26
6629 53
6630 99
6631 7
6632 1
6633 118
6634 20
6635 100
6636 105
6637 63
6638 3
6639 103
6640 41
6641 80
6642 7
6643 36
6644 7
6645 26
6646 34
6647 98
6648 98
6649 7
6650 89
6651 60
6652 16
6653 29
6654 29
6655 6
6656 39
6657 80
6658 73
6659 97
6660 105
6661 102
6662 79
6663 78
6664 59
6665 85
6666 59
6667 66
6668 103
6669 94
6670 36
6671 28
6672 12
6673 27
6674 7
6675 47
6676 31
6677 33
6678 69
6679 102
6680 92
6681 96
6682 113
6683 55
6684 9
6685 46
6686 20
6687 43
6688 4
6689 114
6690 62
6691 105
6692 51
6693 72
6694 6
6695 98
6696 101
6697 62
6698 51
6699 69
6700 105
6701 105
6702 71
6703 81
6704 81
6705 20
6706 49
6707 4
6708 3
6709 29
6710 39
6711 86
6712 81
6713 38
6714 39
6715 7
6716 57
6717 51
6718 113
6719 32
6720 35
6721 98
6722 53
6723 104
6724 97
6725 42
6726 43
6727 115
6728 108
6729 108
6730 15
6731 110
6732 56
6733 111
6734 65
6735 84
6736 19
6737 3
6738 54
6739 53
6740 7
6741 68
6742 87
6743 39
6744 23
6745 115
6746 58
6747 17
6748 23
6749 16
6750 93
6751 48
6752 117
6753 57
6754 49
6755 56
6756 72
6757 64
6758 50
6759 107
6760 41
6761 54
6762 108
6763 107
6764 23
6765 26
6766 111
6767 57
6768 84
6769 45
6770 96
6771 7
6772 120
6773 33
6774 5
6775 4
6776 33
6777 98
6778 22
6779 47
6780 80
6781 37
6782 53
6783 37
6784 52
6785 60
6786 73
6787 123
6788 57
6789 42
6790 6
6791 46
6792 44
6793 15
6794 22
6795 36
6796 116
6797 23
6798 109
6799 35
6800 53
6801 62
6802 39
6803 67
6804 44
6805 43
6806 32
6807 103
6808 109
6809 71
6810 92
6811 105
6812 62
6813 58
6814 88
6815 18
6816 15
6817 120
6818 58
6819 49
6820 61
6821 59
6822 69
6823 36
6824 54
6825 96
6826 38
6827 32
6828 31
6829 21
6830 31
6831 88
6832 30
6833 1
6834 25
6835 115
6836 64
6837 70
6838 25
6839 71
6840 65
6841 13
6842 30
6843 49
6844 55
6845 77
6846 96
6847 100
6848 56
6849 65
6850 11
6851 64
6852 33
6853 119
6854 52
6855 24
6856 63
6857 115
6858 77
6859 59
6860 73
6861 62
6862 2
6863 111
6864 63
6865 30
6866 26
6867 56
6868 15
6869 84
6870 16
6871 105
6872 32
6873 0
6874 16
6875 89
6876 108
6877 89
6878 120
6879 111
6880 43
6881 114
6882 17
6883 20
6884 61
6885 43
6886 28
6887 9
6888 95
6889 81
6890 48
6891 96
6892 22
6893 3
6894 39
6895 91
6896 44
6897 64
6898 25
6899 98
6900 46
6901 86
6902 111
6903 119
6904 51
6905 120
6906 103
6907 29
6908 63
6909 55
6910 69
6911 29
6912 49
6913 2
6914 92
6915 22
6916 49
6917 101
6918 44
6919 118
6920 35
6921 88
6922 5
6923 60
6924 105
6925 65
6926 10
6927 28
6928 64
6929 60
6930 7
6931 51
6932 26
6933 62
6934 54
6935 14
6936 78
6937 47
6938 6
6939 8
6940 96
6941 27
6942 73
6943 90
6944 91
6945 83
6946 60
6947 9
6948 81
6949 89
6950 8
6951 89
6952 49
6953 56
6954 69
6955 1
6956 110
6957 98
6958 40
6959 69
6960 19
6961 114
6962 90
6963 76
6964 109
6965 107
6966 77
6967 31
6968 102
6969 48
6970 56
6971 91
6972 74
6973 111
6974 43
6975 98
6976 24
6977 98
6978 111
6979 109
6980 103
6981 73
6982 62
6983 9
6984 53
6985 58
6986 29
6987 51
6988 95
6989 75
6990 35
6991 19
6992 13
6993 32
6994 17
6995 80
6996 80
6997 60
6998 118
6999 36
7000 92
7001 59
7002 50
7003 52
7004 79
7005 101
7006 60
7007 32
7008 21
7009 18
7010 56
7011 103
7012 81
7013 80
7014 40
7015 84
7016 3
7017 92
7018 100
7019 15
7020 81
7021 87
7022 113
7023 18
7024 62
7025 92
7026 88
7027 69
7028 25
7029 92
7030 1
7031 115
7032 67
7033 13
7034 1
7035 23
7036 0
7037 93
7038 93
7039 120
7040 17
7041 10
7042 50
7043 83
7044 23
7045 24
7046 93
7047 105
7048 49
7049 94
7050 101
7051 32
7052 102
7053 88
7054 93
7055 17
7056 9
7057 59
7058 12
7059 100
7060 75
7061 14
7062 13
7063 6
7064 96
7065 16
7066 17
7067 13
7068 101
7069 21
7070 68
7071 83
7072 31
7073 123
7074 50
7075 76
7076 67
7077 23
7078 76
7079 118
7080 25
7081 23
7082 4
7083 19
7084 109
7085 20
7086 52
7087 94
7088 14
7089 25
7090 22
7091 41
7092 12
7093 48
7094 103
7095 14
7096 8
7097 39
7098 44
7099 43
7100 8
7101 21
7102 25
7103 67
7104 44
7105 14
7106 94
7107 103
7108 45
7109 32
7110 7
7111 58
7112 32
7113 118
7114 78
7115 109
7116 47
7117 6
7118 83
7119 83
7120 64
7121 22
7122 63
7123 107
7124 84
7125 85
7126 24
7127 32
7128 47
7129 15
7130 32
7131 34
7132 31
7133 98
7134 24
7135 36
7136 10
7137 88
7138 91
7139 65
7140 12
7141 43
7142 15
7143 74
7144 88
7145 39
7146 101
7147 16
7148 40
7149 91
7150 101
7151 121
7152 90
7153 3
7154 86
7155 31
7156 109
7157 67
7158 110
7159 4
7160 63
7161 28
7162 59
7163 119
7164 109
7165 49
7166 118
7167 122
7168 31
7169 111
7170 16
7171 102
7172 33
7173 75
7174 21
7175 54
7176 71
7177 121
7178 46
7179 23
7180 17
7181 86
7182 83
7183 3
7184 11
7185 11
7186 21
7187 24
7188 7
7189 41
7190 68
7191 92
7192 9
7193 15
7194 1
7195 7
7196 36
7197 74
7198 31
7199 4
7200 62
7201 36
7202 71
7203 51
7204 57
7205 15
7206 11
7207 92
7208 3
7209 74
7210 8
7211 37
7212 135
7213 28
7214 35
7215 5
7216 66
7217 75
7218 57
7219 58
7220 33
7221 11
7222 11
7223 67
7224 34
7225 119
7226 11
7227 66
7228 12
7229 91
7230 28
7231 22
7232 95
7233 69
7234 110
7235 63
7236 38
7237 49
7238 58
7239 64
7240 25
7241 70
7242 115
7243 17
7244 93
7245 102
7246 15
7247 123
7248 14
7249 123
7250 10
7251 121
7252 51
7253 64
7254 31
7255 99
7256 20
7257 4
7258 73
7259 26
7260 100
7261 118
7262 93
7263 62
7264 51
7265 3
7266 41
7267 77
7268 47
7269 35
7270 107
7271 68
7272 101
7273 28
7274 82
7275 32
7276 48
7277 43
7278 101
7279 44
7280 97
7281 109
7282 101
7283 70
7284 66
7285 21
7286 69
7287 103
7288 16
7289 19
7290 89
7291 20
7292 75
7293 63
7294 97
7295 56
7296 114
7297 23
7298 65
7299 22
7300 108
7301 11
7302 8
7303 52
7304 82
7305 4
7306 82
7307 72
7308 17
7309 89
7310 119
7311 78
7312 95
7313 48
7314 56
7315 91
7316 95
7317 89
7318 1
7319 15
7320 98
7321 58
7322 103
7323 35
7324 30
7325 21
7326 69
7327 48
7328 89
7329 17
7330 119
7331 119
7332 107
7333 28
7334 1
7335 16
7336 94
7337 56
7338 48
7339 45
7340 68
7341 13
7342 6
7343 49
7344 53
7345 31
7346 116
7347 20
7348 15
7349 40
7350 9
7351 1
7352 51
7353 43
7354 98
7355 47
7356 16
7357 49
7358 33
7359 13
7360 32
7361 21
7362 75
7363 80
7364 10
7365 105
7366 9
7367 117
7368 110
7369 107
7370 121
7371 47
7372 43
7373 65
7374 55
7375 48
7376 9
7377 78
7378 12
7379 117
7380 85
7381 92
7382 22
7383 49
7384 95
7385 48
7386 7
7387 118
7388 93
7389 102
7390 94
7391 94
7392 119
7393 29
7394 86
7395 56
7396 109
7397 24
7398 33
7399 72
7400 58
7401 28
7402 78
7403 86
7404 81
7405 16
7406 73
7407 90
7408 70
7409 67
7410 100
7411 26
7412 52
7413 80
7414 50
7415 115
7416 93
7417 109
7418 45
7419 105
7420 66
7421 103
7422 77
7423 58
7424 136
7425 23
7426 8
7427 32
7428 99
7429 74
7430 1
7431 43
7432 74
7433 88
7434 43
7435 119
7436 32
7437 43
7438 72
7439 61
7440 4
7441 22
7442 53
7443 100
7444 97
7445 69
7446 110
7447 59
7448 11
7449 82
7450 54
7451 33
7452 34
7453 17
7454 58
7455 49
7456 26
7457 32
7458 102
7459 5
7460 73
7461 79
7462 2
7463 71
7464 108
7465 100
7466 79
7467 44
7468 37
7469 7
7470 101
7471 58
7472 20
7473 107
7474 22
7475 11
7476 56
7477 55
7478 100
7479 52
7480 111
7481 94
7482 74
7483 44
7484 97
7485 121
7486 7
7487 60
7488 77
7489 10
7490 50
7491 5
7492 80
7493 82
7494 114
7495 1
7496 99
7497 88
7498 42
7499 46
7500 1
7501 92
7502 65
7503 81
7504 56
7505 36
7506 15
7507 87
7508 20
7509 68
7510 117
7511 35
7512 20
7513 56
7514 20
7515 63
7516 25
7517 41
7518 43
7519 40
7520 102
7521 101
7522 16
7523 11
7524 26
7525 21
7526 68
7527 0
7528 68
7529 94
7530 5
7531 33
7532 20
7533 28
7534 69
7535 32
7536 7
7537 55
7538 36
7539 92
7540 72
7541 123
7542 14
7543 7
7544 9
7545 25
7546 2
7547 20
7548 16
7549 74
7550 120
7551 3
7552 63
7553 96
7554 54
7555 53
7556 22
7557 39
7558 111
7559 94
7560 107
7561 32
7562 26
7563 3
7564 102
7565 61
7566 109
7567 105
7568 20
7569 65
7570 111
7571 14
7572 33
7573 24
7574 3
7575 105
7576 99
7577 13
7578 98
7579 114
7580 113
7581 8
7582 81
7583 30
7584 92
7585 64
7586 48
7587 92
7588 68
7589 38
7590 7
7591 81
7592 7
7593 33
7594 3
7595 39
7596 34
7597 92
7598 98
7599 60
7600 19
7601 92
7602 42
7603 123
7604 16
7605 52
7606 31
7607 0
7608 99
7609 11
7610 110
7611 88
7612 73
7613 70
7614 57
7615 67
7616 90
7617 88
7618 49
7619 31
7620 28
7621 90
7622 20
7623 35
7624 111
7625 89
7626 43
7627 122
7628 19
7629 21
7630 14
7631 41
7632 1
7633 99
7634 96
7635 9
7636 58
7637 3
7638 85
7639 113
7640 101
7641 49
7642 83
7643 109
7644 94
7645 93
7646 42
7647 87
7648 51
7649 7
7650 35
7651 50
7652 69
7653 56
7654 49
7655 35
7656 40
7657 111
7658 62
7659 49
7660 58
7661 96
7662 29
7663 103
7664 86
7665 115
7666 95
7667 121
7668 5
7669 9
7670 75
7671 10
7672 3
7673 3
7674 76
7675 73
7676 101
7677 66
7678 35
7679 84
7680 28
7681 20
7682 48
7683 16
7684 9
7685 78
7686 118
7687 43
7688 14
7689 51
7690 98
7691 43
7692 117
7693 76
7694 69
7695 89
7696 102
7697 6
7698 118
7699 6
7700 25
7701 25
7702 22
7703 69
7704 58
7705 73
7706 71
7707 87
7708 44
7709 109
7710 47
7711 2
7712 46
7713 112
7714 78
7715 83
7716 93
7717 9
7718 35
7719 5
7720 115
7721 105
7722 31
7723 15
7724 49
7725 62
7726 76
7727 123
7728 67
7729 9
7730 86
7731 7
7732 64
7733 86
7734 44
7735 108
7736 103
7737 120
7738 95
7739 57
7740 98
7741 23
7742 39
7743 117
7744 9
7745 0
7746 97
7747 3
7748 26
7749 101
7750 65
7751 65
7752 120
7753 63
7754 81
7755 23
7756 118
7757 28
7758 70
7759 110
7760 86
7761 115
7762 90
7763 77
7764 74
7765 0
7766 79
7767 19
7768 46
7769 22
7770 69
7771 44
7772 94
7773 122
7774 56
7775 105
7776 16
7777 77
7778 33
7779 110
7780 4
7781 89
7782 7
7783 90
7784 98
7785 17
7786 80
7787 91
7788 117
7789 115
7790 60
7791 59
7792 98
7793 23
7794 137
7795 0
7796 121
7797 111
7798 99
7799 3
7800 108
7801 20
7802 77
7803 57
7804 20
7805 48
7806 34
7807 61
7808 11
7809 9
7810 69
7811 32
7812 100
7813 77
7814 6
7815 56
7816 101
7817 37
7818 40
7819 112
7820 68
7821 21
7822 60
7823 88
7824 114
7825 24
7826 44
7827 50
7828 91
7829 110
7830 108
7831 51
7832 37
7833 79
7834 33
7835 57
7836 52
7837 4
7838 61
7839 9
7840 80
7841 10
7842 99
7843 1
7844 79
7845 68
7846 89
7847 52
7848 71
7849 111
7850 42
7851 33
7852 32
7853 119
7854 56
7855 58
7856 72
7857 23
7858 71
7859 80
7860 18
7861 3
7862 43
7863 36
7864 105
7865 102
7866 101
7867 77
7868 21
7869 110
7870 123
7871 98
7872 19
7873 5
7874 103
7875 96
7876 52
7877 21
7878 59
7879 34
7880 108
7881 47
7882 123
7883 67
7884 32
7885 90
7886 99
7887 56
7888 79
7889 92
7890 21
7891 24
7892 88
7893 19
7894 48
7895 118
7896 67
7897 10
7898 111
7899 25
7900 24
7901 104
7902 113
7903 30
7904 20
7905 43
7906 98
7907 48
7908 3
7909 30
7910 50
7911 29
7912 58
7913 110
7914 68
7915 32
7916 9
7917 108
7918 77
7919 7
7920 70
7921 98
7922 1
7923 8
7924 74
7925 7
7926 76
7927 100
7928 69
7929 63
7930 52
7931 1
7932 88
7933 77
7934 16
7935 92
7936 107
7937 69
7938 30
7939 43
7940 18
7941 64
7942 12
7943 56
7944 70
7945 110
7946 69
7947 48
7948 38
7949 46
7950 96
7951 28
7952 16
7953 86
7954 68
7955 105
7956 6
7957 41
7958 83
7959 36
7960 74
7961 75
7962 117
7963 95
7964 52
7965 118
7966 67
7967 74
7968 119
7969 117
7970 20
7971 10
7972 88
7973 63
7974 76
7975 88
7976 49
7977 8
7978 47
7979 10
7980 50
7981 102
7982 3
7983 65
7984 69
7985 45
7986 25
7987 7
7988 77
7989 25
7990 25
7991 23
7992 97
7993 58
7994 40
7995 12
7996 100
7997 88
7998 38
7999 65
8000 116
8001 14
8002 91
8003 17
8004 100
8005 114
8006 60
8007 90
8008 5
8009 105
8010 28
8011 25
8012 51
8013 30
8014 120
8015 71
8016 5
8017 59
8018 12
8019 103
8020 65
8021 63
8022 47
8023 84
8024 24
8025 8
8026 7
8027 102
8028 65
8029 52
8030 3
8031 122
8032 81
8033 107
8034 43
8035 12
8036 91
8037 91
8038 61
8039 62
8040 1
8041 112
8042 65
8043 116
8044 21
8045 108
8046 86
8047 40
8048 24
8049 121
8050 52
8051 42
8052 110
8053 17
8054 29
8055 54
8056 93
8057 115
8058 74
8059 103
8060 33
8061 100
8062 5
8063 69
8064 118
8065 33
8066 94
8067 30
8068 89
8069 103
8070 87
8071 74
8072 117
8073 45
8074 30
8075 34
8076 89
8077 89
8078 93
8079 79
8080 13
8081 57
8082 25
8083 52
8084 17
8085 57
8086 91
8087 15
8088 49
8089 25
8090 10
8091 73
8092 64
8093 12
8094 35
8095 73
8096 111
8097 40
8098 43
8099 52
8100 109
8101 99
8102 52
8103 103
8104 72
8105 35
8106 36
8107 16
8108 49
8109 79
8110 61
8111 94
8112 0
8113 83
8114 50
8115 9
8116 22
8117 100
8118 28
8119 10
8120 80
8121 88
8122 24
8123 111
8124 102
8125 17
8126 27
8127 65
8128 42
8129 30
8130 31
8131 69
8132 86
8133 110
8134 73
8135 120
8136 114
8137 97
8138 108
8139 41
8140 74
8141 79
8142 31
8143 0
8144 5
8145 112
8146 115
8147 58
8148 12
8149 53
8150 27
8151 8
8152 0
8153 74
8154 17
8155 8
8156 48
8157 53
8158 99
8159 58
8160 103
8161 28
8162 121
8163 109
8164 95
8165 52
8166 34
8167 3
8168 26
8169 81
8170 14
8171 94
8172 2
8173 6
8174 30
8175 83
8176 42
8177 47
8178 111
8179 109
8180 57
8181 43
8182 55
8183 55
8184 58
8185 42
8186 120
8187 60
8188 97
8189 20
8190 19
8191 71
8192 56
8193 16
8194 22
8195 3
8196 17
8197 14
8198 42
8199 22
8200 21
8201 103
8202 75
8203 34
8204 3
8205 8
8206 107
8207 63
8208 90
8209 18
8210 75
8211 105
8212 73
8213 87
8214 20
8215 73
8216 30
8217 108
8218 34
8219 14
8220 50
8221 109
8222 34
8223 72
8224 73
8225 33
8226 88
8227 55
8228 69
8229 43
8230 14
8231 60
8232 3
8233 26
8234 49
8235 109
8236 77
8237 8
8238 34
8239 54
8240 8
8241 4
8242 44
8243 95
8244 111
8245 78
8246 36
8247 52
8248 90
8249 40
8250 91
8251 61
8252 120
8253 43
8254 73
8255 119
8256 4
8257 47
8258 39
8259 51
8260 27
8261 52
8262 122
8263 31
8264 20
8265 71
8266 24
8267 82
8268 8
8269 110
8270 97
8271 12
8272 120
8273 105
8274 0
8275 1
8276 6
8277 4
8278 36
8279 82
8280 53
8281 17
8282 76
8283 17
8284 108
8285 3
8286 46
8287 37
8288 15
8289 34
8290 91
8291 28
8292 37
8293 56
8294 15
8295 63
8296 1
8297 86
8298 18
8299 75
8300 69
8301 19
8302 50
8303 51
8304 7
8305 24
8306 94
8307 100
8308 39
8309 39
8310 39
8311 60
8312 61
8313 1
8314 73
8315 98
8316 111
8317 6
8318 68
8319 117
8320 4
8321 54
8322 48
8323 117
8324 32
8325 26
8326 48
8327 69
8328 61
8329 67
8330 92
8331 20
8332 41
8333 29
8334 92
8335 22
8336 110
8337 4
8338 16
8339 49
8340 90
8341 100
8342 64
8343 33
8344 90
8345 120
8346 44
8347 120
8348 18
8349 25
8350 61
8351 28
8352 98
8353 48
8354 12
8355 114
8356 74
8357 81
8358 34
8359 111
8360 30
8361 103
8362 114
8363 99
8364 17
8365 91
8366 28
8367 39
8368 29
8369 57
8370 50
8371 43
8372 79
8373 59
8374 123
8375 23
8376 45
8377 121
8378 64
8379 14
8380 103
8381 25
8382 120
8383 98
8384 96
8385 11
8386 85
8387 42
8388 115
8389 28
8390 53
8391 76
8392 39
8393 9
8394 22
8395 37
8396 104
8397 18
8398 59
8399 97
8400 120
8401 104
8402 63
8403 50
8404 107
8405 31
8406 120
8407 113
8408 38
8409 78
8410 10
8411 30
8412 59
8413 84
8414 16
8415 42
8416 74
8417 105
8418 95
8419 32
8420 34
8421 57
8422 49
8423 3
8424 43
8425 61
8426 109
8427 30
8428 91
8429 51
8430 13
8431 19
8432 67
8433 102
8434 90
8435 122
8436 71
8437 21
8438 54
8439 112
8440 20
8441 105
8442 32
8443 118
8444 33
8445 99
8446 10
8447 76
8448 103
8449 24
8450 1
8451 39
8452 104
8453 97
8454 43
8455 66
8456 13
8457 80
8458 103
8459 26
8460 109
8461 111
8462 88
8463 0
8464 95
8465 122
8466 24
8467 122
8468 6
8469 37
8470 16
8471 51
8472 52
8473 20
8474 46
8475 104
8476 0
8477 67
8478 12
8479 101
8480 114
8481 52
8482 123
8483 18
8484 71
8485 74
8486 91
8487 76
8488 24
8489 60
8490 89
8491 96
8492 74
8493 31
8494 23
8495 49
8496 3
8497 93
8498 80
8499 92
8500 1
8501 3
8502 50
8503 24
8504 116
8505 101
8506 56
8507 102
8508 117
8509 83
8510 7
8511 72
8512 15
8513 119
8514 90
8515 102
8516 109
8517 83
8518 43
8519 51
8520 42
8521 105
8522 28
8523 6
8524 5
8525 95
8526 1
8527 63
8528 96
8529 81
8530 120
8531 59
8532 27
8533 30
8534 19
8535 71
8536 94
8537 66
8538 67
8539 102
8540 120
8541 26
8542 24
8543 32
8544 71
8545 77
8546 46
8547 99
8548 46
8549 30
8550 31
8551 108
8552 29
8553 0
8554 97
8555 42
8556 63
8557 53
8558 120
8559 41
8560 89
8561 28
8562 21
8563 47
8564 57
8565 13
8566 23
8567 46
8568 95
8569 73
8570 4
8571 9
8572 32
8573 73
8574 22
8575 63
8576 17
8577 101
8578 29
8579 88
8580 54
8581 7
8582 117
8583 91
8584 14
8585 20
8586 54
8587 34
8588 102
8589 30
8590 95
8591 71
8592 105
8593 86
8594 10
8595 44
8596 112
8597 81
8598 96
8599 108
8600 60
8601 65
8602 60
8603 100
8604 118
8605 30
8606 28
8607 7
8608 100
8609 27
8610 32
8611 73
8612 58
8613 49
8614 87
8615 69
8616 105
8617 111
8618 29
8619 99
8620 120
8621 81
8622 51
8623 100
8624 59
8625 121
8626 25
8627 28
8628 23
8629 56
8630 98
8631 28
8632 27
8633 35
8634 30
8635 88
8636 61
8637 45
8638 80
8639 65
8640 122
8641 109
8642 2
8643 76
8644 114
8645 49
8646 65
8647 33
8648 9
8649 14
8650 52
8651 105
8652 83
8653 91
8654 96
8655 26
8656 47
8657 64
8658 39
8659 30
8660 56
8661 18
8662 89
8663 98
8664 63
8665 14
8666 4
8667 48
8668 3
8669 46
8670 50
8671 45
8672 52
8673 119
8674 36
8675 55
8676 102
8677 72
8678 19
8679 99
8680 32
8681 7
8682 33
8683 23
8684 4
8685 44
8686 28
8687 49
8688 75
8689 123
8690 120
8691 6
8692 7
8693 84
8694 57
8695 81
8696 64
8697 11
8698 20
8699 1
8700 52
8701 16
8702 74
8703 74
8704 23
8705 47
8706 65
8707 51
8708 10
8709 86
8710 1
8711 21
8712 94
8713 55
8714 101
8715 19
8716 63
8717 32
8718 4
8719 119
8720 8
8721 23
8722 7
8723 94
8724 13
8725 48
8726 115
8727 17
8728 33
8729 103
8730 2
8731 25
8732 7
8733 96
8734 96
8735 63
8736 63
8737 90
8738 95
8739 117
8740 103
8741 120
8742 30
8743 71
8744 23
8745 112
8746 12
8747 5
8748 91
8749 101
8750 117
8751 50
8752 42
8753 79
8754 51
8755 117
8756 4
8757 63
8758 59
8759 87
8760 49
8761 50
8762 113
8763 69
8764 29
8765 43
8766 69
8767 101
8768 78
8769 25
8770 36
8771 123
8772 49
8773 55
8774 8
8775 36
8776 59
8777 82
8778 49
8779 16
8780 98
8781 94
8782 116
8783 62
8784 15
8785 6
8786 20
8787 121
8788 85
8789 115
8790 78
8791 32
8792 46
8793 18
8794 53
8795 0
8796 118
8797 98
8798 57
8799 70
8800 73
8801 25
8802 120
8803 69
8804 35
8805 37
8806 21
8807 47
8808 116
8809 89
8810 25
8811 71
8812 35
8813 54
8814 48
8815 22
8816 35
8817 93
8818 58
8819 19
8820 12
8821 44
8822 71
8823 53
8824 95
8825 12
8826 100
8827 80
8828 41
8829 59
8830 55
8831 116
8832 2
8833 36
8834 98
8835 58
8836 103
8837 58
8838 98
8839 37
8840 123
8841 123
8842 22
8843 90
8844 6
8845 57
8846 117
8847 86
8848 54
8849 48
8850 17
8851 16
8852 61
8853 102
8854 99
8855 113
8856 81
8857 11
8858 120
8859 3
8860 59
8861 63
8862 51
8863 22
8864 25
8865 37
8866 9
8867 69
8868 48
8869 49
8870 79
8871 60
8872 114
8873 1
8874 105
8875 22
8876 111
8877 7
8878 66
8879 19
8880 33
8881 63
8882 41
8883 39
8884 10
8885 1
8886 26
8887 47
8888 4
8889 35
8890 45
8891 103
8892 19
8893 10
8894 98
8895 111
8896 61
8897 32
8898 74
8899 3
8900 30
8901 105
8902 112
8903 56
8904 105
8905 52
8906 23
8907 35
8908 74
8909 56
8910 7
8911 32
8912 1
8913 48
8914 63
8915 49
8916 16
8917 22
8918 118
8919 63
8920 23
8921 21
8922 4
8923 65
8924 64
8925 65
8926 31
8927 62
8928 63
8929 28
8930 26
8931 19
8932 35
8933 9
8934 83
8935 61
8936 114
8937 18
8938 110
8939 49
8940 95
8941 42
8942 23
8943 87
8944 23
8945 72
8946 123
8947 48
8948 25
8949 108
8950 63
8951 49
8952 102
8953 10
8954 22
8955 83
8956 113
8957 65
8958 10
8959 1
8960 40
8961 3
8962 50
8963 99
8964 71
8965 96
8966 74
8967 97
8968 108
8969 13
8970 21
8971 111
8972 6
8973 36
8974 70
8975 97
8976 39
8977 90
8978 60
8979 61
8980 33
8981 23
8982 119
8983 7
8984 100
8985 73
8986 49
8987 103
8988 73
8989 101
8990 19
8991 87
8992 32
8993 10
8994 17
8995 67
8996 70
8997 41
8998 14
8999 105
9000 48
9001 68
9002 78
9003 24
9004 11
9005 16
9006 61
9007 103
9008 65
9009 110
9010 67
9011 56
9012 34
9013 5
9014 91
9015 109
9016 90
9017 138
9018 120
9019 5
9020 43
9021 12
9022 33
9023 118
9024 89
9025 68
9026 53
9027 93
9028 47
9029 52
9030 56
9031 26
9032 102
9033 69
9034 30
9035 89
9036 3
9037 119
9038 21
9039 51
9040 52
9041 86
9042 17
9043 56
9044 117
9045 1
9046 3
9047 113
9048 6
9049 119
9050 116
9051 32
9052 61
9053 92
9054 58
9055 81
9056 55
9057 114
9058 51
9059 58
9060 70
9061 112
9062 67
9063 37
9064 25
9065 105
9066 14
9067 44
9068 80
9069 35
9070 64
9071 43
9072 14
9073 45
9074 7
9075 8
9076 56
9077 43
9078 26
9079 63
9080 80
9081 90
9082 76
9083 49
9084 45
9085 37
9086 22
9087 91
9088 76
9089 70
9090 76
9091 50
9092 121
9093 2
9094 17
9095 104
9096 19
9097 23
9098 30
9099 83
9100 58
9101 16
9102 20
9103 55
9104 110
9105 90
9106 101
9107 29
9108 114
9109 13
9110 6
9111 48
9112 7
9113 103
9114 17
9115 84
9116 40
9117 3
9118 0
9119 61
9120 33
9121 50
9122 91
9123 69
9124 81
9125 14
9126 26
9127 47
9128 56
9129 58
9130 56
9131 41
9132 78
9133 59
9134 45
9135 95
9136 6
9137 43
9138 16
9139 36
9140 22
9141 68
9142 31
9143 95
9144 47
9145 87
9146 65
9147 20
9148 57
9149 35
9150 62
9151 23
9152 104
9153 98
9154 55
9155 43
9156 13
9157 5
9158 32
9159 13
9160 15
9161 29
9162 1
9163 94
9164 31
9165 55
9166 80
9167 89
9168 69
9169 34
9170 94
9171 35
9172 74
9173 115
9174 5
9175 111
9176 102
9177 81
9178 14
9179 101
9180 33
9181 60
9182 21
9183 77
9184 25
9185 37
9186 7
9187 8
9188 59
9189 94
9190 32
9191 94
9192 19
9193 115
9194 93
9195 34
9196 90
9197 21
9198 20
9199 37
9200 25
9201 11
9202 59
9203 61
9204 50
9205 37
9206 94
9207 11
9208 11
9209 100
9210 10
9211 13
9212 46
9213 36
9214 61
9215 56
9216 101
9217 6
9218 48
9219 39
9220 54
9221 19
9222 97
9223 66
9224 7
9225 119
9226 39
9227 76
9228 21
9229 29
9230 58
9231 32
9232 54
9233 43
9234 52
9235 91
9236 4
9237 14
9238 15
9239 17
9240 31
9241 3
9242 111
9243 47
9244 63
9245 42
9246 32
9247 23
9248 1
9249 82
9250 86
9251 69
9252 7
9253 44
9254 35
9255 109
9256 6
9257 60
9258 105
9259 71
9260 57
9261 71
9262 81
9263 122
9264 48
9265 113
9266 23
9267 94
9268 71
9269 110
9270 77
9271 114
9272 56
9273 120
9274 54
9275 34
9276 7
9277 27
9278 74
9279 69
9280 21
9281 69
9282 70
9283 43
9284 43
9285 14
9286 30
9287 90
9288 112
9289 123
9290 23
9291 40
9292 25
9293 71
9294 22
9295 89
9296 90
9297 21
9298 38
9299 52
9300 24
9301 52
9302 72
9303 30
9304 6
9305 118
9306 32
9307 1
9308 22
9309 98
9310 6
9311 19
9312 73
9313 73
9314 10
9315 75
9316 10
9317 52
9318 56
9319 42
9320 91
9321 36
9322 9
9323 42
9324 117
9325 37
9326 103
9327 110
9328 56
9329 51
9330 6
9331 73
9332 51
9333 16
9334 73
9335 9
9336 122
9337 82
9338 24
9339 62
9340 51
9341 35
9342 0
9343 37
9344 68
9345 14
9346 80
9347 1
9348 71
9349 82
9350 57
9351 49
9352 81
9353 103
9354 60
9355 0
9356 14
9357 117
9358 46
9359 56
9360 91
9361 20
9362 49
9363 65
9364 122
9365 35
9366 25
9367 103
9368 100
9369 75
9370 63
9371 17
9372 56
9373 43
9374 51
9375 63
9376 30
9377 93
9378 3
9379 68
9380 63
9381 21
9382 90
9383 92
9384 82
9385 105
9386 98
9387 107
9388 48
9389 29
9390 5
9391 59
9392 60
9393 87
9394 108
9395 5
9396 71
9397 51
9398 99
9399 68
9400 6
9401 35
9402 32
9403 109
9404 58
9405 117
9406 110
9407 80
9408 41
9409 116
9410 109
9411 15
9412 9
9413 59
9414 4
9415 114
9416 76
9417 5
9418 7
9419 56
9420 45
9421 120
9422 21
9423 26
9424 18
9425 83
9426 14
9427 22
9428 107
9429 101
9430 21
9431 72
9432 26
9433 87
9434 35
9435 6
9436 6
9437 105
9438 39
9439 71
9440 98
9441 80
9442 73
9443 83
9444 68
9445 57
9446 98
9447 28
9448 22
9449 44
9450 109
9451 29
9452 109
9453 19
9454 43
9455 8
9456 61
9457 98
9458 83
9459 34
9460 36
9461 15
9462 89
9463 114
9464 12
9465 37
9466 103
9467 50
9468 112
9469 20
9470 113
9471 63
9472 20
9473 29
9474 99
9475 9
9476 34
9477 52
9478 14
9479 77
9480 21
9481 88
9482 76
9483 103
9484 117
9485 42
9486 65
9487 68
9488 32
9489 32
9490 45
9491 118
9492 99
9493 96
9494 35
9495 110
9496 17
9497 13
9498 74
9499 23
9500 91
9501 53
9502 19
9503 48
9504 111
9505 89
9506 74
9507 102
9508 10
9509 23
9510 16
9511 102
9512 10
9513 24
9514 69
9515 43
9516 52
9517 43
9518 49
9519 66
9520 71
9521 4
9522 87
9523 11
9524 0
9525 16
9526 59
9527 111
9528 55
9529 73
9530 50
9531 65
9532 5
9533 43
9534 92
9535 70
9536 14
9537 36
9538 44
9539 87
9540 51
9541 89
9542 77
9543 68
9544 97
9545 13
9546 95
9547 35
9548 88
9549 49
9550 123
9551 16
9552 65
9553 56
9554 5
9555 3
9556 93
9557 64
9558 62
9559 23
9560 86
9561 47
9562 50
9563 47
9564 98
9565 71
9566 29
9567 118
9568 65
9569 46
9570 25
9571 50
9572 28
9573 102
9574 114
9575 47
9576 17
9577 34
9578 8
9579 69
9580 90
9581 70
9582 59
9583 39
9584 24
9585 43
9586 28
9587 101
9588 3
9589 97
9590 82
9591 91
9592 12
9593 111
9594 83
9595 32
9596 69
9597 42
9598 11
9599 82
9600 114
9601 39
9602 74
9603 76
9604 28
9605 96
9606 75
9607 120
9608 6
9609 13
9610 30
9611 41
9612 63
9613 50
9614 83
9615 69
9616 56
9617 30
9618 3
9619 123
9620 76
9621 3
9622 67
9623 32
9624 24
9625 110
9626 115
9627 36
9628 7
9629 108
9630 26
9631 9
9632 92
9633 10
9634 52
9635 70
9636 90
9637 111
9638 46
9639 39
9640 15
9641 95
9642 25
9643 120
9644 81
9645 81
9646 1
9647 13
9648 16
9649 77
9650 48
9651 47
9652 96
9653 7
9654 117
9655 25
9656 0
9657 12
9658 105
9659 53
9660 11
9661 48
9662 65
9663 97
9664 16
9665 50
9666 89
9667 102
9668 62
9669 44
9670 23
9671 79
9672 63
9673 0
9674 69
9675 49
9676 10
9677 29
9678 92
9679 53
9680 30
9681 120
9682 36
9683 76
9684 98
9685 87
9686 33
9687 65
9688 79
9689 69
9690 30
9691 35
9692 74
9693 49
9694 71
9695 55
9696 69
9697 4
9698 67
9699 39
9700 64
9701 63
9702 40
9703 53
9704 73
9705 37
9706 48
9707 51
9708 50
9709 114
9710 80
9711 12
9712 103
9713 10
9714 62
9715 17
9716 15
9717 55
9718 75
9719 122
9720 94
9721 47
9722 36
9723 117
9724 67
9725 117
9726 57
9727 1
9728 53
9729 28
9730 75
9731 51
9732 56
9733 1
9734 3
9735 111
9736 98
9737 68
9738 88
9739 43
9740 52
9741 103
9742 73
9743 81
9744 47
9745 50
9746 49
9747 50
9748 55
9749 66
9750 112
9751 98
9752 8
9753 66
9754 27
9755 55
9756 9
9757 2
9758 2
9759 13
9760 96
9761 17
9762 108
9763 16
9764 3
9765 63
9766 103
9767 75
9768 69
9769 105
9770 110
9771 63
9772 77
9773 32
9774 35
9775 75
9776 102
9777 21
9778 101
9779 38
9780 77
9781 65
9782 110
9783 0
9784 117
9785 58
9786 21
9787 73
9788 111
9789 5
9790 63
9791 5
9792 78
9793 91
9794 5
9795 88
9796 31
9797 19
9798 64
9799 67
9800 35
9801 99
9802 54
9803 75
9804 36
9805 114
9806 6
9807 65
9808 43
9809 79
9810 92
9811 2
9812 67
9813 82
9814 15
9815 116
9816 39
9817 50
9818 86
9819 79
9820 121
9821 100
9822 41
9823 14
9824 9
9825 69
9826 15
9827 83
9828 17
9829 11
9830 94
9831 18
9832 92
9833 52
9834 71
9835 50
9836 12
9837 33
9838 23
9839 63
9840 31
9841 0
9842 103
9843 82
9844 64
9845 69
9846 89
9847 26
9848 65
9849 65
9850 89
9851 114
9852 14
9853 123
9854 102
9855 53
9856 65
9857 67
9858 25
9859 8
9860 110
9861 25
9862 73
9863 41
9864 44
9865 74
9866 50
9867 45
9868 32
9869 99
9870 4
9871 79
9872 7
9873 111
9874 79
9875 46
9876 58
9877 10
9878 35
9879 61
9880 91
9881 57
9882 13
9883 26
9884 24
9885 9
9886 96
9887 6
9888 113
9889 119
9890 35
9891 27
9892 37
9893 108
9894 108
9895 4
9896 111
9897 88
9898 19
9899 95
9900 1
9901 54
9902 47
9903 42
9904 33
9905 5
9906 3
9907 69
9908 89
9909 97
9910 6
9911 121
9912 3
9913 51
9914 69
9915 32
9916 46
9917 1
9918 19
9919 93
9920 110
9921 34
9922 68
9923 70
9924 122
9925 27
9926 11
9927 12
9928 59
9929 100
9930 46
9931 24
9932 40
9933 93
9934 3
9935 6
9936 99
9937 116
9938 10
9939 18
9940 115
9941 139
9942 14
9943 13
9944 70
9945 64
9946 29
9947 98
9948 46
9949 34
9950 60
9951 8
9952 7
9953 104
9954 22
9955 28
9956 54
9957 44
9958 6
9959 41
9960 105
9961 19
9962 5
9963 44
9964 114
9965 105
9966 58
9967 14
9968 14
9969 23
9970 90
9971 52
9972 71
9973 3
9974 95
9975 74
9976 63
9977 120
9978 37
9979 58
9980 0
9981 29
9982 79
9983 112
9984 68
9985 49
9986 117
9987 83
9988 36
9989 94
9990 117
9991 97
9992 16
9993 90
9994 108
9995 38
9996 98
9997 18
9998 83
9999 62
