0 0
1 1
2 2
3 3
4 4
5 5
6 6
7 7
8 8
9 9
10 10
11 10
12 11
13 3
14 12
15 13
16 14
17 4
18 15
19 16
20 6
21 10
22 17
23 18
24 19
25 20
26 16
27 21
28 22
29 6
30 1
31 23
32 12
33 24
34 19
35 25
36 1
37 14
38 19
39 26
40 9
41 27
42 13
43 28
44 20
45 29
46 30
47 11
48 11
49 0
50 3
51 31
52 14
53 32
54 33
55 32
56 6
57 34
58 24
59 2
60 18
61 7
62 29
63 28
64 25
65 26
66 32
67 7
68 35
69 15
70 25
71 36
72 27
73 37
74 25
75 29
76 12
77 38
78 39
79 10
80 20
81 8
82 40
83 33
84 4
85 39
86 23
87 41
88 42
89 36
90 1
91 1
92 43
93 20
94 35
95 44
96 1
97 40
98 13
99 14
100 3
101 36
102 20
103 5
104 1
105 17
106 39
107 14
108 25
109 6
110 45
111 42
112 6
113 9
114 10
115 30
116 6
117 10
118 45
119 46
120 20
121 47
122 46
123 14
124 0
125 48
126 22
127 26
128 12
129 30
130 38
131 2
132 23
133 14
134 36
135 30
136 24
137 20
138 31
139 0
140 15
141 6
142 12
143 17
144 6
145 34
146 14
147 25
148 47
149 3
150 16
151 0
152 26
153 1
154 49
155 44
156 38
157 6
158 32
159 41
160 39
161 24
162 25
163 23
164 47
165 41
166 29
167 11
168 50
169 17
170 4
171 10
172 1
173 27
174 26
175 3
176 25
177 29
178 12
179 18
180 0
181 2
182 8
183 47
184 14
185 17
186 37
187 8
188 13
189 3
190 24
191 0
192 51
193 4
194 45
195 23
196 18
197 39
198 17
199 20
200 30
201 24
202 52
203 21
204 8
205 27
206 10
207 33
208 34
209 11
210 3
211 9
212 45
213 47
214 53
215 45
216 22
217 8
218 52
219 48
220 7
221 38
222 6
223 49
224 5
225 46
226 0
227 49
228 10
229 10
230 4
231 46
232 46
233 10
234 11
235 34
236 52
237 14
238 38
239 7
240 28
241 29
242 12
243 19
244 40
245 31
246 52
247 12
248 15
249 31
250 50
251 5
252 45
253 14
254 49
255 8
256 23
257 3
258 21
259 47
260 37
261 53
262 36
263 40
264 49
265 29
266 14
267 45
268 54
269 18
270 55
271 43
272 31
273 47
274 4
275 12
276 11
277 13
278 31
279 8
280 15
281 26
282 13
283 24
284 6
285 46
286 26
287 28
288 10
289 35
290 6
291 27
292 19
293 13
294 50
295 24
296 4
297 49
298 16
299 32
300 6
301 13
302 8
303 38
304 3
305 38
306 31
307 38
308 52
309 45
310 35
311 50
312 54
313 39
314 18
315 45
316 20
317 36
318 39
319 15
320 6
321 5
322 17
323 46
324 10
325 9
326 23
327 39
328 46
329 6
330 11
331 24
332 13
333 43
334 8
335 8
336 0
337 41
338 5
339 10
340 45
341 49
342 15
343 54
344 19
345 43
346 24
347 21
348 12
349 9
350 51
351 45
352 38
353 12
354 29
355 47
356 48
357 18
358 32
359 53
360 26
361 39
362 28
363 50
364 50
365 14
366 3
367 28
368 39
369 38
370 44
371 6
372 38
373 15
374 43
375 16
376 13
377 52
378 18
379 6
380 28
381 30
382 5
383 19
384 46
385 50
386 26
387 39
388 0
389 35
390 14
391 29
392 12
393 18
394 51
395 10
396 33
397 19
398 45
399 19
400 43
401 9
402 19
403 30
404 29
405 51
406 14
407 43
408 4
409 34
410 31
411 24
412 24
413 9
414 3
415 14
416 20
417 6
418 14
419 0
420 5
421 12
422 24
423 12
424 51
425 50
426 43
427 39
428 8
429 24
430 39
431 37
432 52
433 9
434 2
435 5
436 6
437 21
438 46
439 4
440 18
441 9
442 51
443 38
444 35
445 24
446 26
447 55
448 11
449 49
450 9
451 38
452 18
453 18
454 51
455 31
456 13
457 8
458 0
459 6
460 14
461 25
462 5
463 13
464 36
465 6
466 14
467 17
468 6
469 22
470 10
471 49
472 36
473 9
474 19
475 17
476 25
477 31
478 6
479 6
480 19
481 19
482 38
483 3
484 25
485 31
486 30
487 10
488 10
489 35
490 9
491 9
492 10
493 12
494 12
495 34
496 23
497 10
498 54
499 29
500 17
501 27
502 24
503 45
504 49
505 30
506 42
507 4
508 23
509 41
510 15
511 30
512 12
513 19
514 12
515 43
516 29
517 42
518 24
519 43
520 6
521 2
522 35
523 55
524 12
525 27
526 52
527 32
528 26
529 30
530 42
531 41
532 49
533 53
534 42
535 28
536 51
537 3
538 3
539 30
540 8
541 43
542 0
543 53
544 30
545 8
546 46
547 0
548 32
549 51
550 52
551 24
552 19
553 38
554 3
555 27
556 10
557 25
558 32
559 4
560 41
561 34
562 29
563 39
564 29
565 13
566 5
567 44
568 35
569 48
570 17
571 42
572 10
573 5
574 23
575 0
576 32
577 29
578 51
579 49
580 13
581 12
582 11
583 37
584 25
585 4
586 31
587 1
588 35
589 36
590 3
591 25
592 30
593 33
594 35
595 34
596 48
597 37
598 37
599 16
600 31
601 30
602 53
603 11
604 32
605 22
606 0
607 42
608 10
609 5
610 24
611 31
612 17
613 33
614 49
615 2
616 6
617 20
618 25
619 8
620 26
621 53
622 18
623 6
624 30
625 25
626 34
627 1
628 12
629 35
630 52
631 29
632 17
633 39
634 3
635 29
636 6
637 1
638 3
639 33
640 31
641 10
642 11
643 45
644 22
645 13
646 0
647 12
648 51
649 2
650 14
651 28
652 34
653 40
654 45
655 9
656 30
657 20
658 30
659 30
660 18
661 35
662 0
663 46
664 53
665 17
666 0
667 54
668 19
669 41
670 43
671 4
672 1
673 23
674 33
675 1
676 23
677 11
678 38
679 23
680 13
681 45
682 44
683 30
684 25
685 20
686 47
687 20
688 51
689 17
690 52
691 26
692 19
693 41
694 41
695 20
696 32
697 46
698 46
699 7
700 25
701 52
702 19
703 10
704 1
705 20
706 28
707 31
708 14
709 34
710 19
711 53
712 16
713 4
714 52
715 38
716 27
717 18
718 47
719 12
720 1
721 1
722 46
723 31
724 25
725 13
726 38
727 51
728 29
729 44
730 8
731 21
732 8
733 45
734 13
735 11
736 32
737 31
738 48
739 44
740 5
741 36
742 5
743 29
744 22
745 14
746 45
747 30
748 27
749 39
750 30
751 41
752 33
753 38
754 37
755 31
756 7
757 39
758 16
759 37
760 51
761 23
762 51
763 47
764 22
765 43
766 30
767 51
768 9
769 38
770 29
771 32
772 51
773 25
774 43
775 8
776 52
777 10
778 54
779 41
780 7
781 49
782 10
783 38
784 16
785 8
786 10
787 15
788 13
789 45
790 0
791 8
792 5
793 39
794 31
795 11
796 12
797 21
798 44
799 45
800 42
801 52
802 42
803 12
804 29
805 53
806 30
807 14
808 8
809 6
810 4
811 25
812 9
813 36
814 3
815 14
816 4
817 38
818 12
819 16
820 13
821 0
822 4
823 29
824 32
825 28
826 3
827 13
828 38
829 26
830 12
831 29
832 10
833 3
834 10
835 0
836 10
837 51
838 44
839 38
840 15
841 39
842 44
843 9
844 31
845 21
846 23
847 31
848 7
849 29
850 45
851 6
852 30
853 31
854 50
855 6
856 43
857 22
858 41
859 29
860 37
861 49
862 35
863 53
864 20
865 21
866 9
867 19
868 40
869 6
870 46
871 9
872 42
873 25
874 38
875 15
876 27
877 50
878 30
879 38
880 35
881 53
882 23
883 7
884 25
885 30
886 52
887 13
888 23
889 32
890 54
891 44
892 11
893 5
894 20
895 47
896 49
897 7
898 10
899 46
900 10
901 14
902 39
903 6
904 6
905 44
906 23
907 14
908 23
909 41
910 37
911 4
912 48
913 1
914 0
915 52
916 8
917 30
918 25
919 21
920 54
921 49
922 23
923 39
924 29
925 0
926 38
927 37
928 30
929 31
930 5
931 42
932 41
933 1
934 42
935 50
936 9
937 24
938 10
939 29
940 21
941 53
942 29
943 17
944 34
945 27
946 8
947 13
948 3
949 17
950 22
951 53
952 48
953 13
954 54
955 27
956 0
957 14
958 49
959 45
960 30
961 8
962 3
963 43
964 12
965 54
966 50
967 34
968 44
969 24
970 37
971 3
972 23
973 10
974 24
975 24
976 39
977 34
978 31
979 52
980 10
981 8
982 38
983 44
984 26
985 53
986 12
987 50
988 28
989 36
990 36
991 7
992 24
993 6
994 14
995 34
996 6
997 21
998 5
999 9
1000 53
1001 17
1002 7
1003 14
1004 14
1005 5
1006 6
1007 37
1008 14
1009 3
1010 46
1011 6
1012 52
1013 32
1014 8
1015 34
1016 46
1017 30
1018 19
1019 8
1020 32
1021 9
1022 5
1023 50
1024 43
1025 43
1026 39
1027 19
1028 4
1029 23
1030 6
1031 42
1032 10
1033 11
1034 17
1035 4
1036 28
1037 20
1038 0
1039 5
1040 6
1041 38
1042 25
1043 52
1044 39
1045 8
1046 12
1047 18
1048 9
1049 4
1050 21
1051 32
1052 5
1053 40
1054 0
1055 3
1056 5
1057 54
1058 21
1059 48
1060 14
1061 49
1062 38
1063 46
1064 50
1065 12
1066 53
1067 27
1068 28
1069 42
1070 26
1071 24
1072 8
1073 8
1074 8
1075 52
1076 39
1077 52
1078 10
1079 35
1080 52
1081 32
1082 12
1083 10
1084 16
1085 6
1086 37
1087 39
1088 1
1089 45
1090 35
1091 55
1092 51
1093 9
1094 25
1095 43
1096 26
1097 21
1098 30
1099 27
1100 3
1101 50
1102 26
1103 21
1104 0
1105 39
1106 41
1107 23
1108 33
1109 47
1110 41
1111 39
1112 1
1113 22
1114 11
1115 19
1116 32
1117 42
1118 21
1119 35
1120 19
1121 19
1122 10
1123 18
1124 8
1125 29
1126 28
1127 18
1128 13
1129 26
1130 24
1131 49
1132 0
1133 5
1134 15
1135 0
1136 42
1137 10
1138 20
1139 5
1140 38
1141 7
1142 20
1143 18
1144 46
1145 48
1146 34
1147 44
1148 39
1149 53
1150 18
1151 19
1152 9
1153 33
1154 45
1155 17
1156 39
1157 36
1158 34
1159 31
1160 10
1161 51
1162 28
1163 14
1164 3
1165 7
1166 1
1167 27
1168 53
1169 12
1170 13
1171 54
1172 4
1173 11
1174 23
1175 45
1176 29
1177 3
1178 27
1179 55
1180 24
1181 9
1182 8
1183 31
1184 46
1185 45
1186 51
1187 8
1188 25
1189 28
1190 38
1191 35
1192 26
1193 46
1194 4
1195 34
1196 28
1197 13
1198 18
1199 51
1200 20
1201 33
1202 1
1203 12
1204 48
1205 42
1206 50
1207 6
1208 10
1209 13
1210 51
1211 55
1212 16
1213 33
1214 38
1215 50
1216 3
1217 13
1218 14
1219 12
1220 8
1221 23
1222 26
1223 54
1224 36
1225 28
1226 11
1227 6
1228 7
1229 14
1230 34
1231 18
1232 45
1233 11
1234 52
1235 6
1236 3
1237 30
1238 1
1239 43
1240 22
1241 45
1242 5
1243 4
1244 44
1245 42
1246 28
1247 52
1248 36
1249 14
1250 38
1251 29
1252 41
1253 25
1254 53
1255 5
1256 4
1257 21
1258 42
1259 8
1260 40
1261 18
1262 15
1263 46
1264 36
1265 8
1266 43
1267 15
1268 52
1269 3
1270 46
1271 6
1272 17
1273 45
1274 45
1275 32
1276 29
1277 53
1278 52
1279 11
1280 28
1281 10
1282 52
1283 11
1284 32
1285 11
1286 47
1287 39
1288 29
1289 25
1290 16
1291 46
1292 5
1293 35
1294 13
1295 3
1296 6
1297 36
1298 28
1299 13
1300 52
1301 41
1302 43
1303 6
1304 6
1305 2
1306 16
1307 19
1308 31
1309 20
1310 14
1311 28
1312 28
1313 21
1314 45
1315 29
1316 39
1317 7
1318 6
1319 39
1320 24
1321 0
1322 9
1323 52
1324 8
1325 23
1326 29
1327 55
1328 27
1329 36
1330 49
1331 29
1332 53
1333 46
1334 4
1335 18
1336 40
1337 19
1338 14
1339 9
1340 0
1341 19
1342 0
1343 30
1344 31
1345 43
1346 9
1347 49
1348 25
1349 36
1350 9
1351 19
1352 28
1353 9
1354 23
1355 45
1356 6
1357 32
1358 55
1359 48
1360 15
1361 48
1362 6
1363 17
1364 33
1365 42
1366 0
1367 39
1368 34
1369 1
1370 23
1371 53
1372 24
1373 24
1374 30
1375 25
1376 39
1377 20
1378 25
1379 51
1380 52
1381 48
1382 47
1383 13
1384 9
1385 0
1386 24
1387 8
1388 1
1389 4
1390 19
1391 8
1392 13
1393 1
1394 10
1395 51
1396 29
1397 16
1398 6
1399 33
1400 12
1401 34
1402 46
1403 20
1404 10
1405 10
1406 12
1407 23
1408 35
1409 24
1410 19
1411 4
1412 0
1413 24
1414 5
1415 37
1416 40
1417 8
1418 11
1419 4
1420 14
1421 2
1422 28
1423 11
1424 38
1425 7
1426 11
1427 16
1428 24
1429 12
1430 6
1431 29
1432 35
1433 55
1434 55
1435 0
1436 11
1437 48
1438 48
1439 4
1440 6
1441 16
1442 31
1443 24
1444 8
1445 30
1446 23
1447 55
1448 38
1449 42
1450 51
1451 51
1452 12
1453 34
1454 20
1455 52
1456 21
1457 43
1458 0
1459 1
1460 51
1461 42
1462 32
1463 7
1464 20
1465 27
1466 34
1467 20
1468 47
1469 54
1470 34
1471 53
1472 39
1473 11
1474 27
1475 31
1476 20
1477 36
1478 10
1479 48
1480 13
1481 48
1482 49
1483 29
1484 11
1485 43
1486 52
1487 19
1488 31
1489 12
1490 48
1491 13
1492 48
1493 26
1494 39
1495 12
1496 51
1497 37
1498 53
1499 32
1500 18
1501 1
1502 1
1503 6
1504 20
1505 1
1506 18
1507 16
1508 52
1509 45
1510 1
1511 28
1512 21
1513 28
1514 9
1515 20
1516 6
1517 45
1518 51
1519 12
1520 28
1521 33
1522 1
1523 30
1524 49
1525 29
1526 41
1527 18
1528 22
1529 9
1530 27
1531 0
1532 18
1533 34
1534 1
1535 13
1536 52
1537 39
1538 30
1539 9
1540 20
1541 29
1542 45
1543 0
1544 38
1545 23
1546 8
1547 17
1548 55
1549 1
1550 21
1551 4
1552 29
1553 4
1554 3
1555 47
1556 0
1557 3
1558 40
1559 8
1560 29
1561 18
1562 0
1563 51
1564 49
1565 28
1566 45
1567 14
1568 50
1569 53
1570 23
1571 6
1572 49
1573 22
1574 19
1575 35
1576 15
1577 9
1578 37
1579 49
1580 12
1581 25
1582 28
1583 25
1584 44
1585 6
1586 19
1587 2
1588 14
1589 28
1590 1
1591 1
1592 13
1593 31
1594 10
1595 32
1596 6
1597 10
1598 41
1599 36
1600 20
1601 24
1602 2
1603 30
1604 8
1605 5
1606 52
1607 8
1608 55
1609 13
1610 33
1611 10
1612 19
1613 36
1614 5
1615 43
1616 54
1617 29
1618 46
1619 47
1620 6
1621 14
1622 0
1623 30
1624 5
1625 15
1626 54
1627 0
1628 1
1629 30
1630 32
1631 14
1632 31
1633 40
1634 49
1635 48
1636 13
1637 13
1638 49
1639 30
1640 29
1641 11
1642 48
1643 38
1644 0
1645 24
1646 25
1647 0
1648 37
1649 9
1650 41
1651 0
1652 35
1653 29
1654 0
1655 16
1656 9
1657 5
1658 38
1659 18
1660 51
1661 6
1662 43
1663 9
1664 44
1665 3
1666 50
1667 48
1668 20
1669 53
1670 48
1671 13
1672 22
1673 4
1674 17
1675 35
1676 46
1677 6
1678 53
1679 40
1680 9
1681 11
1682 28
1683 53
1684 54
1685 24
1686 27
1687 24
1688 11
1689 10
1690 20
1691 53
1692 6
1693 29
1694 37
1695 15
1696 17
1697 51
1698 41
1699 1
1700 41
1701 52
1702 12
1703 10
1704 14
1705 55
1706 43
1707 18
1708 10
1709 23
1710 4
1711 1
1712 34
1713 30
1714 25
1715 27
1716 5
1717 8
1718 43
1719 10
1720 55
1721 52
1722 24
1723 17
1724 40
1725 46
1726 3
1727 54
1728 13
1729 41
1730 29
1731 24
1732 21
1733 43
1734 3
1735 32
1736 32
1737 51
1738 43
1739 1
1740 29
1741 55
1742 0
1743 4
1744 19
1745 54
1746 23
1747 11
1748 11
1749 5
1750 1
1751 17
1752 30
1753 34
1754 46
1755 46
1756 32
1757 38
1758 15
1759 12
1760 19
1761 4
1762 7
1763 40
1764 15
1765 13
1766 13
1767 14
1768 10
1769 25
1770 9
1771 53
1772 37
1773 2
1774 24
1775 5
1776 47
1777 2
1778 14
1779 2
1780 29
1781 0
1782 39
1783 10
1784 49
1785 5
1786 33
1787 8
1788 23
1789 7
1790 27
1791 5
1792 14
1793 46
1794 20
1795 52
1796 21
1797 14
1798 46
1799 50
1800 51
1801 21
1802 35
1803 40
1804 30
1805 19
1806 5
1807 29
1808 52
1809 12
1810 35
1811 55
1812 16
1813 53
1814 22
1815 23
1816 25
1817 1
1818 25
1819 10
1820 30
1821 50
1822 4
1823 6
1824 42
1825 24
1826 46
1827 40
1828 34
1829 41
1830 28
1831 13
1832 15
1833 13
1834 10
1835 24
1836 3
1837 55
1838 45
1839 13
1840 49
1841 27
1842 37
1843 52
1844 38
1845 45
1846 12
1847 46
1848 29
1849 16
1850 19
1851 18
1852 52
1853 33
1854 32
1855 36
1856 52
1857 13
1858 11
1859 47
1860 32
1861 30
1862 24
1863 49
1864 51
1865 51
1866 39
1867 33
1868 12
1869 3
1870 37
1871 5
1872 30
1873 30
1874 44
1875 24
1876 55
1877 20
1878 51
1879 43
1880 31
1881 53
1882 10
1883 35
1884 10
1885 6
1886 9
1887 32
1888 18
1889 52
1890 15
1891 55
1892 13
1893 36
1894 29
1895 7
1896 10
1897 9
1898 23
1899 43
1900 39
1901 4
1902 53
1903 6
1904 13
1905 19
1906 15
1907 17
1908 33
1909 21
1910 27
1911 28
1912 54
1913 51
1914 13
1915 50
1916 14
1917 10
1918 13
1919 39
1920 18
1921 39
1922 12
1923 47
1924 13
1925 38
1926 23
1927 24
1928 24
1929 4
1930 25
1931 24
1932 12
1933 27
1934 7
1935 49
1936 51
1937 45
1938 45
1939 38
1940 49
1941 15
1942 12
1943 31
1944 6
1945 48
1946 32
1947 1
1948 39
1949 43
1950 51
1951 48
1952 6
1953 2
1954 35
1955 46
1956 44
1957 1
1958 14
1959 19
1960 3
1961 29
1962 44
1963 18
1964 31
1965 10
1966 42
1967 44
1968 35
1969 32
1970 7
1971 31
1972 7
1973 37
1974 39
1975 53
1976 7
1977 0
1978 14
1979 6
1980 38
1981 9
1982 27
1983 18
1984 25
1985 10
1986 51
1987 4
1988 52
1989 38
1990 46
1991 10
1992 6
1993 45
1994 31
1995 44
1996 51
1997 10
1998 34
1999 44
2000 39
2001 11
2002 24
2003 28
2004 24
2005 43
2006 46
2007 45
2008 29
2009 46
2010 49
2011 15
2012 29
2013 9
2014 4
2015 41
2016 28
2017 48
2018 33
2019 8
2020 52
2021 3
2022 33
2023 10
2024 21
2025 34
2026 36
2027 12
2028 31
2029 21
2030 40
2031 20
2032 24
2033 11
2034 47
2035 30
2036 15
2037 47
2038 52
2039 24
2040 31
2041 33
2042 9
2043 39
2044 13
2045 51
2046 46
2047 24
2048 32
2049 22
2050 24
2051 28
2052 43
2053 16
2054 8
2055 45
2056 11
2057 12
2058 12
2059 36
2060 51
2061 52
2062 51
2063 2
2064 42
2065 50
2066 39
2067 16
2068 45
2069 4
2070 15
2071 21
2072 4
2073 11
2074 0
2075 4
2076 15
2077 6
2078 14
2079 13
2080 0
2081 2
2082 44
2083 8
2084 23
2085 30
2086 44
2087 8
2088 16
2089 39
2090 38
2091 48
2092 13
2093 34
2094 13
2095 37
2096 27
2097 4
2098 42
2099 9
2100 11
2101 31
2102 43
2103 46
2104 40
2105 0
2106 42
2107 20
2108 33
2109 25
2110 14
2111 28
2112 1
2113 3
2114 9
2115 26
2116 10
2117 52
2118 33
2119 3
2120 13
2121 41
2122 20
2123 12
2124 4
2125 19
2126 10
2127 10
2128 43
2129 45
2130 29
2131 38
2132 10
2133 0
2134 1
2135 10
2136 1
2137 46
2138 12
2139 1
2140 10
2141 52
2142 41
2143 10
2144 34
2145 24
2146 36
2147 21
2148 25
2149 20
2150 53
2151 34
2152 6
2153 37
2154 25
2155 0
2156 11
2157 39
2158 52
2159 17
2160 36
2161 22
2162 2
2163 41
2164 2
2165 37
2166 43
2167 42
2168 38
2169 49
2170 39
2171 46
2172 24
2173 39
2174 16
2175 33
2176 26
2177 20
2178 10
2179 36
2180 9
2181 26
2182 5
2183 29
2184 24
2185 12
2186 38
2187 18
2188 53
2189 36
2190 19
2191 10
2192 32
2193 27
2194 51
2195 28
2196 16
2197 16
2198 49
2199 13
2200 1
2201 14
2202 49
2203 8
2204 41
2205 43
2206 17
2207 23
2208 29
2209 11
2210 47
2211 46
2212 10
2213 6
2214 18
2215 31
2216 35
2217 24
2218 12
2219 42
2220 53
2221 12
2222 44
2223 4
2224 20
2225 30
2226 38
2227 20
2228 29
2229 39
2230 10
2231 15
2232 14
2233 2
2234 3
2235 6
2236 11
2237 33
2238 43
2239 24
2240 45
2241 15
2242 10
2243 24
2244 25
2245 55
2246 43
2247 34
2248 18
2249 15
2250 6
2251 5
2252 29
2253 23
2254 14
2255 43
2256 28
2257 1
2258 39
2259 33
2260 1
2261 24
2262 36
2263 15
2264 24
2265 31
2266 13
2267 29
2268 38
2269 21
2270 9
2271 13
2272 34
2273 52
2274 24
2275 27
2276 23
2277 38
2278 53
2279 9
2280 43
2281 36
2282 50
2283 29
2284 25
2285 43
2286 11
2287 46
2288 8
2289 6
2290 23
2291 29
2292 21
2293 1
2294 55
2295 17
2296 26
2297 38
2298 24
2299 14
2300 33
2301 39
2302 6
2303 8
2304 42
2305 9
2306 9
2307 24
2308 35
2309 6
2310 14
2311 48
2312 5
2313 29
2314 39
2315 6
2316 53
2317 23
2318 55
2319 0
2320 10
2321 32
2322 38
2323 14
2324 35
2325 1
2326 16
2327 27
2328 37
2329 31
2330 52
2331 7
2332 19
2333 4
2334 38
2335 17
2336 49
2337 42
2338 5
2339 52
2340 29
2341 22
2342 14
2343 30
2344 24
2345 51
2346 0
2347 47
2348 29
2349 5
2350 48
2351 0
2352 45
2353 19
2354 12
2355 6
2356 43
2357 4
2358 32
2359 30
2360 13
2361 24
2362 34
2363 35
2364 20
2365 8
2366 29
2367 19
2368 14
2369 0
2370 19
2371 46
2372 1
2373 23
2374 21
2375 49
2376 23
2377 53
2378 21
2379 12
2380 39
2381 2
2382 11
2383 2
2384 37
2385 37
2386 42
2387 32
2388 13
2389 54
2390 3
2391 49
2392 19
2393 32
2394 33
2395 0
2396 13
2397 45
2398 52
2399 4
2400 11
2401 18
2402 9
2403 10
2404 33
2405 4
2406 49
2407 14
2408 38
2409 45
2410 34
2411 26
2412 31
2413 47
2414 5
2415 53
2416 18
2417 12
2418 38
2419 44
2420 51
2421 36
2422 5
2423 10
2424 38
2425 48
2426 22
2427 18
2428 2
2429 4
2430 3
2431 18
2432 41
2433 11
2434 35
2435 21
2436 7
2437 32
2438 55
2439 24
2440 40
2441 39
2442 10
2443 31
2444 24
2445 41
2446 40
2447 0
2448 20
2449 27
2450 2
2451 52
2452 26
2453 12
2454 6
2455 40
2456 38
2457 7
2458 38
2459 30
2460 43
2461 2
2462 21
2463 29
2464 15
2465 32
2466 0
2467 34
2468 42
2469 2
2470 24
2471 36
2472 43
2473 5
2474 38
2475 12
2476 51
2477 4
2478 8
2479 41
2480 49
2481 29
2482 22
2483 6
2484 12
2485 2
2486 32
2487 20
2488 18
2489 8
2490 22
2491 21
2492 21
2493 33
2494 5
2495 3
2496 5
2497 45
2498 25
2499 0
2500 29
2501 38
2502 34
2503 35
2504 45
2505 42
2506 24
2507 55
2508 9
2509 5
2510 55
2511 42
2512 46
2513 46
2514 10
2515 28
2516 53
2517 30
2518 31
2519 18
2520 9
2521 14
2522 51
2523 52
2524 37
2525 3
2526 14
2527 9
2528 33
2529 4
2530 40
2531 14
2532 54
2533 6
2534 17
2535 3
2536 28
2537 25
2538 50
2539 2
2540 20
2541 3
2542 40
2543 4
2544 51
2545 15
2546 9
2547 48
2548 1
2549 38
2550 53
2551 46
2552 9
2553 10
2554 32
2555 13
2556 43
2557 39
2558 5
2559 11
2560 30
2561 32
2562 18
2563 27
2564 19
2565 10
2566 4
2567 52
2568 12
2569 2
2570 15
2571 40
2572 0
2573 50
2574 15
2575 30
2576 11
2577 33
2578 40
2579 10
2580 34
2581 38
2582 20
2583 50
2584 32
2585 5
2586 52
2587 35
2588 10
2589 7
2590 29
2591 20
2592 16
2593 32
2594 31
2595 12
2596 18
2597 6
2598 31
2599 50
2600 53
2601 6
2602 37
2603 34
2604 55
2605 49
2606 35
2607 44
2608 12
2609 46
2610 18
2611 10
2612 8
2613 10
2614 30
2615 24
2616 19
2617 6
2618 15
2619 27
2620 36
2621 44
2622 44
2623 55
2624 31
2625 30
2626 15
2627 14
2628 25
2629 6
2630 17
2631 52
2632 10
2633 46
2634 0
2635 55
2636 5
2637 15
2638 14
2639 19
2640 9
2641 20
2642 42
2643 31
2644 25
2645 27
2646 39
2647 18
2648 46
2649 14
2650 44
2651 20
2652 30
2653 10
2654 14
2655 1
2656 30
2657 43
2658 29
2659 10
2660 31
2661 27
2662 42
2663 53
2664 14
2665 42
2666 3
2667 35
2668 11
2669 4
2670 54
2671 8
2672 14
2673 29
2674 39
2675 4
2676 52
2677 9
2678 12
2679 10
2680 15
2681 7
2682 9
2683 30
2684 11
2685 13
2686 35
2687 30
2688 27
2689 38
2690 30
2691 49
2692 1
2693 32
2694 7
2695 12
2696 10
2697 1
2698 18
2699 25
2700 5
2701 35
2702 33
2703 17
2704 26
2705 10
2706 15
2707 50
2708 9
2709 14
2710 43
2711 13
2712 0
2713 30
2714 31
2715 15
2716 10
2717 40
2718 30
2719 2
2720 29
2721 45
2722 35
2723 7
2724 49
2725 10
2726 53
2727 29
2728 35
2729 53
2730 18
2731 24
2732 26
2733 22
2734 13
2735 6
2736 19
2737 53
2738 15
2739 40
2740 9
2741 25
2742 39
2743 43
2744 2
2745 49
2746 32
2747 6
2748 13
2749 13
2750 25
2751 31
2752 1
2753 49
2754 26
2755 48
2756 25
2757 15
2758 21
2759 0
2760 23
2761 8
2762 47
2763 28
2764 42
2765 10
2766 10
2767 10
2768 6
2769 46
2770 15
2771 32
2772 23
2773 31
2774 4
2775 0
2776 44
2777 44
2778 52
2779 4
2780 50
2781 33
2782 43
2783 39
2784 24
2785 4
2786 26
2787 51
2788 41
2789 10
2790 45
2791 37
2792 26
2793 24
2794 55
2795 20
2796 16
2797 4
2798 47
2799 18
2800 55
2801 29
2802 41
2803 29
2804 44
2805 10
2806 28
2807 21
2808 16
2809 21
2810 12
2811 4
2812 36
2813 11
2814 2
2815 6
2816 10
2817 25
2818 47
2819 21
2820 5
2821 21
2822 52
2823 34
2824 3
2825 39
2826 11
2827 0
2828 17
2829 37
2830 51
2831 3
2832 24
2833 9
2834 24
2835 1
2836 30
2837 7
2838 10
2839 46
2840 12
2841 36
2842 14
2843 21
2844 50
2845 13
2846 45
2847 41
2848 4
2849 32
2850 39
2851 29
2852 34
2853 49
2854 9
2855 37
2856 43
2857 48
2858 43
2859 27
2860 6
2861 53
2862 53
2863 34
2864 6
2865 46
2866 28
2867 31
2868 44
2869 19
2870 45
2871 20
2872 33
2873 29
2874 33
2875 31
2876 8
2877 43
2878 0
2879 12
2880 39
2881 47
2882 44
2883 11
2884 16
2885 49
2886 54
2887 42
2888 18
2889 29
2890 11
2891 45
2892 12
2893 10
2894 25
2895 15
2896 54
2897 45
2898 6
2899 20
2900 18
2901 10
2902 10
2903 6
2904 37
2905 29
2906 3
2907 11
2908 46
2909 49
2910 22
2911 29
2912 37
2913 23
2914 4
2915 3
2916 40
2917 22
2918 5
2919 25
2920 4
2921 47
2922 41
2923 30
2924 43
2925 7
2926 39
2927 45
2928 43
2929 52
2930 45
2931 32
2932 6
2933 35
2934 1
2935 4
2936 41
2937 22
2938 21
2939 45
2940 10
2941 10
2942 32
2943 41
2944 38
2945 9
2946 34
2947 29
2948 4
2949 24
2950 25
2951 16
2952 18
2953 46
2954 6
2955 32
2956 31
2957 0
2958 10
2959 0
2960 10
2961 12
2962 28
2963 33
2964 6
2965 30
2966 23
2967 36
2968 35
2969 5
2970 25
2971 37
2972 45
2973 6
2974 10
2975 21
2976 26
2977 30
2978 3
2979 27
2980 6
2981 13
2982 42
2983 18
2984 49
2985 8
2986 4
2987 21
2988 14
2989 23
2990 38
2991 19
2992 10
2993 50
2994 6
2995 42
2996 42
2997 6
2998 11
2999 7
3000 4
3001 38
3002 6
3003 3
3004 54
3005 53
3006 49
3007 2
3008 49
3009 4
3010 1
3011 9
3012 12
3013 34
3014 51
3015 54
3016 4
3017 54
3018 45
3019 42
3020 8
3021 40
3022 14
3023 26
3024 23
3025 46
3026 8
3027 43
3028 6
3029 30
3030 4
3031 49
3032 39
3033 21
3034 1
3035 45
3036 0
3037 4
3038 4
3039 19
3040 28
3041 4
3042 15
3043 10
3044 49
3045 13
3046 12
3047 43
3048 18
3049 2
3050 23
3051 4
3052 21
3053 44
3054 27
3055 28
3056 29
3057 12
3058 28
3059 12
3060 32
3061 29
3062 10
3063 53
3064 0
3065 31
3066 32
3067 10
3068 41
3069 40
3070 1
3071 28
3072 39
3073 8
3074 28
3075 0
3076 39
3077 6
3078 44
3079 25
3080 39
3081 16
3082 28
3083 36
3084 24
3085 6
3086 29
3087 40
3088 28
3089 50
3090 24
3091 18
3092 37
3093 6
3094 41
3095 45
3096 5
3097 34
3098 1
3099 9
3100 4
3101 51
3102 26
3103 32
3104 31
3105 20
3106 20
3107 22
3108 13
3109 43
3110 6
3111 12
3112 39
3113 31
3114 10
3115 34
3116 20
3117 16
3118 30
3119 9
3120 22
3121 3
3122 27
3123 10
3124 37
3125 33
3126 54
3127 38
3128 13
3129 0
3130 9
3131 55
3132 29
3133 15
3134 24
3135 39
3136 27
3137 29
3138 1
3139 6
3140 49
3141 13
3142 16
3143 20
3144 32
3145 31
3146 25
3147 12
3148 24
3149 29
3150 2
3151 18
3152 22
3153 30
3154 45
3155 6
3156 13
3157 45
3158 6
3159 28
3160 48
3161 24
3162 14
3163 37
3164 43
3165 13
3166 14
3167 29
3168 13
3169 45
3170 47
3171 26
3172 32
3173 49
3174 8
3175 6
3176 41
3177 20
3178 11
3179 52
3180 46
3181 11
3182 44
3183 25
3184 3
3185 4
3186 19
3187 32
3188 9
3189 8
3190 1
3191 43
3192 37
3193 17
3194 41
3195 10
3196 45
3197 0
3198 52
3199 14
3200 30
3201 12
3202 50
3203 38
3204 47
3205 52
3206 37
3207 11
3208 50
3209 48
3210 30
3211 34
3212 1
3213 38
3214 30
3215 39
3216 39
3217 29
3218 50
3219 38
3220 55
3221 18
3222 48
3223 4
3224 51
3225 17
3226 15
3227 40
3228 17
3229 6
3230 39
3231 41
3232 0
3233 8
3234 45
3235 8
3236 11
3237 15
3238 8
3239 8
3240 42
3241 6
3242 14
3243 28
3244 0
3245 28
3246 30
3247 17
3248 45
3249 32
3250 35
3251 52
3252 51
3253 27
3254 12
3255 2
3256 42
3257 45
3258 10
3259 33
3260 6
3261 4
3262 7
3263 4
3264 6
3265 38
3266 20
3267 19
3268 8
3269 3
3270 11
3271 23
3272 25
3273 34
3274 19
3275 29
3276 39
3277 39
3278 32
3279 34
3280 35
3281 6
3282 46
3283 29
3284 50
3285 4
3286 34
3287 26
3288 32
3289 10
3290 11
3291 41
3292 28
3293 19
3294 51
3295 12
3296 16
3297 46
3298 51
3299 15
3300 36
3301 42
3302 6
3303 54
3304 33
3305 30
3306 54
3307 6
3308 4
3309 3
3310 5
3311 31
3312 25
3313 32
3314 55
3315 55
3316 53
3317 39
3318 51
3319 13
3320 35
3321 6
3322 4
3323 39
3324 1
3325 0
3326 11
3327 37
3328 6
3329 37
3330 10
3331 34
3332 49
3333 40
3334 12
3335 11
3336 19
3337 5
3338 12
3339 7
3340 12
3341 1
3342 46
3343 31
3344 9
3345 49
3346 42
3347 19
3348 32
3349 10
3350 55
3351 16
3352 23
3353 16
3354 23
3355 10
3356 25
3357 37
3358 45
3359 11
3360 52
3361 52
3362 10
3363 29
3364 53
3365 29
3366 0
3367 4
3368 3
3369 33
3370 48
3371 42
3372 46
3373 15
3374 6
3375 0
3376 6
3377 40
3378 37
3379 9
3380 7
3381 26
3382 52
3383 49
3384 32
3385 45
3386 32
3387 20
3388 18
3389 6
3390 48
3391 0
3392 44
3393 37
3394 46
3395 33
3396 2
3397 9
3398 23
3399 11
3400 24
3401 53
3402 17
3403 18
3404 31
3405 5
3406 49
3407 35
3408 37
3409 55
3410 13
3411 38
3412 50
3413 42
3414 37
3415 32
3416 3
3417 51
3418 46
3419 9
3420 38
3421 36
3422 48
3423 22
3424 43
3425 55
3426 10
3427 5
3428 46
3429 26
3430 14
3431 10
3432 13
3433 12
3434 21
3435 13
3436 32
3437 29
3438 12
3439 55
3440 23
3441 48
3442 35
3443 27
3444 32
3445 30
3446 36
3447 44
3448 37
3449 0
3450 10
3451 12
3452 47
3453 43
3454 0
3455 0
3456 51
3457 10
3458 45
3459 8
3460 53
3461 24
3462 28
3463 6
3464 17
3465 31
3466 31
3467 21
3468 24
3469 25
3470 45
3471 44
3472 6
3473 36
3474 26
3475 28
3476 38
3477 35
3478 49
3479 16
3480 10
3481 20
3482 19
3483 11
3484 8
3485 39
3486 3
3487 10
3488 13
3489 3
3490 30
3491 25
3492 14
3493 21
3494 51
3495 39
3496 40
3497 32
3498 8
3499 38
3500 2
3501 12
3502 52
3503 24
3504 24
3505 9
3506 15
3507 24
3508 30
3509 40
3510 29
3511 15
3512 8
3513 55
3514 17
3515 40
3516 28
3517 51
3518 0
3519 11
3520 37
3521 12
3522 6
3523 3
3524 32
3525 15
3526 13
3527 0
3528 42
3529 0
3530 25
3531 31
3532 37
3533 20
3534 33
3535 7
3536 12
3537 30
3538 25
3539 41
3540 12
3541 2
3542 26
3543 43
3544 37
3545 2
3546 48
3547 35
3548 20
3549 4
3550 43
3551 4
3552 33
3553 24
3554 21
3555 17
3556 40
3557 33
3558 48
3559 31
3560 37
3561 21
3562 24
3563 27
3564 12
3565 14
3566 41
3567 18
3568 33
3569 39
3570 54
3571 5
3572 30
3573 49
3574 27
3575 17
3576 33
3577 13
3578 20
3579 45
3580 37
3581 49
3582 4
3583 9
3584 23
3585 41
3586 31
3587 23
3588 30
3589 28
3590 3
3591 6
3592 6
3593 5
3594 48
3595 17
3596 54
3597 43
3598 53
3599 15
3600 12
3601 40
3602 5
3603 34
3604 10
3605 36
3606 25
3607 33
3608 54
3609 49
3610 17
3611 38
3612 55
3613 0
3614 45
3615 48
3616 52
3617 4
3618 6
3619 9
3620 24
3621 20
3622 2
3623 28
3624 43
3625 12
3626 5
3627 28
3628 17
3629 52
3630 37
3631 4
3632 43
3633 25
3634 30
3635 51
3636 6
3637 3
3638 24
3639 29
3640 49
3641 55
3642 46
3643 3
3644 24
3645 19
3646 11
3647 18
3648 4
3649 39
3650 32
3651 48
3652 35
3653 17
3654 49
3655 24
3656 4
3657 51
3658 25
3659 3
3660 45
3661 43
3662 9
3663 1
3664 24
3665 30
3666 13
3667 10
3668 6
3669 49
3670 15
3671 6
3672 34
3673 36
3674 10
3675 10
3676 11
3677 5
3678 20
3679 34
3680 30
3681 12
3682 32
3683 1
3684 29
3685 4
3686 6
3687 7
3688 28
3689 38
3690 32
3691 33
3692 37
3693 37
3694 47
3695 34
3696 14
3697 54
3698 17
3699 0
3700 55
3701 4
3702 51
3703 2
3704 9
3705 12
3706 50
3707 24
3708 1
3709 41
3710 1
3711 31
3712 7
3713 16
3714 2
3715 3
3716 43
3717 16
3718 51
3719 45
3720 33
3721 3
3722 25
3723 32
3724 30
3725 6
3726 25
3727 0
3728 11
3729 0
3730 14
3731 48
3732 44
3733 5
3734 46
3735 50
3736 29
3737 35
3738 15
3739 12
3740 22
3741 46
3742 10
3743 38
3744 32
3745 35
3746 17
3747 43
3748 32
3749 26
3750 52
3751 22
3752 19
3753 21
3754 41
3755 40
3756 25
3757 23
3758 19
3759 17
3760 48
3761 12
3762 33
3763 52
3764 32
3765 17
3766 21
3767 9
3768 9
3769 32
3770 51
3771 13
3772 28
3773 2
3774 30
3775 14
3776 38
3777 41
3778 42
3779 1
3780 6
3781 36
3782 10
3783 28
3784 5
3785 51
3786 53
3787 17
3788 36
3789 21
3790 5
3791 44
3792 8
3793 1
3794 9
3795 50
3796 30
3797 39
3798 36
3799 29
3800 51
3801 3
3802 53
3803 46
3804 20
3805 15
3806 29
3807 26
3808 14
3809 21
3810 4
3811 28
3812 49
3813 38
3814 40
3815 55
3816 2
3817 21
3818 16
3819 13
3820 0
3821 23
3822 43
3823 30
3824 41
3825 39
3826 27
3827 38
3828 7
3829 19
3830 31
3831 16
3832 29
3833 15
3834 34
3835 33
3836 11
3837 9
3838 29
3839 27
3840 29
3841 17
3842 18
3843 5
3844 47
3845 6
3846 4
3847 8
3848 22
3849 9
3850 44
3851 46
3852 19
3853 4
3854 47
3855 45
3856 3
3857 4
3858 55
3859 26
3860 35
3861 49
3862 26
3863 44
3864 46
3865 13
3866 6
3867 37
3868 39
3869 27
3870 8
3871 19
3872 9
3873 27
3874 13
3875 29
3876 7
3877 3
3878 9
3879 3
3880 5
3881 3
3882 14
3883 29
3884 8
3885 1
3886 39
3887 52
3888 18
3889 35
3890 14
3891 6
3892 5
3893 27
3894 15
3895 10
3896 34
3897 30
3898 46
3899 7
3900 51
3901 13
3902 30
3903 22
3904 10
3905 27
3906 38
3907 10
3908 17
3909 46
3910 29
3911 37
3912 13
3913 32
3914 10
3915 48
3916 48
3917 51
3918 6
3919 18
3920 8
3921 0
3922 6
3923 52
3924 54
3925 16
3926 47
3927 13
3928 29
3929 39
3930 17
3931 18
3932 21
3933 10
3934 52
3935 20
3936 46
3937 30
3938 19
3939 39
3940 23
3941 4
3942 39
3943 14
3944 51
3945 33
3946 3
3947 19
3948 31
3949 43
3950 35
3951 10
3952 29
3953 29
3954 43
3955 6
3956 33
3957 52
3958 14
3959 7
3960 5
3961 29
3962 33
3963 20
3964 43
3965 1
3966 6
3967 49
3968 52
3969 2
3970 24
3971 24
3972 12
3973 25
3974 6
3975 20
3976 43
3977 36
3978 2
3979 27
3980 24
3981 15
3982 11
3983 9
3984 24
3985 6
3986 49
3987 15
3988 18
3989 31
3990 25
3991 53
3992 50
3993 6
3994 34
3995 24
3996 28
3997 48
3998 52
3999 20
4000 10
4001 37
4002 39
4003 5
4004 38
4005 17
4006 51
4007 52
4008 17
4009 4
4010 48
4011 39
4012 4
4013 49
4014 51
4015 25
4016 17
4017 12
4018 24
4019 2
4020 7
4021 6
4022 29
4023 28
4024 28
4025 44
4026 4
4027 52
4028 17
4029 1
4030 37
4031 25
4032 39
4033 28
4034 25
4035 4
4036 12
4037 10
4038 29
4039 14
4040 50
4041 20
4042 37
4043 44
4044 3
4045 8
4046 3
4047 45
4048 19
4049 6
4050 41
4051 14
4052 52
4053 23
4054 34
4055 30
4056 14
4057 16
4058 4
4059 45
4060 50
4061 24
4062 32
4063 38
4064 55
4065 39
4066 37
4067 11
4068 25
4069 53
4070 6
4071 23
4072 5
4073 31
4074 49
4075 47
4076 0
4077 6
4078 11
4079 51
4080 6
4081 35
4082 46
4083 45
4084 9
4085 29
4086 30
4087 43
4088 54
4089 5
4090 44
4091 39
4092 20
4093 39
4094 11
4095 23
4096 6
4097 2
4098 18
4099 45
4100 4
4101 45
4102 25
4103 29
4104 50
4105 45
4106 24
4107 14
4108 40
4109 10
4110 49
4111 23
4112 32
4113 9
4114 32
4115 25
4116 14
4117 23
4118 42
4119 47
4120 41
4121 55
4122 38
4123 10
4124 23
4125 4
4126 37
4127 47
4128 49
4129 42
4130 18
4131 6
4132 24
4133 35
4134 38
4135 41
4136 6
4137 31
4138 52
4139 35
4140 9
4141 30
4142 28
4143 14
4144 42
4145 11
4146 23
4147 8
4148 19
4149 33
4150 33
4151 28
4152 38
4153 22
4154 2
4155 1
4156 19
4157 50
4158 6
4159 12
4160 1
4161 24
4162 15
4163 10
4164 25
4165 13
4166 45
4167 29
4168 42
4169 16
4170 16
4171 31
4172 32
4173 10
4174 13
4175 55
4176 29
4177 13
4178 18
4179 47
4180 31
4181 24
4182 2
4183 42
4184 37
4185 11
4186 1
4187 50
4188 10
4189 29
4190 35
4191 37
4192 48
4193 10
4194 32
4195 52
4196 19
4197 43
4198 19
4199 31
4200 10
4201 0
4202 44
4203 26
4204 37
4205 13
4206 13
4207 23
4208 42
4209 12
4210 40
4211 4
4212 30
4213 24
4214 27
4215 6
4216 4
4217 23
4218 4
4219 46
4220 39
4221 49
4222 24
4223 9
4224 10
4225 11
4226 6
4227 50
4228 4
4229 9
4230 42
4231 10
4232 43
4233 14
4234 36
4235 5
4236 39
4237 29
4238 24
4239 4
4240 32
4241 54
4242 17
4243 30
4244 9
4245 5
4246 34
4247 52
4248 54
4249 10
4250 21
4251 28
4252 38
4253 3
4254 46
4255 43
4256 32
4257 27
4258 30
4259 10
4260 13
4261 25
4262 45
4263 14
4264 3
4265 19
4266 53
4267 5
4268 44
4269 37
4270 5
4271 43
4272 31
4273 55
4274 38
4275 2
4276 6
4277 31
4278 29
4279 55
4280 30
4281 6
4282 24
4283 5
4284 14
4285 6
4286 11
4287 31
4288 41
4289 51
4290 32
4291 48
4292 51
4293 6
4294 25
4295 34
4296 20
4297 6
4298 5
4299 38
4300 32
4301 1
4302 30
4303 6
4304 12
4305 35
4306 37
4307 17
4308 0
4309 51
4310 28
4311 45
4312 1
4313 47
4314 12
4315 33
4316 19
4317 19
4318 49
4319 27
4320 37
4321 9
4322 15
4323 49
4324 45
4325 3
4326 48
4327 44
4328 43
4329 9
4330 32
4331 25
4332 38
4333 49
4334 3
4335 35
4336 8
4337 48
4338 11
4339 6
4340 29
4341 3
4342 2
4343 40
4344 31
4345 14
4346 47
4347 4
4348 24
4349 43
4350 39
4351 12
4352 29
4353 20
4354 15
4355 51
4356 38
4357 15
4358 15
4359 54
4360 15
4361 13
4362 5
4363 37
4364 52
4365 53
4366 22
4367 29
4368 6
4369 29
4370 46
4371 37
4372 4
4373 26
4374 11
4375 45
4376 9
4377 16
4378 2
4379 32
4380 47
4381 31
4382 3
4383 51
4384 51
4385 23
4386 26
4387 28
4388 17
4389 26
4390 14
4391 1
4392 49
4393 11
4394 12
4395 10
4396 12
4397 45
4398 5
4399 26
4400 12
4401 30
4402 17
4403 14
4404 22
4405 3
4406 4
4407 31
4408 3
4409 44
4410 14
4411 21
4412 9
4413 8
4414 45
4415 14
4416 51
4417 47
4418 31
4419 30
4420 52
4421 13
4422 32
4423 31
4424 42
4425 48
4426 9
4427 13
4428 41
4429 20
4430 30
4431 39
4432 15
4433 15
4434 28
4435 1
4436 23
4437 1
4438 33
4439 43
4440 4
4441 22
4442 17
4443 45
4444 21
4445 36
4446 9
4447 32
4448 13
4449 40
4450 19
4451 18
4452 29
4453 51
4454 8
4455 13
4456 46
4457 21
4458 32
4459 1
4460 7
4461 4
4462 40
4463 46
4464 32
4465 17
4466 9
4467 54
4468 8
4469 52
4470 41
4471 26
4472 12
4473 48
4474 10
4475 1
4476 25
4477 31
4478 36
4479 19
4480 12
4481 23
4482 10
4483 18
4484 35
4485 30
4486 23
4487 26
4488 49
4489 43
4490 0
4491 23
4492 48
4493 28
4494 31
4495 12
4496 5
4497 34
4498 16
4499 45
4500 35
4501 40
4502 15
4503 3
4504 26
4505 43
4506 20
4507 45
4508 8
4509 45
4510 32
4511 9
4512 53
4513 13
4514 35
4515 32
4516 13
4517 6
4518 22
4519 20
4520 54
4521 5
4522 16
4523 47
4524 34
4525 55
4526 17
4527 34
4528 40
4529 40
4530 37
4531 53
4532 15
4533 18
4534 16
4535 29
4536 12
4537 0
4538 52
4539 49
4540 27
4541 38
4542 49
4543 51
4544 24
4545 35
4546 37
4547 29
4548 0
4549 10
4550 51
4551 9
4552 43
4553 24
4554 21
4555 29
4556 16
4557 11
4558 48
4559 38
4560 4
4561 24
4562 55
4563 43
4564 9
4565 22
4566 0
4567 52
4568 10
4569 26
4570 8
4571 30
4572 4
4573 23
4574 42
4575 4
4576 37
4577 6
4578 8
4579 5
4580 13
4581 19
4582 23
4583 32
4584 38
4585 30
4586 53
4587 6
4588 25
4589 0
4590 9
4591 4
4592 4
4593 24
4594 18
4595 32
4596 29
4597 20
4598 6
4599 8
4600 29
4601 16
4602 6
4603 55
4604 19
4605 30
4606 53
4607 48
4608 6
4609 29
4610 49
4611 44
4612 44
4613 6
4614 0
4615 10
4616 43
4617 3
4618 12
4619 30
4620 39
4621 10
4622 52
4623 33
4624 53
4625 45
4626 46
4627 0
4628 6
4629 3
4630 5
4631 12
4632 5
4633 24
4634 24
4635 3
4636 7
4637 52
4638 39
4639 19
4640 6
4641 50
4642 19
4643 26
4644 47
4645 7
4646 11
4647 17
4648 19
4649 4
4650 35
4651 17
4652 19
4653 38
4654 2
4655 15
4656 31
4657 2
4658 25
4659 47
4660 10
4661 34
4662 9
4663 45
4664 4
4665 51
4666 9
4667 39
4668 54
4669 39
4670 24
4671 36
4672 12
4673 53
4674 31
4675 55
4676 36
4677 44
4678 31
4679 29
4680 19
4681 47
4682 5
4683 34
4684 10
4685 11
4686 28
4687 0
4688 29
4689 11
4690 6
4691 14
4692 23
4693 13
4694 51
4695 39
4696 15
4697 14
4698 15
4699 42
4700 49
4701 21
4702 51
4703 10
4704 4
4705 19
4706 19
4707 10
4708 47
4709 31
4710 4
4711 28
4712 30
4713 29
4714 1
4715 0
4716 9
4717 43
4718 42
4719 51
4720 19
4721 14
4722 22
4723 49
4724 39
4725 53
4726 47
4727 6
4728 13
4729 24
4730 13
4731 14
4732 8
4733 15
4734 13
4735 6
4736 15
4737 24
4738 51
4739 37
4740 4
4741 6
4742 17
4743 10
4744 39
4745 35
4746 6
4747 24
4748 51
4749 10
4750 30
4751 17
4752 7
4753 37
4754 19
4755 8
4756 10
4757 43
4758 23
4759 2
4760 42
4761 43
4762 14
4763 40
4764 13
4765 17
4766 32
4767 19
4768 51
4769 19
4770 45
4771 22
4772 20
4773 10
4774 12
4775 3
4776 46
4777 50
4778 55
4779 9
4780 52
4781 44
4782 26
4783 30
4784 43
4785 9
4786 51
4787 1
4788 15
4789 32
4790 16
4791 30
4792 10
4793 1
4794 4
4795 15
4796 12
4797 3
4798 41
4799 32
4800 42
4801 7
4802 12
4803 3
4804 7
4805 13
4806 50
4807 43
4808 42
4809 6
4810 51
4811 27
4812 52
4813 23
4814 7
4815 24
4816 22
4817 24
4818 15
4819 48
4820 46
4821 17
4822 46
4823 21
4824 12
4825 10
4826 14
4827 34
4828 12
4829 52
4830 1
4831 53
4832 13
4833 24
4834 13
4835 3
4836 36
4837 17
4838 17
4839 22
4840 39
4841 29
4842 23
4843 37
4844 0
4845 46
4846 28
4847 52
4848 34
4849 46
4850 55
4851 10
4852 0
4853 5
4854 31
4855 24
4856 52
4857 10
4858 17
4859 6
4860 12
4861 52
4862 11
4863 39
4864 24
4865 41
4866 30
4867 7
4868 51
4869 52
4870 39
4871 7
4872 21
4873 39
4874 48
4875 29
4876 47
4877 37
4878 4
4879 3
4880 27
4881 29
4882 22
4883 46
4884 10
4885 6
4886 49
4887 18
4888 45
4889 16
4890 14
4891 30
4892 38
4893 49
4894 32
4895 51
4896 33
4897 49
4898 37
4899 34
4900 23
4901 25
4902 24
4903 54
4904 5
4905 1
4906 3
4907 16
4908 39
4909 1
4910 1
4911 30
4912 30
4913 10
4914 12
4915 34
4916 24
4917 22
4918 28
4919 28
4920 6
4921 13
4922 19
4923 10
4924 12
4925 4
4926 50
4927 10
4928 6
4929 46
4930 24
4931 6
4932 35
4933 18
4934 39
4935 27
4936 18
4937 46
4938 38
4939 49
4940 12
4941 18
4942 12
4943 3
4944 31
4945 1
4946 46
4947 0
4948 6
4949 42
4950 12
4951 46
4952 42
4953 24
4954 26
4955 48
4956 34
4957 6
4958 39
4959 33
4960 0
4961 13
4962 26
4963 53
4964 37
4965 39
4966 52
4967 1
4968 6
4969 10
4970 37
4971 0
4972 29
4973 3
4974 8
4975 0
4976 14
4977 8
4978 24
4979 4
4980 45
4981 31
4982 38
4983 5
4984 12
4985 49
4986 49
4987 37
4988 14
4989 38
4990 49
4991 43
4992 8
4993 26
4994 34
4995 16
4996 3
4997 24
4998 23
4999 28
5000 31
5001 39
5002 34
5003 45
5004 52
5005 10
5006 20
5007 18
5008 49
5009 27
5010 3
5011 2
5012 32
5013 40
5014 19
5015 50
5016 43
5017 45
5018 17
5019 14
5020 23
5021 24
5022 2
5023 12
5024 13
5025 15
5026 54
5027 23
5028 35
5029 12
5030 9
5031 51
5032 51
5033 40
5034 19
5035 2
5036 18
5037 45
5038 13
5039 15
5040 31
5041 9
5042 46
5043 0
5044 21
5045 8
5046 29
5047 50
5048 44
5049 25
5050 29
5051 21
5052 55
5053 38
5054 1
5055 6
5056 8
5057 43
5058 9
5059 44
5060 28
5061 50
5062 26
5063 7
5064 53
5065 49
5066 53
5067 35
5068 11
5069 46
5070 24
5071 48
5072 18
5073 5
5074 3
5075 38
5076 6
5077 13
5078 21
5079 52
5080 15
5081 18
5082 11
5083 6
5084 29
5085 15
5086 1
5087 5
5088 24
5089 30
5090 2
5091 45
5092 25
5093 29
5094 33
5095 3
5096 18
5097 43
5098 28
5099 34
5100 11
5101 35
5102 32
5103 20
5104 1
5105 3
5106 45
5107 37
5108 7
5109 15
5110 37
5111 23
5112 11
5113 19
5114 39
5115 6
5116 16
5117 21
5118 31
5119 3
5120 46
5121 6
5122 21
5123 21
5124 8
5125 32
5126 10
5127 14
5128 43
5129 52
5130 5
5131 55
5132 39
5133 9
5134 15
5135 27
5136 11
5137 19
5138 1
5139 25
5140 45
5141 43
5142 9
5143 8
5144 44
5145 32
5146 12
5147 6
5148 51
5149 24
5150 34
5151 54
5152 33
5153 34
5154 39
5155 23
5156 21
5157 5
5158 17
5159 53
5160 51
5161 31
5162 32
5163 21
5164 19
5165 4
5166 8
5167 28
5168 7
5169 51
5170 43
5171 39
5172 37
5173 47
5174 41
5175 13
5176 6
5177 33
5178 24
5179 16
5180 51
5181 47
5182 19
5183 24
5184 54
5185 35
5186 11
5187 21
5188 0
5189 29
5190 38
5191 4
5192 6
5193 8
5194 14
5195 28
5196 6
5197 35
5198 37
5199 43
5200 12
5201 42
5202 18
5203 5
5204 8
5205 31
5206 40
5207 24
5208 15
5209 6
5210 51
5211 12
5212 41
5213 1
5214 3
5215 9
5216 24
5217 21
5218 10
5219 6
5220 27
5221 1
5222 20
5223 8
5224 6
5225 30
5226 37
5227 31
5228 41
5229 44
5230 6
5231 33
5232 6
5233 3
5234 5
5235 23
5236 11
5237 52
5238 52
5239 30
5240 29
5241 11
5242 52
5243 30
5244 25
5245 30
5246 1
5247 10
5248 16
5249 6
5250 24
5251 9
5252 30
5253 1
5254 18
5255 55
5256 32
5257 10
5258 40
5259 21
5260 39
5261 24
5262 24
5263 20
5264 47
5265 8
5266 49
5267 17
5268 45
5269 35
5270 26
5271 43
5272 50
5273 0
5274 39
5275 2
5276 45
5277 20
5278 5
5279 19
5280 13
5281 5
5282 43
5283 39
5284 16
5285 55
5286 21
5287 14
5288 36
5289 9
5290 54
5291 25
5292 1
5293 4
5294 45
5295 22
5296 35
5297 4
5298 8
5299 26
5300 10
5301 53
5302 50
5303 29
5304 17
5305 51
5306 35
5307 30
5308 3
5309 41
5310 30
5311 44
5312 10
5313 10
5314 28
5315 35
5316 4
5317 6
5318 40
5319 31
5320 34
5321 45
5322 42
5323 46
5324 6
5325 33
5326 39
5327 8
5328 34
5329 52
5330 29
5331 7
5332 10
5333 38
5334 12
5335 29
5336 51
5337 27
5338 12
5339 32
5340 14
5341 10
5342 4
5343 48
5344 43
5345 52
5346 49
5347 43
5348 6
5349 26
5350 4
5351 14
5352 49
5353 4
5354 49
5355 29
5356 38
5357 11
5358 55
5359 9
5360 14
5361 24
5362 37
5363 31
5364 33
5365 5
5366 17
5367 53
5368 12
5369 38
5370 21
5371 3
5372 35
5373 51
5374 18
5375 16
5376 31
5377 2
5378 39
5379 25
5380 12
5381 39
5382 3
5383 36
5384 47
5385 37
5386 3
5387 45
5388 6
5389 25
5390 26
5391 34
5392 42
5393 11
5394 37
5395 24
5396 40
5397 9
5398 49
5399 6
5400 7
5401 19
5402 3
5403 30
5404 4
5405 29
5406 39
5407 28
5408 32
5409 15
5410 2
5411 10
5412 34
5413 51
5414 5
5415 40
5416 1
5417 27
5418 29
5419 0
5420 43
5421 21
5422 11
5423 55
5424 1
5425 27
5426 10
5427 43
5428 0
5429 35
5430 1
5431 26
5432 27
5433 21
5434 5
5435 25
5436 45
5437 52
5438 19
5439 20
5440 9
5441 34
5442 36
5443 10
5444 23
5445 6
5446 10
5447 13
5448 24
5449 36
5450 31
5451 19
5452 30
5453 54
5454 18
5455 47
5456 35
5457 15
5458 32
5459 10
5460 18
5461 11
5462 44
5463 8
5464 38
5465 44
5466 2
5467 4
5468 27
5469 29
5470 9
5471 46
5472 9
5473 50
5474 38
5475 39
5476 14
5477 7
5478 46
5479 45
5480 55
5481 37
5482 12
5483 36
5484 8
5485 18
5486 1
5487 45
5488 55
5489 50
5490 20
5491 6
5492 1
5493 53
5494 41
5495 43
5496 8
5497 47
5498 12
5499 10
5500 22
5501 54
5502 45
5503 51
5504 13
5505 27
5506 39
5507 41
5508 53
5509 5
5510 46
5511 33
5512 18
5513 6
5514 35
5515 1
5516 55
5517 43
5518 18
5519 50
5520 28
5521 41
5522 41
5523 8
5524 6
5525 5
5526 3
5527 24
5528 51
5529 36
5530 14
5531 37
5532 51
5533 19
5534 39
5535 10
5536 5
5537 15
5538 19
5539 8
5540 2
5541 1
5542 39
5543 52
5544 6
5545 41
5546 31
5547 16
5548 6
5549 46
5550 42
5551 42
5552 1
5553 32
5554 31
5555 35
5556 29
5557 2
5558 27
5559 38
5560 52
5561 21
5562 6
5563 13
5564 1
5565 55
5566 29
5567 29
5568 37
5569 4
5570 28
5571 53
5572 13
5573 44
5574 44
5575 31
5576 28
5577 51
5578 20
5579 6
5580 10
5581 36
5582 19
5583 22
5584 38
5585 49
5586 6
5587 15
5588 24
5589 15
5590 7
5591 32
5592 32
5593 8
5594 8
5595 6
5596 45
5597 26
5598 18
5599 46
5600 11
5601 15
5602 6
5603 8
5604 51
5605 12
5606 33
5607 43
5608 34
5609 19
5610 2
5611 46
5612 7
5613 17
5614 6
5615 35
5616 37
5617 27
5618 4
5619 40
5620 39
5621 48
5622 18
5623 10
5624 19
5625 30
5626 18
5627 30
5628 13
5629 24
5630 16
5631 39
5632 51
5633 52
5634 46
5635 46
5636 41
5637 24
5638 46
5639 45
5640 16
5641 30
5642 38
5643 34
5644 30
5645 4
5646 33
5647 25
5648 1
5649 8
5650 5
5651 32
5652 39
5653 23
5654 42
5655 24
5656 4
5657 39
5658 15
5659 25
5660 37
5661 55
5662 10
5663 49
5664 53
5665 43
5666 4
5667 43
5668 0
5669 25
5670 23
5671 46
5672 21
5673 7
5674 19
5675 37
5676 35
5677 7
5678 38
5679 43
5680 44
5681 12
5682 14
5683 0
5684 4
5685 10
5686 51
5687 5
5688 2
5689 19
5690 26
5691 34
5692 29
5693 28
5694 54
5695 36
5696 48
5697 18
5698 42
5699 12
5700 8
5701 52
5702 23
5703 27
5704 45
5705 14
5706 37
5707 48
5708 28
5709 40
5710 24
5711 9
5712 10
5713 39
5714 3
5715 21
5716 48
5717 44
5718 35
5719 55
5720 13
5721 6
5722 50
5723 0
5724 54
5725 30
5726 30
5727 25
5728 12
5729 6
5730 18
5731 8
5732 32
5733 24
5734 33
5735 24
5736 30
5737 45
5738 6
5739 36
5740 55
5741 35
5742 46
5743 42
5744 13
5745 6
5746 29
5747 5
5748 21
5749 17
5750 11
5751 52
5752 50
5753 35
5754 47
5755 42
5756 29
5757 53
5758 25
5759 19
5760 4
5761 31
5762 22
5763 42
5764 9
5765 53
5766 11
5767 7
5768 11
5769 34
5770 31
5771 34
5772 32
5773 33
5774 45
5775 54
5776 15
5777 10
5778 10
5779 16
5780 10
5781 29
5782 1
5783 19
5784 49
5785 15
5786 12
5787 51
5788 39
5789 27
5790 6
5791 35
5792 18
5793 29
5794 17
5795 28
5796 16
5797 34
5798 48
5799 31
5800 41
5801 52
5802 13
5803 33
5804 55
5805 23
5806 4
5807 37
5808 29
5809 53
5810 42
5811 33
5812 6
5813 46
5814 48
5815 44
5816 2
5817 25
5818 32
5819 51
5820 46
5821 13
5822 7
5823 13
5824 45
5825 23
5826 18
5827 54
5828 28
5829 10
5830 52
5831 14
5832 25
5833 20
5834 49
5835 37
5836 18
5837 31
5838 2
5839 27
5840 51
5841 50
5842 20
5843 45
5844 31
5845 6
5846 29
5847 7
5848 24
5849 53
5850 24
5851 31
5852 14
5853 3
5854 14
5855 6
5856 9
5857 31
5858 7
5859 25
5860 25
5861 4
5862 36
5863 30
5864 9
5865 0
5866 23
5867 23
5868 46
5869 51
5870 9
5871 17
5872 34
5873 14
5874 54
5875 5
5876 24
5877 8
5878 25
5879 51
5880 6
5881 29
5882 29
5883 6
5884 25
5885 14
5886 34
5887 37
5888 46
5889 29
5890 45
5891 1
5892 8
5893 31
5894 52
5895 35
5896 43
5897 12
5898 30
5899 37
5900 17
5901 10
5902 28
5903 32
5904 31
5905 52
5906 6
5907 50
5908 37
5909 7
5910 9
5911 10
5912 55
5913 6
5914 39
5915 39
5916 35
5917 6
5918 30
5919 43
5920 14
5921 46
5922 5
5923 11
5924 30
5925 29
5926 17
5927 29
5928 31
5929 3
5930 12
5931 21
5932 51
5933 21
5934 24
5935 8
5936 10
5937 14
5938 20
5939 11
5940 28
5941 43
5942 9
5943 52
5944 26
5945 13
5946 24
5947 16
5948 37
5949 0
5950 2
5951 0
5952 10
5953 15
5954 30
5955 0
5956 43
5957 39
5958 35
5959 48
5960 17
5961 6
5962 38
5963 2
5964 40
5965 41
5966 8
5967 49
5968 14
5969 0
5970 35
5971 30
5972 49
5973 2
5974 52
5975 51
5976 49
5977 9
5978 4
5979 10
5980 32
5981 23
5982 12
5983 2
5984 40
5985 44
5986 32
5987 33
5988 49
5989 48
5990 48
5991 3
5992 10
5993 20
5994 37
5995 19
5996 10
5997 30
5998 9
5999 29
6000 23
6001 13
6002 8
6003 37
6004 50
6005 0
6006 13
6007 15
6008 26
6009 10
6010 25
6011 8
6012 26
6013 6
6014 38
6015 15
6016 2
6017 49
6018 39
6019 6
6020 39
6021 26
6022 5
6023 21
6024 33
6025 14
6026 19
6027 43
6028 19
6029 1
6030 9
6031 46
6032 44
6033 5
6034 10
6035 8
6036 12
6037 27
6038 22
6039 9
6040 41
6041 44
6042 30
6043 28
6044 1
6045 40
6046 25
6047 30
6048 51
6049 11
6050 41
6051 29
6052 33
6053 49
6054 42
6055 52
6056 41
6057 2
6058 51
6059 43
6060 6
6061 7
6062 3
6063 37
6064 3
6065 22
6066 49
6067 13
6068 6
6069 45
6070 30
6071 35
6072 13
6073 3
6074 3
6075 19
6076 8
6077 17
6078 34
6079 34
6080 29
6081 55
6082 52
6083 53
6084 3
6085 42
6086 51
6087 11
6088 13
6089 28
6090 20
6091 27
6092 19
6093 38
6094 4
6095 29
6096 25
6097 4
6098 13
6099 20
6100 23
6101 3
6102 46
6103 29
6104 34
6105 51
6106 10
6107 14
6108 12
6109 36
6110 33
6111 4
6112 46
6113 13
6114 43
6115 16
6116 20
6117 18
6118 29
6119 17
6120 6
6121 10
6122 38
6123 22
6124 15
6125 5
6126 20
6127 12
6128 22
6129 51
6130 39
6131 8
6132 35
6133 13
6134 21
6135 43
6136 21
6137 45
6138 49
6139 42
6140 9
6141 22
6142 43
6143 3
6144 37
6145 49
6146 17
6147 34
6148 46
6149 31
6150 46
6151 45
6152 21
6153 2
6154 0
6155 49
6156 32
6157 19
6158 30
6159 29
6160 12
6161 31
6162 19
6163 12
6164 6
6165 10
6166 14
6167 42
6168 1
6169 21
6170 32
6171 9
6172 27
6173 3
6174 38
6175 18
6176 14
6177 4
6178 29
6179 35
6180 24
6181 21
6182 6
6183 36
6184 30
6185 16
6186 27
6187 31
6188 11
6189 51
6190 40
6191 25
6192 49
6193 35
6194 46
6195 8
6196 9
6197 12
6198 36
6199 31
6200 8
6201 24
6202 9
6203 23
6204 4
6205 55
6206 45
6207 2
6208 20
6209 10
6210 12
6211 3
6212 13
6213 18
6214 51
6215 1
6216 52
6217 32
6218 30
6219 24
6220 35
6221 2
6222 29
6223 3
6224 55
6225 20
6226 7
6227 54
6228 55
6229 29
6230 48
6231 21
6232 14
6233 25
6234 18
6235 43
6236 25
6237 43
6238 46
6239 38
6240 0
6241 7
6242 21
6243 0
6244 37
6245 43
6246 37
6247 14
6248 21
6249 13
6250 46
6251 47
6252 19
6253 38
6254 24
6255 52
6256 54
6257 27
6258 37
6259 0
6260 32
6261 39
6262 44
6263 34
6264 10
6265 21
6266 35
6267 15
6268 5
6269 35
6270 45
6271 12
6272 27
6273 37
6274 10
6275 44
6276 32
6277 12
6278 55
6279 43
6280 10
6281 2
6282 9
6283 33
6284 29
6285 0
6286 37
6287 45
6288 26
6289 22
6290 50
6291 27
6292 28
6293 9
6294 5
6295 10
6296 3
6297 27
6298 11
6299 34
6300 48
6301 14
6302 23
6303 4
6304 55
6305 40
6306 46
6307 48
6308 52
6309 10
6310 3
6311 4
6312 46
6313 9
6314 19
6315 39
6316 16
6317 0
6318 10
6319 21
6320 29
6321 19
6322 21
6323 32
6324 40
6325 12
6326 31
6327 31
6328 15
6329 51
6330 27
6331 14
6332 32
6333 4
6334 5
6335 3
6336 22
6337 23
6338 46
6339 33
6340 20
6341 29
6342 54
6343 17
6344 3
6345 19
6346 7
6347 0
6348 49
6349 32
6350 40
6351 26
6352 10
6353 6
6354 21
6355 0
6356 0
6357 5
6358 20
6359 51
6360 19
6361 53
6362 39
6363 24
6364 27
6365 19
6366 24
6367 49
6368 45
6369 33
6370 23
6371 18
6372 50
6373 3
6374 24
6375 4
6376 35
6377 16
6378 17
6379 22
6380 3
6381 50
6382 26
6383 15
6384 39
6385 34
6386 38
6387 45
6388 41
6389 30
6390 10
6391 3
6392 51
6393 23
6394 3
6395 17
6396 54
6397 38
6398 17
6399 1
6400 6
6401 20
6402 22
6403 13
6404 30
6405 0
6406 11
6407 27
6408 12
6409 38
6410 19
6411 51
6412 33
6413 38
6414 26
6415 23
6416 32
6417 22
6418 26
6419 17
6420 10
6421 14
6422 9
6423 28
6424 17
6425 55
6426 12
6427 42
6428 30
6429 32
6430 33
6431 31
6432 53
6433 8
6434 0
6435 47
6436 8
6437 32
6438 32
6439 45
6440 49
6441 42
6442 33
6443 29
6444 33
6445 14
6446 10
6447 7
6448 17
6449 39
6450 6
6451 6
6452 52
6453 3
6454 14
6455 20
6456 35
6457 20
6458 45
6459 37
6460 53
6461 38
6462 15
6463 48
6464 37
6465 16
6466 38
6467 41
6468 46
6469 18
6470 32
6471 50
6472 24
6473 44
6474 43
6475 9
6476 26
6477 11
6478 23
6479 5
6480 11
6481 49
6482 4
6483 24
6484 40
6485 45
6486 16
6487 26
6488 34
6489 46
6490 1
6491 48
6492 35
6493 1
6494 46
6495 9
6496 51
6497 19
6498 1
6499 13
6500 15
6501 37
6502 45
6503 54
6504 23
6505 12
6506 42
6507 11
6508 29
6509 50
6510 12
6511 9
6512 45
6513 19
6514 13
6515 52
6516 14
6517 17
6518 12
6519 43
6520 6
6521 54
6522 5
6523 31
6524 43
6525 21
6526 43
6527 53
6528 16
6529 14
6530 17
6531 6
6532 30
6533 11
6534 34
6535 42
6536 30
6537 52
6538 28
6539 42
6540 27
6541 18
6542 34
6543 10
6544 29
6545 10
6546 14
6547 32
6548 30
6549 16
6550 51
6551 32
6552 26
6553 33
6554 9
6555 17
6556 52
6557 21
6558 37
6559 21
6560 6
6561 31
6562 4
6563 12
6564 5
6565 43
6566 55
6567 32
6568 3
6569 43
6570 31
6571 19
6572 15
6573 46
6574 24
6575 0
6576 1
6577 23
6578 24
6579 2
6580 25
6581 38
6582 53
6583 25
6584 1
6585 13
6586 12
6587 9
6588 28
6589 24
6590 41
6591 28
6592 41
6593 19
6594 40
6595 6
6596 21
6597 19
6598 22
6599 24
6600 5
6601 19
6602 1
6603 48
6604 21
6605 15
6606 10
6607 35
6608 42
6609 8
6610 43
6611 39
6612 39
6613 7
6614 52
6615 10
6616 3
6617 34
6618 52
6619 21
6620 45
6621 20
6622 53
6623 24
6624 45
6625 39
6626 6
6627 51
6628 10
6629 50
6630 42
6631 12
6632 42
6633 6
6634 4
6635 10
6636 9
6637 9
6638 6
6639 39
6640 5
6641 23
6642 6
6643 0
6644 12
6645 24
6646 18
6647 43
6648 15
6649 9
6650 6
6651 49
6652 40
6653 4
6654 41
6655 31
6656 20
6657 24
6658 35
6659 25
6660 4
6661 37
6662 47
6663 5
6664 53
6665 30
6666 36
6667 43
6668 53
6669 8
6670 15
6671 51
6672 4
6673 19
6674 55
6675 15
6676 41
6677 9
6678 16
6679 2
6680 10
6681 25
6682 35
6683 20
6684 11
6685 35
6686 24
6687 26
6688 12
6689 19
6690 3
6691 35
6692 18
6693 20
6694 5
6695 18
6696 6
6697 14
6698 31
6699 51
6700 21
6701 48
6702 27
6703 8
6704 37
6705 21
6706 51
6707 33
6708 25
6709 48
6710 23
6711 37
6712 6
6713 7
6714 13
6715 28
6716 18
6717 30
6718 6
6719 38
6720 27
6721 50
6722 6
6723 32
6724 39
6725 30
6726 52
6727 20
6728 11
6729 1
6730 8
6731 10
6732 6
6733 13
6734 3
6735 6
6736 19
6737 11
6738 6
6739 28
6740 32
6741 13
6742 49
6743 7
6744 37
6745 0
6746 6
6747 16
6748 44
6749 4
6750 39
6751 22
6752 10
6753 38
6754 10
6755 28
6756 6
6757 1
6758 19
6759 11
6760 44
6761 13
6762 17
6763 9
6764 35
6765 35
6766 43
6767 3
6768 47
6769 10
6770 16
6771 6
6772 42
6773 48
6774 28
6775 11
6776 31
6777 16
6778 12
6779 29
6780 44
6781 26
6782 10
6783 48
6784 43
6785 26
6786 31
6787 27
6788 32
6789 8
6790 45
6791 6
6792 48
6793 31
6794 4
6795 51
6796 43
6797 33
6798 0
6799 52
6800 2
6801 16
6802 41
6803 39
6804 50
6805 52
6806 24
6807 6
6808 6
6809 47
6810 23
6811 8
6812 1
6813 52
6814 27
6815 4
6816 31
6817 14
6818 24
6819 32
6820 5
6821 30
6822 1
6823 3
6824 29
6825 20
6826 37
6827 1
6828 52
6829 13
6830 38
6831 4
6832 0
6833 40
6834 20
6835 29
6836 46
6837 33
6838 1
6839 46
6840 21
6841 5
6842 24
6843 3
6844 51
6845 6
6846 12
6847 52
6848 21
6849 32
6850 46
6851 5
6852 55
6853 42
6854 9
6855 33
6856 53
6857 45
6858 30
6859 30
6860 38
6861 32
6862 13
6863 22
6864 38
6865 39
6866 31
6867 45
6868 26
6869 24
6870 36
6871 26
6872 25
6873 23
6874 14
6875 38
6876 35
6877 46
6878 23
6879 12
6880 43
6881 32
6882 13
6883 0
6884 21
6885 6
6886 49
6887 47
6888 24
6889 49
6890 37
6891 39
6892 52
6893 32
6894 37
6895 4
6896 31
6897 5
6898 43
6899 29
6900 53
6901 7
6902 24
6903 34
6904 29
6905 48
6906 7
6907 19
6908 32
6909 12
6910 29
6911 9
6912 20
6913 41
6914 1
6915 39
6916 37
6917 22
6918 51
6919 19
6920 50
6921 24
6922 15
6923 29
6924 0
6925 6
6926 50
6927 42
6928 25
6929 3
6930 7
6931 43
6932 3
6933 41
6934 5
6935 10
6936 30
6937 31
6938 24
6939 29
6940 39
6941 5
6942 27
6943 38
6944 39
6945 28
6946 43
6947 37
6948 8
6949 43
6950 18
6951 39
6952 9
6953 43
6954 11
6955 49
6956 48
6957 42
6958 3
6959 36
6960 53
6961 36
6962 3
6963 47
6964 17
6965 4
6966 4
6967 6
6968 29
6969 14
6970 9
6971 20
6972 29
6973 20
6974 53
6975 31
6976 31
6977 25
6978 32
6979 46
6980 1
6981 5
6982 13
6983 44
6984 9
6985 19
6986 22
6987 42
6988 25
6989 23
6990 31
6991 50
6992 0
6993 53
6994 50
6995 8
6996 45
6997 10
6998 0
6999 23
7000 21
7001 17
7002 30
7003 48
7004 31
7005 1
7006 48
7007 3
7008 11
7009 43
7010 24
7011 3
7012 20
7013 32
7014 22
7015 0
7016 3
7017 20
7018 33
7019 39
7020 47
7021 8
7022 28
7023 6
7024 0
7025 4
7026 2
7027 11
7028 14
7029 49
7030 6
7031 25
7032 55
7033 0
7034 54
7035 4
7036 30
7037 49
7038 26
7039 32
7040 0
7041 51
7042 30
7043 7
7044 6
7045 30
7046 52
7047 14
7048 32
7049 13
7050 4
7051 11
7052 52
7053 23
7054 13
7055 25
7056 14
7057 26
7058 29
7059 39
7060 5
7061 26
7062 0
7063 16
7064 51
7065 2
7066 14
7067 29
7068 38
7069 20
7070 12
7071 19
7072 21
7073 49
7074 20
7075 10
7076 22
7077 31
7078 51
7079 5
7080 9
7081 1
7082 32
7083 16
7084 24
7085 47
7086 39
7087 20
7088 48
7089 24
7090 40
7091 24
7092 18
7093 33
7094 4
7095 32
7096 6
7097 3
7098 37
7099 25
7100 49
7101 36
7102 34
7103 51
7104 46
7105 31
7106 39
7107 8
7108 22
7109 13
7110 38
7111 20
7112 3
7113 15
7114 34
7115 6
7116 48
7117 14
7118 22
7119 12
7120 15
7121 50
7122 1
7123 30
7124 17
7125 15
7126 10
7127 19
7128 35
7129 34
7130 52
7131 39
7132 25
7133 4
7134 19
7135 51
7136 40
7137 17
7138 21
7139 14
7140 17
7141 9
7142 20
7143 34
7144 22
7145 39
7146 37
7147 10
7148 4
7149 25
7150 46
7151 30
7152 12
7153 34
7154 15
7155 54
7156 30
7157 51
7158 37
7159 28
7160 21
7161 17
7162 4
7163 10
7164 37
7165 45
7166 41
7167 28
7168 6
7169 11
7170 9
7171 43
7172 36
7173 46
7174 6
7175 10
7176 43
7177 0
7178 2
7179 21
7180 11
7181 29
7182 10
7183 14
7184 4
7185 29
7186 11
7187 2
7188 24
7189 20
7190 52
7191 42
7192 42
7193 23
7194 41
7195 38
7196 25
7197 49
7198 43
7199 12
7200 55
7201 4
7202 51
7203 30
7204 6
7205 39
7206 39
7207 3
7208 15
7209 24
7210 12
7211 10
7212 2
7213 10
7214 16
7215 8
7216 46
7217 20
7218 43
7219 43
7220 8
7221 32
7222 19
7223 1
7224 7
7225 4
7226 13
7227 8
7228 35
7229 19
7230 50
7231 24
7232 24
7233 35
7234 51
7235 21
7236 1
7237 4
7238 1
7239 42
7240 6
7241 13
7242 1
7243 4
7244 6
7245 41
7246 52
7247 49
7248 24
7249 50
7250 30
7251 52
7252 52
7253 38
7254 29
7255 24
7256 43
7257 16
7258 14
7259 8
7260 14
7261 6
7262 43
7263 54
7264 10
7265 7
7266 13
7267 5
7268 26
7269 29
7270 54
7271 9
7272 24
7273 28
7274 30
7275 15
7276 10
7277 34
7278 31
7279 10
7280 6
7281 13
7282 54
7283 23
7284 3
7285 3
7286 48
7287 5
7288 15
7289 3
7290 9
7291 1
7292 41
7293 52
7294 53
7295 41
7296 46
7297 45
7298 7
7299 1
7300 4
7301 13
7302 3
7303 49
7304 24
7305 13
7306 31
7307 14
7308 47
7309 16
7310 30
7311 55
7312 14
7313 16
7314 40
7315 45
7316 11
7317 37
7318 24
7319 43
7320 12
7321 3
7322 6
7323 2
7324 31
7325 9
7326 12
7327 39
7328 18
7329 21
7330 1
7331 51
7332 43
7333 1
7334 24
7335 35
7336 1
7337 45
7338 39
7339 8
7340 10
7341 45
7342 29
7343 32
7344 12
7345 31
7346 9
7347 13
7348 4
7349 28
7350 29
7351 6
7352 34
7353 21
7354 45
7355 27
7356 38
7357 1
7358 18
7359 4
7360 8
7361 50
7362 0
7363 8
7364 18
7365 35
7366 46
7367 46
7368 26
7369 8
7370 1
7371 23
7372 45
7373 33
7374 34
7375 38
7376 49
7377 43
7378 32
7379 4
7380 5
7381 46
7382 4
7383 49
7384 14
7385 20
7386 28
7387 25
7388 12
7389 44
7390 46
7391 32
7392 43
7393 18
7394 9
7395 20
7396 4
7397 44
7398 55
7399 14
7400 54
7401 51
7402 44
7403 19
7404 31
7405 13
7406 16
7407 30
7408 29
7409 8
7410 13
7411 10
7412 29
7413 11
7414 0
7415 29
7416 0
7417 19
7418 54
7419 48
7420 25
7421 6
7422 12
7423 44
7424 37
7425 44
7426 43
7427 31
7428 36
7429 4
7430 45
7431 43
7432 18
7433 0
7434 6
7435 45
7436 26
7437 2
7438 14
7439 1
7440 31
7441 21
7442 6
7443 52
7444 31
7445 6
7446 11
7447 6
7448 29
7449 15
7450 2
7451 25
7452 13
7453 24
7454 38
7455 11
7456 11
7457 21
7458 9
7459 8
7460 5
7461 13
7462 12
7463 52
7464 53
7465 24
7466 48
7467 33
7468 8
7469 20
7470 48
7471 52
7472 29
7473 50
7474 11
7475 47
7476 5
7477 20
7478 51
7479 5
7480 28
7481 29
7482 14
7483 23
7484 22
7485 2
7486 48
7487 38
7488 4
7489 48
7490 3
7491 28
7492 51
7493 46
7494 39
7495 44
7496 37
7497 46
7498 51
7499 55
7500 6
7501 20
7502 43
7503 10
7504 12
7505 14
7506 35
7507 11
7508 0
7509 10
7510 3
7511 10
7512 51
7513 5
7514 24
7515 2
7516 16
7517 9
7518 10
7519 8
7520 43
7521 5
7522 6
7523 43
7524 5
7525 13
7526 25
7527 5
7528 4
7529 12
7530 5
7531 1
7532 16
7533 1
7534 6
7535 9
7536 42
7537 4
7538 9
7539 24
7540 6
7541 42
7542 43
7543 34
7544 20
7545 19
7546 21
7547 46
7548 13
7549 49
7550 5
7551 52
7552 48
7553 54
7554 17
7555 22
7556 18
7557 43
7558 14
7559 44
7560 35
7561 13
7562 36
7563 21
7564 24
7565 1
7566 0
7567 6
7568 54
7569 12
7570 29
7571 26
7572 31
7573 29
7574 37
7575 17
7576 43
7577 39
7578 21
7579 43
7580 51
7581 17
7582 13
7583 12
7584 10
7585 0
7586 4
7587 0
7588 18
7589 19
7590 20
7591 1
7592 16
7593 31
7594 9
7595 1
7596 13
7597 19
7598 2
7599 14
7600 54
7601 8
7602 4
7603 9
7604 49
7605 4
7606 25
7607 44
7608 7
7609 10
7610 4
7611 22
7612 19
7613 39
7614 47
7615 7
7616 0
7617 32
7618 13
7619 32
7620 11
7621 17
7622 32
7623 6
7624 53
7625 28
7626 1
7627 22
7628 35
7629 54
7630 0
7631 46
7632 0
7633 52
7634 35
7635 14
7636 52
7637 24
7638 27
7639 32
7640 19
7641 26
7642 29
7643 9
7644 25
7645 13
7646 1
7647 15
7648 42
7649 32
7650 3
7651 1
7652 13
7653 29
7654 28
7655 10
7656 30
7657 6
7658 5
7659 24
7660 4
7661 48
7662 4
7663 25
7664 45
7665 45
7666 49
7667 2
7668 8
7669 5
7670 0
7671 4
7672 52
7673 26
7674 6
7675 52
7676 31
7677 7
7678 10
7679 29
7680 54
7681 4
7682 42
7683 46
7684 41
7685 24
7686 33
7687 22
7688 20
7689 29
7690 12
7691 29
7692 10
7693 48
7694 8
7695 11
7696 33
7697 13
7698 37
7699 9
7700 3
7701 43
7702 49
7703 29
7704 46
7705 32
7706 49
7707 27
7708 0
7709 8
7710 54
7711 10
7712 29
7713 8
7714 4
7715 18
7716 21
7717 49
7718 10
7719 11
7720 13
7721 0
7722 55
7723 9
7724 39
7725 30
7726 12
7727 3
7728 1
7729 20
7730 37
7731 25
7732 43
7733 3
7734 9
7735 40
7736 46
7737 18
7738 27
7739 14
7740 39
7741 46
7742 37
7743 34
7744 9
7745 10
7746 0
7747 28
7748 0
7749 2
7750 17
7751 44
7752 31
7753 17
7754 28
7755 3
7756 39
7757 29
7758 18
7759 24
7760 9
7761 5
7762 38
7763 20
7764 17
7765 6
7766 52
7767 3
7768 13
7769 35
7770 47
7771 52
7772 22
7773 51
7774 24
7775 31
7776 5
7777 23
7778 21
7779 49
7780 54
7781 8
7782 24
7783 49
7784 13
7785 15
7786 38
7787 40
7788 6
7789 31
7790 11
7791 6
7792 26
7793 10
7794 27
7795 14
7796 46
7797 11
7798 1
7799 11
7800 26
7801 5
7802 24
7803 34
7804 43
7805 48
7806 3
7807 27
7808 8
7809 42
7810 50
7811 45
7812 48
7813 0
7814 48
7815 14
7816 29
7817 12
7818 30
7819 52
7820 26
7821 27
7822 52
7823 37
7824 40
7825 16
7826 25
7827 24
7828 13
7829 55
7830 41
7831 11
7832 7
7833 46
7834 34
7835 1
7836 12
7837 49
7838 24
7839 39
7840 21
7841 3
7842 0
7843 11
7844 32
7845 0
7846 44
7847 2
7848 21
7849 48
7850 10
7851 46
7852 19
7853 5
7854 14
7855 39
7856 37
7857 31
7858 28
7859 9
7860 38
7861 31
7862 28
7863 4
7864 7
7865 12
7866 23
7867 7
7868 18
7869 1
7870 37
7871 24
7872 32
7873 8
7874 31
7875 48
7876 4
7877 21
7878 11
7879 14
7880 28
7881 39
7882 1
7883 51
7884 6
7885 7
7886 3
7887 5
7888 9
7889 20
7890 35
7891 28
7892 18
7893 6
7894 48
7895 10
7896 37
7897 47
7898 0
7899 28
7900 2
7901 9
7902 29
7903 4
7904 46
7905 13
7906 3
7907 9
7908 10
7909 49
7910 0
7911 39
7912 24
7913 18
7914 24
7915 10
7916 4
7917 14
7918 53
7919 22
7920 29
7921 29
7922 39
7923 18
7924 6
7925 19
7926 48
7927 6
7928 21
7929 46
7930 30
7931 2
7932 21
7933 20
7934 4
7935 8
7936 8
7937 37
7938 18
7939 21
7940 11
7941 3
7942 21
7943 9
7944 37
7945 34
7946 12
7947 32
7948 1
7949 14
7950 54
7951 18
7952 48
7953 35
7954 0
7955 55
7956 30
7957 21
7958 53
7959 46
7960 1
7961 3
7962 50
7963 9
7964 8
7965 34
7966 1
7967 2
7968 15
7969 10
7970 18
7971 9
7972 38
7973 23
7974 50
7975 10
7976 22
7977 13
7978 13
7979 29
7980 25
7981 1
7982 43
7983 20
7984 22
7985 37
7986 39
7987 31
7988 29
7989 3
7990 8
7991 46
7992 54
7993 0
7994 38
7995 24
7996 31
7997 43
7998 42
7999 29
8000 39
8001 0
8002 38
8003 34
8004 35
8005 6
8006 46
8007 20
8008 18
8009 24
8010 41
8011 36
8012 5
8013 44
8014 3
8015 0
8016 20
8017 34
8018 46
8019 29
8020 45
8021 23
8022 38
8023 6
8024 6
8025 7
8026 32
8027 24
8028 9
8029 24
8030 48
8031 32
8032 9
8033 8
8034 16
8035 1
8036 51
8037 15
8038 6
8039 32
8040 0
8041 31
8042 39
8043 24
8044 29
8045 21
8046 45
8047 24
8048 31
8049 53
8050 14
8051 10
8052 19
8053 39
8054 8
8055 35
8056 8
8057 3
8058 34
8059 13
8060 41
8061 16
8062 11
8063 8
8064 30
8065 39
8066 31
8067 52
8068 54
8069 21
8070 0
8071 55
8072 44
8073 9
8074 9
8075 1
8076 20
8077 6
8078 28
8079 45
8080 24
8081 43
8082 4
8083 52
8084 26
8085 29
8086 6
8087 14
8088 3
8089 50
8090 45
8091 37
8092 11
8093 30
8094 30
8095 17
8096 47
8097 13
8098 26
8099 10
8100 32
8101 36
8102 24
8103 35
8104 39
8105 44
8106 21
8107 54
8108 11
8109 29
8110 52
8111 1
8112 52
8113 35
8114 42
8115 52
8116 18
8117 41
8118 14
8119 6
8120 42
8121 28
8122 5
8123 30
8124 29
8125 38
8126 52
8127 8
8128 13
8129 32
8130 27
8131 29
8132 52
8133 42
8134 40
8135 2
8136 8
8137 49
8138 30
8139 53
8140 43
8141 10
8142 19
8143 9
8144 46
8145 9
8146 4
8147 46
8148 38
8149 8
8150 50
8151 23
8152 51
8153 21
8154 7
8155 51
8156 46
8157 48
8158 1
8159 13
8160 46
8161 23
8162 30
8163 24
8164 41
8165 46
8166 0
8167 4
8168 37
8169 30
8170 6
8171 41
8172 28
8173 45
8174 11
8175 52
8176 20
8177 48
8178 49
8179 10
8180 53
8181 20
8182 39
8183 34
8184 15
8185 18
8186 6
8187 12
8188 43
8189 41
8190 31
8191 35
8192 31
8193 38
8194 10
8195 50
8196 31
8197 1
8198 9
8199 23
8200 11
8201 28
8202 8
8203 8
8204 10
8205 29
8206 21
8207 6
8208 6
8209 51
8210 1
8211 32
8212 8
8213 9
8214 15
8215 29
8216 32
8217 7
8218 10
8219 14
8220 32
8221 28
8222 29
8223 9
8224 19
8225 40
8226 5
8227 5
8228 17
8229 38
8230 24
8231 15
8232 10
8233 28
8234 3
8235 15
8236 11
8237 40
8238 30
8239 54
8240 42
8241 39
8242 12
8243 12
8244 29
8245 37
8246 35
8247 3
8248 1
8249 15
8250 38
8251 39
8252 18
8253 55
8254 12
8255 16
8256 24
8257 47
8258 14
8259 3
8260 15
8261 2
8262 27
8263 5
8264 34
8265 10
8266 29
8267 31
8268 12
8269 37
8270 54
8271 49
8272 39
8273 10
8274 22
8275 17
8276 52
8277 14
8278 0
8279 37
8280 32
8281 6
8282 40
8283 25
8284 19
8285 4
8286 23
8287 19
8288 5
8289 30
8290 39
8291 37
8292 54
8293 48
8294 8
8295 7
8296 16
8297 4
8298 33
8299 30
8300 38
8301 21
8302 31
8303 44
8304 34
8305 39
8306 30
8307 16
8308 26
8309 36
8310 1
8311 5
8312 3
8313 49
8314 16
8315 21
8316 51
8317 18
8318 14
8319 12
8320 3
8321 13
8322 3
8323 28
8324 25
8325 41
8326 43
8327 23
8328 27
8329 10
8330 33
8331 6
8332 34
8333 10
8334 1
8335 10
8336 55
8337 10
8338 1
8339 13
8340 49
8341 21
8342 31
8343 31
8344 34
8345 32
8346 4
8347 32
8348 7
8349 6
8350 1
8351 46
8352 46
8353 0
8354 23
8355 7
8356 24
8357 50
8358 48
8359 38
8360 6
8361 19
8362 5
8363 53
8364 0
8365 6
8366 14
8367 33
8368 18
8369 31
8370 3
8371 29
8372 31
8373 53
8374 51
8375 2
8376 21
8377 54
8378 4
8379 7
8380 23
8381 14
8382 33
8383 0
8384 0
8385 51
8386 21
8387 1
8388 53
8389 43
8390 40
8391 26
8392 30
8393 52
8394 45
8395 6
8396 36
8397 51
8398 20
8399 52
8400 38
8401 52
8402 31
8403 37
8404 46
8405 36
8406 39
8407 43
8408 13
8409 4
8410 8
8411 40
8412 52
8413 16
8414 8
8415 33
8416 13
8417 14
8418 2
8419 9
8420 43
8421 11
8422 42
8423 4
8424 14
8425 2
8426 14
8427 11
8428 51
8429 42
8430 24
8431 7
8432 10
8433 38
8434 44
8435 6
8436 46
8437 21
8438 6
8439 28
8440 31
8441 6
8442 38
8443 39
8444 9
8445 20
8446 14
8447 29
8448 51
8449 9
8450 3
8451 13
8452 35
8453 14
8454 13
8455 25
8456 21
8457 34
8458 40
8459 36
8460 40
8461 48
8462 15
8463 5
8464 38
8465 13
8466 30
8467 1
8468 10
8469 3
8470 41
8471 51
8472 10
8473 21
8474 32
8475 26
8476 53
8477 11
8478 13
8479 6
8480 17
8481 48
8482 11
8483 40
8484 3
8485 46
8486 9
8487 35
8488 6
8489 9
8490 11
8491 14
8492 33
8493 23
8494 9
8495 6
8496 52
8497 39
8498 38
8499 44
8500 51
8501 28
8502 5
8503 50
8504 4
8505 53
8506 41
8507 49
8508 0
8509 15
8510 29
8511 22
8512 32
8513 33
8514 10
8515 4
8516 0
8517 28
8518 40
8519 42
8520 25
8521 20
8522 33
8523 8
8524 9
8525 49
8526 21
8527 25
8528 4
8529 3
8530 32
8531 31
8532 25
8533 32
8534 5
8535 35
8536 15
8537 38
8538 51
8539 10
8540 14
8541 29
8542 38
8543 43
8544 48
8545 1
8546 0
8547 14
8548 2
8549 29
8550 18
8551 41
8552 8
8553 37
8554 2
8555 22
8556 25
8557 53
8558 0
8559 23
8560 30
8561 2
8562 15
8563 29
8564 34
8565 7
8566 4
8567 28
8568 11
8569 6
8570 50
8571 6
8572 24
8573 39
8574 39
8575 37
8576 24
8577 9
8578 10
8579 39
8580 51
8581 10
8582 26
8583 1
8584 55
8585 29
8586 0
8587 36
8588 3
8589 37
8590 18
8591 7
8592 17
8593 12
8594 4
8595 6
8596 14
8597 45
8598 11
8599 45
8600 10
8601 30
8602 20
8603 44
8604 39
8605 18
8606 48
8607 4
8608 27
8609 7
8610 1
8611 4
8612 25
8613 24
8614 27
8615 48
8616 20
8617 8
8618 34
8619 14
8620 39
8621 22
8622 2
8623 50
8624 21
8625 4
8626 6
8627 30
8628 53
8629 2
8630 31
8631 31
8632 8
8633 30
8634 7
8635 52
8636 36
8637 29
8638 46
8639 6
8640 11
8641 20
8642 24
8643 19
8644 54
8645 27
8646 31
8647 8
8648 18
8649 43
8650 24
8651 8
8652 55
8653 39
8654 49
8655 40
8656 12
8657 13
8658 11
8659 50
8660 6
8661 30
8662 33
8663 21
8664 26
8665 6
8666 29
8667 12
8668 54
8669 6
8670 20
8671 19
8672 25
8673 8
8674 42
8675 10
8676 27
8677 52
8678 13
8679 29
8680 4
8681 5
8682 5
8683 24
8684 29
8685 20
8686 0
8687 45
8688 53
8689 32
8690 19
8691 52
8692 9
8693 28
8694 39
8695 1
8696 17
8697 5
8698 18
8699 41
8700 31
8701 18
8702 30
8703 18
8704 7
8705 43
8706 37
8707 40
8708 9
8709 24
8710 52
8711 45
8712 31
8713 48
8714 1
8715 55
8716 49
8717 6
8718 45
8719 9
8720 3
8721 52
8722 39
8723 41
8724 6
8725 50
8726 18
8727 55
8728 3
8729 38
8730 1
8731 35
8732 13
8733 49
8734 45
8735 51
8736 7
8737 3
8738 24
8739 51
8740 38
8741 37
8742 46
8743 27
8744 29
8745 21
8746 13
8747 0
8748 12
8749 47
8750 51
8751 29
8752 7
8753 19
8754 5
8755 30
8756 8
8757 13
8758 27
8759 38
8760 23
8761 26
8762 1
8763 9
8764 24
8765 23
8766 36
8767 30
8768 21
8769 51
8770 6
8771 12
8772 10
8773 27
8774 33
8775 14
8776 9
8777 28
8778 31
8779 22
8780 29
8781 29
8782 43
8783 23
8784 37
8785 43
8786 5
8787 20
8788 29
8789 3
8790 34
8791 14
8792 37
8793 1
8794 22
8795 36
8796 3
8797 6
8798 4
8799 3
8800 39
8801 10
8802 39
8803 35
8804 22
8805 13
8806 54
8807 24
8808 28
8809 52
8810 45
8811 8
8812 6
8813 13
8814 48
8815 10
8816 42
8817 7
8818 18
8819 38
8820 46
8821 19
8822 0
8823 6
8824 52
8825 35
8826 37
8827 18
8828 34
8829 18
8830 20
8831 45
8832 6
8833 30
8834 11
8835 32
8836 4
8837 20
8838 5
8839 37
8840 10
8841 54
8842 19
8843 5
8844 43
8845 30
8846 53
8847 52
8848 39
8849 3
8850 34
8851 27
8852 30
8853 8
8854 14
8855 6
8856 53
8857 9
8858 0
8859 1
8860 13
8861 32
8862 4
8863 37
8864 24
8865 43
8866 21
8867 14
8868 0
8869 34
8870 21
8871 54
8872 52
8873 10
8874 33
8875 25
8876 37
8877 16
8878 11
8879 18
8880 20
8881 12
8882 37
8883 6
8884 12
8885 55
8886 39
8887 18
8888 32
8889 37
8890 39
8891 2
8892 39
8893 20
8894 32
8895 55
8896 25
8897 50
8898 34
8899 32
8900 49
8901 4
8902 3
8903 36
8904 52
8905 6
8906 0
8907 43
8908 0
8909 16
8910 25
8911 48
8912 23
8913 44
8914 30
8915 10
8916 13
8917 52
8918 51
8919 29
8920 23
8921 45
8922 23
8923 12
8924 19
8925 12
8926 18
8927 5
8928 34
8929 26
8930 44
8931 55
8932 53
8933 34
8934 38
8935 52
8936 20
8937 55
8938 0
8939 6
8940 10
8941 9
8942 11
8943 9
8944 37
8945 2
8946 34
8947 31
8948 7
8949 10
8950 24
8951 12
8952 2
8953 33
8954 18
8955 19
8956 15
8957 8
8958 31
8959 23
8960 30
8961 30
8962 30
8963 0
8964 38
8965 14
8966 22
8967 6
8968 27
8969 20
8970 4
8971 43
8972 23
8973 51
8974 25
8975 12
8976 43
8977 18
8978 19
8979 18
8980 13
8981 32
8982 15
8983 30
8984 18
8985 13
8986 33
8987 0
8988 37
8989 2
8990 38
8991 47
8992 10
8993 24
8994 6
8995 51
8996 29
8997 37
8998 19
8999 12
9000 42
9001 6
9002 49
9003 30
9004 21
9005 48
9006 6
9007 19
9008 7
9009 6
9010 30
9011 7
9012 1
9013 54
9014 17
9015 48
9016 4
9017 30
9018 42
9019 29
9020 53
9021 55
9022 37
9023 6
9024 8
9025 29
9026 36
9027 39
9028 48
9029 39
9030 6
9031 8
9032 24
9033 10
9034 54
9035 8
9036 37
9037 10
9038 0
9039 8
9040 4
9041 38
9042 26
9043 38
9044 23
9045 45
9046 49
9047 48
9048 31
9049 55
9050 18
9051 11
9052 38
9053 48
9054 52
9055 5
9056 37
9057 15
9058 51
9059 50
9060 45
9061 24
9062 44
9063 27
9064 7
9065 43
9066 25
9067 47
9068 41
9069 30
9070 28
9071 3
9072 24
9073 37
9074 4
9075 17
9076 36
9077 19
9078 30
9079 4
9080 14
9081 24
9082 38
9083 22
9084 23
9085 13
9086 1
9087 18
9088 18
9089 49
9090 28
9091 46
9092 14
9093 12
9094 31
9095 3
9096 12
9097 6
9098 52
9099 8
9100 44
9101 50
9102 39
9103 2
9104 13
9105 23
9106 28
9107 39
9108 15
9109 35
9110 23
9111 2
9112 19
9113 3
9114 10
9115 20
9116 38
9117 8
9118 19
9119 47
9120 32
9121 8
9122 6
9123 24
9124 22
9125 1
9126 5
9127 15
9128 35
9129 29
9130 46
9131 44
9132 27
9133 18
9134 29
9135 0
9136 31
9137 12
9138 3
9139 27
9140 47
9141 52
9142 14
9143 38
9144 39
9145 3
9146 43
9147 10
9148 18
9149 51
9150 29
9151 39
9152 21
9153 39
9154 19
9155 42
9156 1
9157 20
9158 21
9159 35
9160 12
9161 8
9162 12
9163 44
9164 16
9165 30
9166 4
9167 4
9168 30
9169 8
9170 39
9171 30
9172 10
9173 0
9174 27
9175 24
9176 14
9177 28
9178 39
9179 31
9180 52
9181 6
9182 12
9183 24
9184 7
9185 23
9186 30
9187 10
9188 9
9189 17
9190 24
9191 17
9192 31
9193 6
9194 18
9195 20
9196 35
9197 52
9198 13
9199 47
9200 52
9201 37
9202 30
9203 7
9204 11
9205 23
9206 49
9207 27
9208 34
9209 48
9210 11
9211 26
9212 20
9213 31
9214 27
9215 19
9216 42
9217 43
9218 14
9219 30
9220 52
9221 15
9222 0
9223 15
9224 23
9225 6
9226 28
9227 39
9228 28
9229 30
9230 36
9231 39
9232 18
9233 10
9234 4
9235 8
9236 38
9237 29
9238 12
9239 10
9240 32
9241 46
9242 50
9243 30
9244 25
9245 28
9246 24
9247 2
9248 2
9249 54
9250 18
9251 43
9252 43
9253 23
9254 41
9255 1
9256 29
9257 4
9258 35
9259 10
9260 34
9261 24
9262 45
9263 17
9264 36
9265 31
9266 26
9267 55
9268 33
9269 7
9270 6
9271 32
9272 11
9273 25
9274 16
9275 41
9276 38
9277 29
9278 3
9279 12
9280 10
9281 31
9282 32
9283 6
9284 27
9285 35
9286 31
9287 29
9288 6
9289 35
9290 24
9291 4
9292 29
9293 0
9294 31
9295 23
9296 31
9297 49
9298 24
9299 29
9300 30
9301 30
9302 23
9303 40
9304 55
9305 10
9306 14
9307 32
9308 48
9309 14
9310 21
9311 4
9312 17
9313 51
9314 31
9315 18
9316 16
9317 27
9318 32
9319 46
9320 33
9321 1
9322 13
9323 4
9324 23
9325 52
9326 6
9327 15
9328 10
9329 53
9330 4
9331 4
9332 52
9333 12
9334 32
9335 37
9336 5
9337 38
9338 41
9339 24
9340 36
9341 34
9342 39
9343 4
9344 13
9345 8
9346 1
9347 31
9348 24
9349 2
9350 19
9351 31
9352 23
9353 55
9354 17
9355 49
9356 28
9357 21
9358 54
9359 6
9360 1
9361 15
9362 39
9363 29
9364 31
9365 29
9366 38
9367 6
9368 30
9369 6
9370 5
9371 11
9372 3
9373 9
9374 6
9375 35
9376 12
9377 3
9378 23
9379 23
9380 19
9381 35
9382 16
9383 11
9384 16
9385 5
9386 32
9387 10
9388 33
9389 15
9390 35
9391 18
9392 12
9393 44
9394 46
9395 6
9396 11
9397 31
9398 50
9399 0
9400 28
9401 6
9402 5
9403 12
9404 11
9405 43
9406 34
9407 41
9408 48
9409 11
9410 29
9411 6
9412 49
9413 10
9414 13
9415 40
9416 18
9417 12
9418 12
9419 35
9420 39
9421 29
9422 38
9423 9
9424 25
9425 10
9426 40
9427 10
9428 17
9429 19
9430 31
9431 25
9432 45
9433 42
9434 24
9435 51
9436 9
9437 49
9438 42
9439 39
9440 40
9441 21
9442 12
9443 8
9444 9
9445 14
9446 39
9447 24
9448 19
9449 39
9450 29
9451 42
9452 30
9453 2
9454 4
9455 30
9456 50
9457 23
9458 33
9459 13
9460 38
9461 20
9462 43
9463 0
9464 52
9465 32
9466 43
9467 32
9468 24
9469 35
9470 29
9471 54
9472 39
9473 23
9474 22
9475 54
9476 3
9477 21
9478 55
9479 40
9480 20
9481 19
9482 12
9483 26
9484 54
9485 1
9486 49
9487 14
9488 25
9489 29
9490 43
9491 24
9492 30
9493 15
9494 10
9495 3
9496 35
9497 41
9498 48
9499 12
9500 43
9501 1
9502 43
9503 3
9504 42
9505 0
9506 46
9507 19
9508 18
9509 19
9510 7
9511 32
9512 11
9513 32
9514 43
9515 24
9516 1
9517 10
9518 43
9519 8
9520 38
9521 20
9522 24
9523 6
9524 32
9525 6
9526 1
9527 12
9528 6
9529 18
9530 8
9531 45
9532 30
9533 30
9534 22
9535 45
9536 16
9537 32
9538 34
9539 20
9540 54
9541 50
9542 49
9543 10
9544 0
9545 51
9546 8
9547 32
9548 24
9549 45
9550 18
9551 50
9552 20
9553 43
9554 54
9555 27
9556 42
9557 50
9558 39
9559 50
9560 22
9561 10
9562 49
9563 0
9564 29
9565 55
9566 1
9567 25
9568 23
9569 18
9570 49
9571 17
9572 17
9573 32
9574 34
9575 9
9576 34
9577 5
9578 15
9579 0
9580 0
9581 9
9582 51
9583 43
9584 30
9585 35
9586 9
9587 23
9588 28
9589 38
9590 5
9591 18
9592 23
9593 28
9594 30
9595 45
9596 5
9597 0
9598 10
9599 40
9600 1
9601 8
9602 14
9603 41
9604 38
9605 6
9606 17
9607 8
9608 23
9609 31
9610 14
9611 48
9612 31
9613 36
9614 32
9615 37
9616 36
9617 31
9618 19
9619 10
9620 47
9621 42
9622 29
9623 19
9624 3
9625 8
9626 37
9627 32
9628 54
9629 10
9630 8
9631 2
9632 35
9633 27
9634 32
9635 38
9636 31
9637 32
9638 33
9639 38
9640 50
9641 9
9642 10
9643 16
9644 33
9645 4
9646 18
9647 3
9648 37
9649 20
9650 6
9651 6
9652 38
9653 30
9654 46
9655 29
9656 52
9657 31
9658 18
9659 31
9660 17
9661 25
9662 48
9663 25
9664 22
9665 9
9666 43
9667 29
9668 54
9669 20
9670 6
9671 29
9672 38
9673 5
9674 24
9675 10
9676 6
9677 43
9678 28
9679 38
9680 25
9681 37
9682 35
9683 0
9684 0
9685 9
9686 32
9687 4
9688 39
9689 10
9690 52
9691 4
9692 30
9693 22
9694 31
9695 26
9696 7
9697 18
9698 31
9699 1
9700 19
9701 15
9702 46
9703 49
9704 35
9705 31
9706 1
9707 22
9708 36
9709 9
9710 14
9711 43
9712 36
9713 40
9714 43
9715 30
9716 49
9717 49
9718 12
9719 22
9720 11
9721 3
9722 6
9723 8
9724 17
9725 22
9726 12
9727 27
9728 8
9729 51
9730 9
9731 25
9732 8
9733 52
9734 2
9735 4
9736 6
9737 1
9738 9
9739 5
9740 47
9741 13
9742 18
9743 40
9744 10
9745 13
9746 43
9747 48
9748 46
9749 52
9750 18
9751 25
9752 54
9753 52
9754 50
9755 24
9756 54
9757 39
9758 5
9759 38
9760 5
9761 18
9762 14
9763 9
9764 46
9765 11
9766 27
9767 6
9768 18
9769 8
9770 7
9771 20
9772 43
9773 49
9774 54
9775 25
9776 55
9777 32
9778 29
9779 52
9780 19
9781 52
9782 46
9783 22
9784 44
9785 5
9786 23
9787 33
9788 34
9789 24
9790 45
9791 28
9792 21
9793 1
9794 45
9795 20
9796 24
9797 54
9798 9
9799 12
9800 38
9801 4
9802 43
9803 31
9804 4
9805 10
9806 1
9807 26
9808 30
9809 34
9810 31
9811 52
9812 35
9813 45
9814 45
9815 38
9816 24
9817 32
9818 13
9819 35
9820 54
9821 37
9822 37
9823 4
9824 8
9825 38
9826 47
9827 51
9828 29
9829 14
9830 32
9831 34
9832 36
9833 3
9834 40
9835 32
9836 39
9837 48
9838 37
9839 38
9840 50
9841 29
9842 50
9843 20
9844 49
9845 17
9846 49
9847 50
9848 8
9849 1
9850 3
9851 14
9852 25
9853 34
9854 27
9855 34
9856 34
9857 37
9858 52
9859 7
9860 55
9861 20
9862 29
9863 4
9864 10
9865 0
9866 45
9867 28
9868 39
9869 22
9870 29
9871 9
9872 10
9873 19
9874 2
9875 3
9876 14
9877 7
9878 35
9879 55
9880 6
9881 24
9882 11
9883 47
9884 4
9885 8
9886 7
9887 26
9888 40
9889 39
9890 3
9891 34
9892 43
9893 11
9894 31
9895 24
9896 4
9897 35
9898 17
9899 6
9900 31
9901 6
9902 13
9903 4
9904 25
9905 24
9906 21
9907 6
9908 3
9909 10
9910 32
9911 38
9912 11
9913 12
9914 7
9915 22
9916 29
9917 29
9918 35
9919 46
9920 37
9921 48
9922 31
9923 32
9924 0
9925 52
9926 9
9927 39
9928 29
9929 24
9930 50
9931 6
9932 24
9933 54
9934 18
9935 55
9936 10
9937 40
9938 15
9939 5
9940 34
9941 47
9942 10
9943 0
9944 30
9945 24
9946 12
9947 28
9948 6
9949 39
9950 10
9951 8
9952 37
9953 51
9954 21
9955 51
9956 33
9957 41
9958 38
9959 18
9960 47
9961 33
9962 25
9963 28
9964 27
9965 32
9966 14
9967 52
9968 10
9969 43
9970 6
9971 21
9972 28
9973 36
9974 1
9975 8
9976 6
9977 12
9978 11
9979 18
9980 15
9981 10
9982 38
9983 39
9984 51
9985 54
9986 16
9987 12
9988 12
9989 0
9990 42
9991 5
9992 37
9993 30
9994 24
9995 45
9996 51
9997 44
9998 13
9999 42
