0 0
1 1
2 2
3 3
4 4
5 5
6 5
7 6
8 7
9 8
10 2
11 9
12 9
13 10
14 11
15 12
16 13
17 14
18 15
19 5
20 0
21 16
22 6
23 17
24 18
25 19
26 0
27 20
28 5
29 21
30 20
31 22
32 23
33 24
34 9
35 25
36 5
37 26
38 27
39 28
40 8
41 4
42 27
43 12
44 6
45 29
46 10
47 30
48 19
49 31
50 26
51 32
52 7
53 33
54 0
55 34
56 17
57 24
58 30
59 35
60 20
61 36
62 37
63 15
64 27
65 7
66 32
67 38
68 31
69 24
70 31
71 36
72 15
73 39
74 14
75 40
76 36
77 41
78 29
79 35
80 14
81 42
82 30
83 7
84 36
85 42
86 37
87 12
88 9
89 33
90 20
91 24
92 33
93 39
94 1
95 33
96 43
97 29
98 44
99 45
100 9
101 9
102 38
103 17
104 41
105 39
106 46
107 27
108 43
109 0
110 32
111 47
112 48
113 45
114 34
115 36
116 27
117 9
118 26
119 34
120 30
121 1
122 34
123 7
124 5
125 14
126 10
127 47
128 9
129 30
130 32
131 6
132 17
133 18
134 41
135 27
136 39
137 49
138 7
139 17
140 50
141 24
142 30
143 44
144 2
145 3
146 51
147 51
148 1
149 39
150 5
151 50
152 26
153 42
154 21
155 47
156 25
157 30
158 7
159 34
160 32
161 23
162 7
163 9
164 34
165 11
166 48
167 52
168 27
169 25
170 9
171 38
172 2
173 28
174 4
175 30
176 25
177 27
178 27
179 29
180 42
181 53
182 14
183 3
184 8
185 30
186 51
187 29
188 32
189 53
190 25
191 49
192 12
193 27
194 43
195 46
196 1
197 26
198 4
199 21
200 16
201 11
202 11
203 37
204 53
205 2
206 45
207 34
208 27
209 5
210 7
211 33
212 10
213 35
214 44
215 49
216 29
217 53
218 33
219 35
220 54
221 1
222 27
223 36
224 12
225 43
226 39
227 37
228 23
229 34
230 5
231 32
232 4
233 8
234 33
235 49
236 27
237 14
238 33
239 5
240 52
241 0
242 47
243 8
244 27
245 15
246 27
247 27
248 31
249 24
250 39
251 15
252 16
253 40
254 3
255 55
256 12
257 39
258 47
259 7
260 21
261 48
262 1
263 30
264 14
265 2
266 6
267 46
268 36
269 39
270 6
271 44
272 7
273 0
274 39
275 5
276 9
277 37
278 51
279 25
280 54
281 12
282 29
283 25
284 45
285 16
286 3
287 31
288 31
289 12
290 0
291 9
292 13
293 9
294 13
295 21
296 21
297 50
298 23
299 39
300 37
301 1
302 38
303 34
304 26
305 32
306 44
307 9
308 35
309 5
310 35
311 11
312 28
313 21
314 29
315 34
316 24
317 47
318 52
319 26
320 14
321 23
322 12
323 30
324 1
325 4
326 44
327 15
328 11
329 18
330 45
331 14
332 14
333 34
334 43
335 38
336 0
337 41
338 32
339 18
340 48
341 24
342 8
343 27
344 7
345 7
346 44
347 26
348 22
349 3
350 28
351 11
352 41
353 38
354 14
355 20
356 34
357 23
358 51
359 5
360 44
361 3
362 54
363 53
364 9
365 39
366 47
367 42
368 2
369 0
370 11
371 39
372 52
373 36
374 17
375 25
376 51
377 49
378 33
379 0
380 18
381 37
382 17
383 13
384 21
385 53
386 7
387 33
388 51
389 13
390 9
391 12
392 0
393 26
394 31
395 29
396 45
397 44
398 38
399 46
400 32
401 14
402 48
403 35
404 45
405 47
406 14
407 7
408 30
409 22
410 27
411 56
412 45
413 14
414 3
415 1
416 13
417 39
418 51
419 46
420 15
421 13
422 39
423 8
424 47
425 7
426 33
427 2
428 25
429 16
430 32
431 45
432 46
433 52
434 43
435 53
436 9
437 9
438 16
439 10
440 25
441 12
442 21
443 4
444 34
445 25
446 14
447 0
448 1
449 24
450 55
451 9
452 31
453 19
454 35
455 42
456 24
457 11
458 35
459 9
460 24
461 7
462 10
463 14
464 33
465 5
466 13
467 1
468 23
469 34
470 4
471 52
472 39
473 56
474 31
475 13
476 27
477 13
478 47
479 29
480 33
481 47
482 56
483 8
484 26
485 43
486 49
487 4
488 35
489 23
490 41
491 14
492 26
493 52
494 39
495 55
496 23
497 24
498 45
499 39
500 3
501 7
502 6
503 8
504 13
505 28
506 16
507 14
508 44
509 41
510 25
511 14
512 24
513 33
514 49
515 10
516 25
517 47
518 15
519 25
520 57
521 48
522 44
523 1
524 12
525 44
526 45
527 54
528 37
529 8
530 47
531 41
532 39
533 13
534 47
535 55
536 12
537 31
538 6
539 9
540 51
541 26
542 0
543 51
544 49
545 32
546 9
547 17
548 39
549 27
550 52
551 17
552 49
553 12
554 11
555 4
556 29
557 22
558 29
559 28
560 28
561 11
562 52
563 25
564 34
565 45
566 40
567 37
568 35
569 25
570 28
571 5
572 0
573 12
574 46
575 22
576 3
577 53
578 30
579 32
580 44
581 5
582 5
583 13
584 4
585 17
586 27
587 36
588 36
589 12
590 4
591 26
592 50
593 24
594 15
595 23
596 7
597 27
598 48
599 44
600 8
601 51
602 34
603 19
604 12
605 19
606 57
607 12
608 24
609 0
610 24
611 8
612 28
613 23
614 1
615 54
616 21
617 26
618 32
619 24
620 11
621 52
622 33
623 27
624 31
625 35
626 5
627 45
628 23
629 5
630 11
631 39
632 44
633 0
634 51
635 11
636 11
637 49
638 21
639 49
640 8
641 11
642 26
643 8
644 27
645 49
646 29
647 6
648 51
649 43
650 16
651 55
652 43
653 5
654 19
655 17
656 25
657 44
658 41
659 19
660 51
661 14
662 32
663 10
664 18
665 42
666 14
667 9
668 11
669 51
670 9
671 52
672 7
673 9
674 51
675 45
676 19
677 14
678 25
679 37
680 57
681 43
682 23
683 42
684 44
685 38
686 28
687 3
688 51
689 0
690 14
691 12
692 52
693 27
694 52
695 19
696 54
697 3
698 0
699 47
700 0
701 10
702 50
703 5
704 28
705 17
706 1
707 25
708 48
709 22
710 0
711 20
712 21
713 28
714 37
715 38
716 20
717 8
718 54
719 44
720 7
721 52
722 32
723 49
724 24
725 18
726 12
727 48
728 14
729 37
730 39
731 0
732 39
733 51
734 45
735 5
736 5
737 42
738 23
739 5
740 37
741 44
742 0
743 37
744 2
745 26
746 11
747 14
748 31
749 24
750 35
751 34
752 22
753 36
754 54
755 25
756 4
757 9
758 40
759 53
760 41
761 23
762 49
763 3
764 19
765 34
766 12
767 49
768 24
769 10
770 23
771 14
772 4
773 57
774 3
775 53
776 8
777 42
778 31
779 44
780 56
781 56
782 8
783 6
784 36
785 13
786 52
787 24
788 9
789 1
790 29
791 21
792 48
793 52
794 13
795 40
796 50
797 34
798 39
799 53
800 0
801 9
802 9
803 5
804 7
805 36
806 48
807 43
808 34
809 22
810 34
811 54
812 11
813 34
814 56
815 48
816 37
817 27
818 18
819 53
820 37
821 17
822 44
823 11
824 39
825 39
826 48
827 37
828 5
829 26
830 34
831 29
832 10
833 17
834 7
835 13
836 15
837 24
838 5
839 8
840 25
841 2
842 27
843 42
844 18
845 14
846 26
847 8
848 45
849 8
850 36
851 19
852 51
853 43
854 42
855 14
856 41
857 49
858 0
859 52
860 53
861 15
862 4
863 21
864 14
865 2
866 9
867 31
868 1
869 7
870 19
871 46
872 49
873 15
874 34
875 51
876 25
877 20
878 42
879 5
880 10
881 52
882 47
883 9
884 44
885 34
886 15
887 53
888 1
889 35
890 24
891 13
892 9
893 17
894 57
895 18
896 0
897 25
898 13
899 7
900 44
901 22
902 11
903 34
904 33
905 0
906 7
907 32
908 57
909 26
910 11
911 14
912 49
913 43
914 10
915 42
916 24
917 11
918 51
919 12
920 9
921 0
922 14
923 7
924 16
925 1
926 9
927 52
928 46
929 49
930 31
931 34
932 44
933 7
934 52
935 56
936 24
937 15
938 34
939 10
940 39
941 13
942 32
943 26
944 39
945 12
946 25
947 18
948 31
949 7
950 54
951 51
952 27
953 16
954 7
955 40
956 27
957 19
958 39
959 31
960 40
961 3
962 20
963 2
964 22
965 28
966 43
967 6
968 11
969 41
970 51
971 1
972 50
973 51
974 23
975 20
976 9
977 47
978 12
979 11
980 2
981 55
982 9
983 49
984 13
985 26
986 29
987 11
988 2
989 18
990 33
991 7
992 32
993 47
994 6
995 43
996 16
997 20
998 29
999 40
1000 11
1001 7
1002 54
1003 22
1004 7
1005 57
1006 39
1007 22
1008 29
1009 11
1010 4
1011 39
1012 46
1013 14
1014 51
1015 48
1016 47
1017 41
1018 30
1019 45
1020 20
1021 32
1022 3
1023 1
1024 34
1025 39
1026 26
1027 44
1028 30
1029 6
1030 17
1031 44
1032 26
1033 21
1034 25
1035 38
1036 15
1037 17
1038 48
1039 44
1040 7
1041 34
1042 36
1043 31
1044 20
1045 30
1046 5
1047 19
1048 17
1049 42
1050 2
1051 30
1052 1
1053 0
1054 50
1055 8
1056 37
1057 43
1058 6
1059 3
1060 3
1061 9
1062 22
1063 20
1064 12
1065 48
1066 21
1067 47
1068 3
1069 47
1070 44
1071 12
1072 51
1073 55
1074 43
1075 52
1076 30
1077 37
1078 19
1079 36
1080 13
1081 57
1082 5
1083 8
1084 5
1085 11
1086 53
1087 41
1088 35
1089 49
1090 16
1091 26
1092 47
1093 44
1094 19
1095 34
1096 26
1097 28
1098 9
1099 7
1100 5
1101 12
1102 55
1103 28
1104 51
1105 52
1106 3
1107 50
1108 25
1109 47
1110 37
1111 52
1112 6
1113 45
1114 8
1115 55
1116 17
1117 45
1118 38
1119 33
1120 5
1121 28
1122 26
1123 24
1124 43
1125 13
1126 3
1127 37
1128 19
1129 21
1130 43
1131 52
1132 25
1133 19
1134 42
1135 29
1136 9
1137 44
1138 33
1139 9
1140 28
1141 47
1142 3
1143 33
1144 34
1145 22
1146 8
1147 16
1148 15
1149 1
1150 39
1151 29
1152 47
1153 11
1154 43
1155 3
1156 52
1157 14
1158 50
1159 3
1160 37
1161 50
1162 33
1163 32
1164 9
1165 26
1166 39
1167 40
1168 23
1169 41
1170 15
1171 9
1172 21
1173 14
1174 20
1175 6
1176 8
1177 1
1178 2
1179 38
1180 16
1181 36
1182 12
1183 27
1184 28
1185 57
1186 18
1187 34
1188 28
1189 18
1190 30
1191 54
1192 12
1193 45
1194 56
1195 24
1196 10
1197 48
1198 33
1199 9
1200 51
1201 3
1202 39
1203 5
1204 4
1205 24
1206 56
1207 21
1208 33
1209 14
1210 39
1211 31
1212 21
1213 35
1214 22
1215 39
1216 51
1217 26
1218 45
1219 13
1220 6
1221 57
1222 13
1223 50
1224 28
1225 14
1226 53
1227 39
1228 22
1229 43
1230 48
1231 34
1232 46
1233 11
1234 15
1235 18
1236 47
1237 29
1238 24
1239 36
1240 45
1241 9
1242 12
1243 27
1244 47
1245 40
1246 6
1247 30
1248 37
1249 43
1250 9
1251 48
1252 27
1253 8
1254 52
1255 15
1256 51
1257 45
1258 12
1259 6
1260 8
1261 9
1262 22
1263 1
1264 9
1265 57
1266 29
1267 24
1268 57
1269 33
1270 25
1271 29
1272 30
1273 18
1274 46
1275 36
1276 17
1277 11
1278 15
1279 14
1280 37
1281 10
1282 10
1283 1
1284 31
1285 43
1286 43
1287 9
1288 12
1289 26
1290 47
1291 34
1292 9
1293 23
1294 10
1295 35
1296 21
1297 16
1298 12
1299 48
1300 43
1301 27
1302 1
1303 6
1304 53
1305 43
1306 33
1307 27
1308 6
1309 5
1310 37
1311 27
1312 31
1313 12
1314 37
1315 32
1316 27
1317 16
1318 44
1319 57
1320 48
1321 50
1322 33
1323 33
1324 43
1325 31
1326 39
1327 10
1328 48
1329 38
1330 9
1331 3
1332 5
1333 40
1334 3
1335 37
1336 25
1337 44
1338 54
1339 39
1340 46
1341 3
1342 5
1343 49
1344 8
1345 22
1346 55
1347 39
1348 6
1349 47
1350 3
1351 28
1352 9
1353 2
1354 51
1355 2
1356 52
1357 37
1358 52
1359 11
1360 42
1361 33
1362 33
1363 23
1364 34
1365 52
1366 44
1367 3
1368 35
1369 39
1370 14
1371 37
1372 24
1373 13
1374 50
1375 7
1376 2
1377 52
1378 0
1379 5
1380 15
1381 51
1382 28
1383 3
1384 0
1385 0
1386 0
1387 37
1388 6
1389 26
1390 5
1391 3
1392 0
1393 28
1394 34
1395 0
1396 48
1397 10
1398 11
1399 11
1400 27
1401 3
1402 39
1403 7
1404 49
1405 24
1406 25
1407 47
1408 27
1409 24
1410 43
1411 23
1412 7
1413 12
1414 31
1415 18
1416 24
1417 34
1418 9
1419 23
1420 37
1421 2
1422 34
1423 9
1424 32
1425 27
1426 5
1427 10
1428 26
1429 25
1430 54
1431 9
1432 35
1433 34
1434 18
1435 52
1436 26
1437 15
1438 7
1439 31
1440 46
1441 53
1442 44
1443 55
1444 12
1445 46
1446 14
1447 47
1448 9
1449 56
1450 11
1451 24
1452 19
1453 31
1454 12
1455 24
1456 13
1457 0
1458 46
1459 39
1460 50
1461 47
1462 24
1463 7
1464 42
1465 44
1466 21
1467 19
1468 4
1469 38
1470 30
1471 36
1472 2
1473 52
1474 7
1475 49
1476 14
1477 36
1478 17
1479 20
1480 20
1481 36
1482 17
1483 14
1484 2
1485 42
1486 27
1487 57
1488 24
1489 5
1490 0
1491 37
1492 11
1493 18
1494 7
1495 5
1496 21
1497 27
1498 37
1499 34
1500 34
1501 44
1502 42
1503 13
1504 24
1505 49
1506 21
1507 14
1508 34
1509 49
1510 29
1511 18
1512 45
1513 18
1514 19
1515 36
1516 39
1517 24
1518 17
1519 44
1520 45
1521 34
1522 35
1523 11
1524 28
1525 11
1526 34
1527 37
1528 10
1529 18
1530 28
1531 17
1532 7
1533 21
1534 8
1535 23
1536 16
1537 32
1538 7
1539 10
1540 15
1541 25
1542 11
1543 50
1544 57
1545 14
1546 38
1547 39
1548 10
1549 20
1550 33
1551 19
1552 42
1553 18
1554 0
1555 43
1556 0
1557 55
1558 38
1559 32
1560 47
1561 27
1562 15
1563 47
1564 43
1565 12
1566 5
1567 51
1568 1
1569 6
1570 50
1571 20
1572 15
1573 29
1574 3
1575 3
1576 43
1577 57
1578 19
1579 9
1580 42
1581 32
1582 14
1583 57
1584 15
1585 29
1586 14
1587 24
1588 14
1589 34
1590 40
1591 44
1592 10
1593 8
1594 30
1595 8
1596 52
1597 42
1598 6
1599 45
1600 50
1601 2
1602 12
1603 9
1604 57
1605 31
1606 0
1607 54
1608 12
1609 56
1610 29
1611 4
1612 30
1613 33
1614 10
1615 19
1616 39
1617 9
1618 1
1619 51
1620 36
1621 32
1622 8
1623 8
1624 51
1625 25
1626 32
1627 29
1628 45
1629 26
1630 14
1631 30
1632 24
1633 19
1634 40
1635 51
1636 20
1637 53
1638 31
1639 9
1640 46
1641 45
1642 25
1643 21
1644 18
1645 44
1646 16
1647 48
1648 35
1649 27
1650 23
1651 0
1652 20
1653 25
1654 1
1655 21
1656 42
1657 45
1658 42
1659 29
1660 22
1661 43
1662 29
1663 7
1664 47
1665 23
1666 56
1667 7
1668 14
1669 26
1670 7
1671 19
1672 11
1673 14
1674 25
1675 38
1676 38
1677 22
1678 52
1679 25
1680 42
1681 7
1682 15
1683 24
1684 6
1685 10
1686 40
1687 25
1688 5
1689 18
1690 51
1691 44
1692 39
1693 36
1694 1
1695 8
1696 47
1697 6
1698 35
1699 11
1700 26
1701 49
1702 20
1703 52
1704 24
1705 41
1706 43
1707 42
1708 29
1709 12
1710 30
1711 24
1712 57
1713 41
1714 57
1715 45
1716 45
1717 6
1718 38
1719 50
1720 41
1721 37
1722 31
1723 3
1724 5
1725 1
1726 21
1727 12
1728 23
1729 7
1730 19
1731 24
1732 23
1733 6
1734 12
1735 29
1736 3
1737 22
1738 11
1739 13
1740 25
1741 27
1742 0
1743 14
1744 36
1745 10
1746 50
1747 43
1748 43
1749 45
1750 49
1751 28
1752 1
1753 14
1754 30
1755 1
1756 20
1757 40
1758 35
1759 14
1760 44
1761 14
1762 25
1763 34
1764 10
1765 24
1766 55
1767 7
1768 29
1769 57
1770 18
1771 52
1772 12
1773 29
1774 24
1775 47
1776 28
1777 2
1778 45
1779 20
1780 38
1781 45
1782 19
1783 30
1784 19
1785 6
1786 3
1787 11
1788 41
1789 16
1790 2
1791 6
1792 54
1793 57
1794 57
1795 37
1796 9
1797 15
1798 30
1799 56
1800 14
1801 20
1802 40
1803 15
1804 45
1805 39
1806 45
1807 47
1808 7
1809 0
1810 3
1811 7
1812 49
1813 1
1814 49
1815 1
1816 54
1817 20
1818 18
1819 16
1820 11
1821 42
1822 28
1823 46
1824 34
1825 32
1826 45
1827 5
1828 47
1829 6
1830 14
1831 18
1832 10
1833 9
1834 42
1835 44
1836 36
1837 43
1838 24
1839 12
1840 17
1841 9
1842 18
1843 24
1844 14
1845 9
1846 34
1847 34
1848 29
1849 25
1850 55
1851 29
1852 8
1853 17
1854 2
1855 9
1856 42
1857 31
1858 50
1859 16
1860 31
1861 28
1862 14
1863 23
1864 27
1865 46
1866 5
1867 33
1868 12
1869 32
1870 2
1871 29
1872 54
1873 30
1874 16
1875 45
1876 23
1877 33
1878 4
1879 43
1880 8
1881 15
1882 10
1883 31
1884 21
1885 28
1886 7
1887 2
1888 25
1889 48
1890 42
1891 17
1892 52
1893 5
1894 8
1895 25
1896 30
1897 26
1898 30
1899 26
1900 49
1901 28
1902 52
1903 46
1904 18
1905 15
1906 8
1907 28
1908 30
1909 2
1910 15
1911 18
1912 11
1913 4
1914 14
1915 11
1916 51
1917 47
1918 13
1919 41
1920 49
1921 15
1922 4
1923 43
1924 18
1925 23
1926 51
1927 11
1928 18
1929 33
1930 57
1931 44
1932 3
1933 44
1934 11
1935 21
1936 24
1937 16
1938 23
1939 1
1940 12
1941 7
1942 5
1943 27
1944 38
1945 0
1946 42
1947 8
1948 29
1949 43
1950 6
1951 7
1952 26
1953 52
1954 11
1955 21
1956 27
1957 9
1958 14
1959 16
1960 7
1961 15
1962 11
1963 20
1964 51
1965 55
1966 44
1967 5
1968 39
1969 7
1970 36
1971 37
1972 9
1973 33
1974 9
1975 1
1976 14
1977 17
1978 32
1979 26
1980 48
1981 2
1982 53
1983 26
1984 43
1985 21
1986 13
1987 38
1988 11
1989 18
1990 52
1991 1
1992 32
1993 51
1994 51
1995 5
1996 1
1997 49
1998 50
1999 39
2000 18
2001 18
2002 15
2003 49
2004 1
2005 35
2006 53
2007 43
2008 10
2009 14
2010 6
2011 14
2012 17
2013 51
2014 39
2015 43
2016 46
2017 27
2018 27
2019 43
2020 18
2021 9
2022 36
2023 34
2024 45
2025 57
2026 5
2027 23
2028 32
2029 15
2030 22
2031 0
2032 32
2033 39
2034 43
2035 49
2036 25
2037 14
2038 22
2039 12
2040 23
2041 3
2042 31
2043 15
2044 52
2045 4
2046 35
2047 39
2048 52
2049 3
2050 15
2051 25
2052 15
2053 56
2054 9
2055 46
2056 39
2057 44
2058 14
2059 16
2060 22
2061 14
2062 6
2063 2
2064 45
2065 22
2066 48
2067 53
2068 23
2069 14
2070 42
2071 27
2072 23
2073 45
2074 9
2075 39
2076 25
2077 47
2078 28
2079 15
2080 17
2081 9
2082 42
2083 2
2084 16
2085 29
2086 37
2087 26
2088 40
2089 5
2090 56
2091 34
2092 21
2093 33
2094 48
2095 49
2096 51
2097 5
2098 15
2099 57
2100 32
2101 54
2102 5
2103 20
2104 5
2105 10
2106 45
2107 28
2108 25
2109 3
2110 45
2111 10
2112 35
2113 1
2114 32
2115 53
2116 9
2117 22
2118 7
2119 22
2120 45
2121 12
2122 9
2123 36
2124 44
2125 56
2126 41
2127 37
2128 7
2129 13
2130 50
2131 6
2132 50
2133 39
2134 40
2135 44
2136 40
2137 23
2138 39
2139 52
2140 21
2141 45
2142 4
2143 21
2144 57
2145 48
2146 33
2147 15
2148 36
2149 19
2150 18
2151 55
2152 27
2153 14
2154 51
2155 0
2156 53
2157 2
2158 22
2159 10
2160 3
2161 40
2162 0
2163 38
2164 18
2165 45
2166 11
2167 17
2168 52
2169 14
2170 21
2171 56
2172 1
2173 55
2174 30
2175 38
2176 23
2177 3
2178 15
2179 51
2180 0
2181 14
2182 12
2183 29
2184 9
2185 4
2186 24
2187 27
2188 2
2189 42
2190 13
2191 41
2192 7
2193 33
2194 22
2195 20
2196 0
2197 22
2198 24
2199 21
2200 20
2201 26
2202 35
2203 6
2204 28
2205 11
2206 1
2207 50
2208 25
2209 5
2210 17
2211 55
2212 29
2213 4
2214 32
2215 8
2216 11
2217 48
2218 41
2219 37
2220 11
2221 11
2222 22
2223 14
2224 13
2225 41
2226 39
2227 47
2228 21
2229 13
2230 12
2231 50
2232 21
2233 55
2234 17
2235 11
2236 14
2237 29
2238 55
2239 24
2240 9
2241 53
2242 34
2243 21
2244 57
2245 26
2246 53
2247 57
2248 50
2249 7
2250 15
2251 37
2252 55
2253 46
2254 51
2255 37
2256 29
2257 20
2258 9
2259 1
2260 20
2261 20
2262 54
2263 24
2264 39
2265 54
2266 25
2267 28
2268 45
2269 19
2270 6
2271 2
2272 46
2273 24
2274 14
2275 25
2276 40
2277 10
2278 4
2279 7
2280 0
2281 9
2282 11
2283 29
2284 9
2285 7
2286 21
2287 39
2288 9
2289 46
2290 23
2291 32
2292 38
2293 40
2294 34
2295 35
2296 44
2297 48
2298 14
2299 46
2300 29
2301 1
2302 51
2303 18
2304 25
2305 20
2306 2
2307 56
2308 17
2309 29
2310 14
2311 7
2312 48
2313 48
2314 26
2315 2
2316 5
2317 40
2318 34
2319 9
2320 42
2321 6
2322 39
2323 17
2324 14
2325 20
2326 29
2327 2
2328 26
2329 35
2330 31
2331 27
2332 5
2333 28
2334 54
2335 21
2336 21
2337 34
2338 49
2339 53
2340 33
2341 56
2342 39
2343 52
2344 24
2345 9
2346 31
2347 52
2348 27
2349 38
2350 5
2351 15
2352 1
2353 31
2354 44
2355 53
2356 44
2357 30
2358 15
2359 31
2360 25
2361 27
2362 8
2363 53
2364 16
2365 15
2366 29
2367 14
2368 24
2369 2
2370 29
2371 1
2372 16
2373 26
2374 50
2375 41
2376 12
2377 1
2378 23
2379 25
2380 52
2381 45
2382 9
2383 24
2384 33
2385 33
2386 19
2387 44
2388 52
2389 3
2390 7
2391 50
2392 16
2393 15
2394 12
2395 39
2396 52
2397 21
2398 34
2399 12
2400 27
2401 51
2402 14
2403 42
2404 24
2405 26
2406 32
2407 45
2408 21
2409 6
2410 33
2411 53
2412 39
2413 4
2414 57
2415 44
2416 11
2417 36
2418 7
2419 5
2420 30
2421 9
2422 49
2423 37
2424 12
2425 49
2426 13
2427 38
2428 20
2429 9
2430 29
2431 45
2432 20
2433 54
2434 35
2435 47
2436 14
2437 6
2438 34
2439 44
2440 48
2441 31
2442 47
2443 12
2444 24
2445 51
2446 10
2447 54
2448 50
2449 9
2450 28
2451 14
2452 29
2453 20
2454 3
2455 10
2456 46
2457 14
2458 10
2459 45
2460 50
2461 6
2462 11
2463 22
2464 22
2465 15
2466 9
2467 15
2468 52
2469 28
2470 37
2471 5
2472 55
2473 32
2474 52
2475 11
2476 0
2477 14
2478 51
2479 55
2480 24
2481 16
2482 28
2483 5
2484 26
2485 52
2486 13
2487 50
2488 41
2489 11
2490 2
2491 49
2492 4
2493 30
2494 0
2495 26
2496 3
2497 44
2498 27
2499 3
2500 53
2501 2
2502 52
2503 17
2504 31
2505 45
2506 55
2507 34
2508 55
2509 38
2510 30
2511 18
2512 1
2513 45
2514 30
2515 45
2516 44
2517 10
2518 27
2519 3
2520 10
2521 7
2522 14
2523 50
2524 12
2525 0
2526 11
2527 24
2528 38
2529 12
2530 5
2531 24
2532 23
2533 11
2534 25
2535 49
2536 14
2537 27
2538 14
2539 27
2540 47
2541 39
2542 2
2543 44
2544 27
2545 10
2546 52
2547 51
2548 16
2549 43
2550 1
2551 19
2552 11
2553 13
2554 51
2555 1
2556 2
2557 1
2558 18
2559 55
2560 33
2561 5
2562 52
2563 27
2564 36
2565 39
2566 0
2567 2
2568 16
2569 44
2570 53
2571 27
2572 5
2573 44
2574 24
2575 3
2576 17
2577 33
2578 38
2579 20
2580 3
2581 32
2582 6
2583 30
2584 34
2585 3
2586 2
2587 10
2588 3
2589 7
2590 49
2591 12
2592 7
2593 45
2594 51
2595 36
2596 21
2597 43
2598 54
2599 24
2600 36
2601 29
2602 12
2603 42
2604 48
2605 21
2606 35
2607 4
2608 42
2609 15
2610 51
2611 7
2612 51
2613 47
2614 27
2615 10
2616 16
2617 19
2618 19
2619 15
2620 0
2621 13
2622 45
2623 3
2624 15
2625 28
2626 2
2627 7
2628 57
2629 9
2630 21
2631 13
2632 18
2633 45
2634 11
2635 48
2636 48
2637 25
2638 27
2639 42
2640 57
2641 44
2642 20
2643 11
2644 18
2645 49
2646 18
2647 31
2648 39
2649 26
2650 37
2651 45
2652 54
2653 39
2654 32
2655 22
2656 12
2657 41
2658 44
2659 11
2660 31
2661 21
2662 31
2663 23
2664 12
2665 51
2666 48
2667 13
2668 0
2669 57
2670 5
2671 26
2672 39
2673 15
2674 18
2675 30
2676 22
2677 5
2678 23
2679 33
2680 52
2681 25
2682 52
2683 11
2684 1
2685 13
2686 36
2687 40
2688 7
2689 0
2690 14
2691 5
2692 39
2693 43
2694 24
2695 17
2696 44
2697 24
2698 20
2699 26
2700 29
2701 31
2702 30
2703 33
2704 50
2705 5
2706 42
2707 1
2708 55
2709 9
2710 0
2711 44
2712 22
2713 5
2714 16
2715 43
2716 40
2717 30
2718 53
2719 19
2720 17
2721 9
2722 1
2723 42
2724 32
2725 51
2726 18
2727 32
2728 44
2729 14
2730 5
2731 12
2732 49
2733 11
2734 18
2735 9
2736 28
2737 1
2738 42
2739 0
2740 6
2741 40
2742 2
2743 23
2744 0
2745 13
2746 3
2747 19
2748 53
2749 19
2750 18
2751 7
2752 34
2753 14
2754 37
2755 25
2756 49
2757 21
2758 12
2759 3
2760 57
2761 14
2762 7
2763 42
2764 51
2765 47
2766 55
2767 18
2768 39
2769 52
2770 28
2771 35
2772 45
2773 27
2774 43
2775 9
2776 27
2777 27
2778 34
2779 28
2780 43
2781 24
2782 29
2783 52
2784 26
2785 38
2786 12
2787 22
2788 40
2789 41
2790 23
2791 19
2792 3
2793 24
2794 14
2795 6
2796 56
2797 44
2798 1
2799 3
2800 26
2801 1
2802 55
2803 48
2804 36
2805 44
2806 55
2807 6
2808 18
2809 10
2810 26
2811 22
2812 51
2813 1
2814 48
2815 13
2816 43
2817 10
2818 4
2819 45
2820 23
2821 23
2822 5
2823 11
2824 44
2825 1
2826 51
2827 45
2828 47
2829 3
2830 7
2831 9
2832 44
2833 44
2834 24
2835 7
2836 28
2837 25
2838 8
2839 3
2840 20
2841 19
2842 22
2843 27
2844 50
2845 44
2846 9
2847 44
2848 30
2849 4
2850 7
2851 12
2852 11
2853 17
2854 11
2855 53
2856 10
2857 49
2858 24
2859 51
2860 15
2861 52
2862 27
2863 8
2864 11
2865 35
2866 2
2867 31
2868 47
2869 30
2870 11
2871 52
2872 57
2873 36
2874 22
2875 38
2876 37
2877 26
2878 27
2879 35
2880 1
2881 7
2882 27
2883 45
2884 36
2885 1
2886 28
2887 41
2888 39
2889 19
2890 5
2891 49
2892 44
2893 44
2894 24
2895 5
2896 36
2897 15
2898 32
2899 5
2900 38
2901 30
2902 42
2903 52
2904 47
2905 5
2906 3
2907 32
2908 47
2909 18
2910 43
2911 28
2912 16
2913 5
2914 37
2915 11
2916 23
2917 6
2918 21
2919 26
2920 50
2921 14
2922 41
2923 53
2924 12
2925 9
2926 30
2927 11
2928 19
2929 37
2930 56
2931 4
2932 52
2933 26
2934 7
2935 45
2936 51
2937 19
2938 11
2939 8
2940 42
2941 2
2942 28
2943 27
2944 9
2945 50
2946 30
2947 24
2948 38
2949 34
2950 27
2951 53
2952 29
2953 20
2954 34
2955 19
2956 2
2957 45
2958 28
2959 34
2960 6
2961 30
2962 29
2963 29
2964 12
2965 18
2966 43
2967 33
2968 21
2969 52
2970 8
2971 17
2972 11
2973 40
2974 21
2975 9
2976 22
2977 7
2978 22
2979 50
2980 9
2981 44
2982 45
2983 24
2984 17
2985 27
2986 0
2987 9
2988 23
2989 14
2990 11
2991 14
2992 49
2993 30
2994 38
2995 17
2996 55
2997 12
2998 56
2999 45
3000 1
3001 0
3002 3
3003 4
3004 7
3005 5
3006 51
3007 19
3008 15
3009 37
3010 17
3011 18
3012 20
3013 12
3014 5
3015 32
3016 10
3017 38
3018 18
3019 46
3020 21
3021 27
3022 52
3023 6
3024 51
3025 16
3026 51
3027 51
3028 46
3029 9
3030 28
3031 55
3032 24
3033 47
3034 47
3035 46
3036 31
3037 33
3038 18
3039 34
3040 18
3041 54
3042 21
3043 39
3044 40
3045 10
3046 55
3047 19
3048 7
3049 56
3050 7
3051 15
3052 27
3053 41
3054 43
3055 42
3056 23
3057 57
3058 20
3059 56
3060 24
3061 35
3062 39
3063 14
3064 0
3065 18
3066 32
3067 3
3068 31
3069 31
3070 42
3071 14
3072 4
3073 39
3074 48
3075 57
3076 21
3077 11
3078 7
3079 25
3080 30
3081 34
3082 43
3083 25
3084 14
3085 37
3086 0
3087 29
3088 42
3089 12
3090 26
3091 27
3092 0
3093 12
3094 32
3095 45
3096 31
3097 13
3098 49
3099 6
3100 14
3101 4
3102 12
3103 29
3104 21
3105 9
3106 0
3107 12
3108 14
3109 34
3110 4
3111 27
3112 38
3113 27
3114 18
3115 21
3116 50
3117 30
3118 27
3119 44
3120 49
3121 48
3122 48
3123 39
3124 22
3125 33
3126 39
3127 47
3128 52
3129 8
3130 51
3131 1
3132 8
3133 31
3134 26
3135 1
3136 47
3137 27
3138 42
3139 19
3140 5
3141 45
3142 33
3143 6
3144 44
3145 38
3146 28
3147 25
3148 57
3149 15
3150 54
3151 13
3152 3
3153 5
3154 48
3155 14
3156 43
3157 37
3158 22
3159 51
3160 18
3161 5
3162 21
3163 52
3164 55
3165 29
3166 52
3167 10
3168 29
3169 16
3170 53
3171 23
3172 2
3173 41
3174 57
3175 19
3176 41
3177 14
3178 52
3179 50
3180 23
3181 17
3182 37
3183 8
3184 17
3185 38
3186 20
3187 57
3188 32
3189 7
3190 42
3191 7
3192 13
3193 7
3194 37
3195 13
3196 5
3197 7
3198 3
3199 50
3200 42
3201 39
3202 51
3203 27
3204 21
3205 32
3206 2
3207 45
3208 1
3209 56
3210 5
3211 46
3212 48
3213 28
3214 4
3215 28
3216 14
3217 35
3218 55
3219 40
3220 10
3221 20
3222 33
3223 1
3224 26
3225 55
3226 53
3227 49
3228 3
3229 2
3230 48
3231 27
3232 49
3233 27
3234 19
3235 43
3236 1
3237 53
3238 18
3239 7
3240 19
3241 5
3242 22
3243 17
3244 2
3245 47
3246 13
3247 16
3248 29
3249 51
3250 35
3251 28
3252 27
3253 44
3254 50
3255 56
3256 34
3257 26
3258 3
3259 33
3260 3
3261 51
3262 36
3263 3
3264 0
3265 5
3266 19
3267 28
3268 14
3269 44
3270 33
3271 7
3272 18
3273 42
3274 48
3275 32
3276 31
3277 52
3278 34
3279 43
3280 4
3281 11
3282 25
3283 27
3284 49
3285 9
3286 47
3287 29
3288 50
3289 9
3290 24
3291 44
3292 50
3293 42
3294 47
3295 4
3296 54
3297 21
3298 44
3299 14
3300 18
3301 9
3302 30
3303 43
3304 20
3305 57
3306 32
3307 39
3308 3
3309 49
3310 1
3311 0
3312 38
3313 35
3314 47
3315 1
3316 11
3317 27
3318 25
3319 46
3320 11
3321 20
3322 39
3323 21
3324 16
3325 0
3326 5
3327 19
3328 54
3329 18
3330 15
3331 5
3332 56
3333 30
3334 27
3335 11
3336 43
3337 45
3338 57
3339 25
3340 10
3341 11
3342 3
3343 15
3344 10
3345 9
3346 19
3347 15
3348 12
3349 18
3350 3
3351 4
3352 6
3353 14
3354 14
3355 50
3356 27
3357 52
3358 15
3359 25
3360 39
3361 53
3362 47
3363 38
3364 48
3365 44
3366 31
3367 44
3368 31
3369 37
3370 7
3371 50
3372 34
3373 3
3374 29
3375 17
3376 39
3377 10
3378 12
3379 21
3380 26
3381 37
3382 55
3383 39
3384 35
3385 32
3386 19
3387 55
3388 24
3389 6
3390 15
3391 13
3392 7
3393 27
3394 26
3395 2
3396 44
3397 42
3398 57
3399 1
3400 32
3401 23
3402 47
3403 19
3404 26
3405 17
3406 35
3407 37
3408 12
3409 45
3410 57
3411 14
3412 12
3413 50
3414 48
3415 32
3416 7
3417 4
3418 24
3419 37
3420 13
3421 19
3422 9
3423 2
3424 14
3425 25
3426 4
3427 52
3428 47
3429 3
3430 44
3431 37
3432 3
3433 5
3434 38
3435 31
3436 31
3437 10
3438 57
3439 27
3440 5
3441 25
3442 25
3443 33
3444 42
3445 57
3446 0
3447 39
3448 39
3449 1
3450 29
3451 23
3452 1
3453 23
3454 49
3455 25
3456 4
3457 42
3458 37
3459 44
3460 6
3461 35
3462 55
3463 0
3464 12
3465 24
3466 7
3467 27
3468 56
3469 9
3470 35
3471 11
3472 7
3473 34
3474 25
3475 16
3476 30
3477 2
3478 22
3479 30
3480 51
3481 55
3482 14
3483 38
3484 53
3485 16
3486 49
3487 3
3488 52
3489 37
3490 45
3491 46
3492 57
3493 45
3494 1
3495 24
3496 1
3497 3
3498 43
3499 38
3500 18
3501 7
3502 12
3503 21
3504 14
3505 29
3506 43
3507 12
3508 9
3509 30
3510 36
3511 24
3512 18
3513 14
3514 23
3515 21
3516 46
3517 4
3518 8
3519 21
3520 18
3521 28
3522 3
3523 47
3524 3
3525 5
3526 53
3527 14
3528 4
3529 3
3530 22
3531 12
3532 39
3533 52
3534 52
3535 32
3536 26
3537 39
3538 53
3539 38
3540 12
3541 48
3542 44
3543 34
3544 39
3545 56
3546 53
3547 35
3548 44
3549 43
3550 44
3551 17
3552 49
3553 30
3554 28
3555 12
3556 25
3557 43
3558 25
3559 42
3560 47
3561 53
3562 19
3563 50
3564 14
3565 2
3566 51
3567 24
3568 27
3569 3
3570 49
3571 34
3572 19
3573 17
3574 44
3575 15
3576 32
3577 3
3578 52
3579 39
3580 52
3581 23
3582 5
3583 29
3584 47
3585 13
3586 15
3587 37
3588 9
3589 14
3590 10
3591 26
3592 39
3593 17
3594 44
3595 48
3596 49
3597 50
3598 52
3599 53
3600 17
3601 29
3602 13
3603 11
3604 56
3605 27
3606 0
3607 36
3608 36
3609 36
3610 12
3611 29
3612 43
3613 50
3614 9
3615 29
3616 3
3617 54
3618 29
3619 27
3620 16
3621 7
3622 52
3623 14
3624 18
3625 48
3626 0
3627 53
3628 48
3629 53
3630 44
3631 14
3632 44
3633 14
3634 34
3635 34
3636 16
3637 8
3638 14
3639 11
3640 8
3641 14
3642 30
3643 5
3644 48
3645 16
3646 1
3647 9
3648 32
3649 46
3650 35
3651 25
3652 6
3653 26
3654 28
3655 51
3656 39
3657 0
3658 11
3659 4
3660 53
3661 14
3662 18
3663 39
3664 12
3665 55
3666 9
3667 14
3668 10
3669 34
3670 2
3671 39
3672 14
3673 47
3674 23
3675 29
3676 0
3677 31
3678 6
3679 52
3680 19
3681 48
3682 20
3683 32
3684 7
3685 38
3686 46
3687 55
3688 34
3689 49
3690 50
3691 36
3692 18
3693 19
3694 25
3695 15
3696 11
3697 49
3698 52
3699 57
3700 26
3701 23
3702 27
3703 14
3704 3
3705 26
3706 11
3707 26
3708 20
3709 27
3710 24
3711 27
3712 16
3713 53
3714 14
3715 36
3716 39
3717 51
3718 15
3719 57
3720 30
3721 9
3722 36
3723 44
3724 28
3725 21
3726 57
3727 50
3728 52
3729 37
3730 18
3731 27
3732 49
3733 44
3734 3
3735 43
3736 22
3737 17
3738 31
3739 8
3740 40
3741 43
3742 4
3743 9
3744 51
3745 9
3746 46
3747 26
3748 39
3749 28
3750 36
3751 45
3752 16
3753 6
3754 40
3755 28
3756 15
3757 6
3758 5
3759 26
3760 37
3761 3
3762 29
3763 0
3764 28
3765 44
3766 12
3767 11
3768 5
3769 44
3770 27
3771 2
3772 14
3773 29
3774 14
3775 47
3776 18
3777 57
3778 12
3779 44
3780 20
3781 7
3782 41
3783 46
3784 34
3785 22
3786 53
3787 30
3788 34
3789 53
3790 48
3791 4
3792 39
3793 45
3794 11
3795 12
3796 35
3797 35
3798 34
3799 12
3800 11
3801 30
3802 9
3803 34
3804 55
3805 45
3806 38
3807 53
3808 37
3809 35
3810 38
3811 7
3812 31
3813 29
3814 34
3815 25
3816 20
3817 23
3818 2
3819 57
3820 31
3821 12
3822 24
3823 43
3824 44
3825 52
3826 11
3827 29
3828 42
3829 29
3830 8
3831 31
3832 47
3833 7
3834 31
3835 24
3836 50
3837 17
3838 12
3839 4
3840 10
3841 28
3842 37
3843 5
3844 36
3845 7
3846 41
3847 51
3848 6
3849 3
3850 27
3851 21
3852 55
3853 1
3854 18
3855 46
3856 50
3857 10
3858 1
3859 28
3860 16
3861 28
3862 44
3863 49
3864 34
3865 23
3866 43
3867 24
3868 7
3869 11
3870 38
3871 46
3872 11
3873 50
3874 26
3875 40
3876 55
3877 54
3878 43
3879 50
3880 23
3881 22
3882 25
3883 25
3884 25
3885 44
3886 11
3887 30
3888 36
3889 18
3890 18
3891 27
3892 48
3893 5
3894 13
3895 21
3896 11
3897 20
3898 45
3899 47
3900 42
3901 37
3902 25
3903 13
3904 8
3905 9
3906 56
3907 11
3908 7
3909 49
3910 27
3911 50
3912 37
3913 19
3914 8
3915 10
3916 39
3917 50
3918 2
3919 17
3920 2
3921 11
3922 5
3923 5
3924 49
3925 33
3926 26
3927 51
3928 29
3929 39
3930 48
3931 51
3932 53
3933 50
3934 0
3935 23
3936 43
3937 50
3938 27
3939 48
3940 40
3941 16
3942 57
3943 37
3944 26
3945 47
3946 10
3947 28
3948 35
3949 29
3950 56
3951 21
3952 50
3953 26
3954 35
3955 16
3956 33
3957 54
3958 28
3959 7
3960 48
3961 34
3962 11
3963 51
3964 1
3965 39
3966 29
3967 14
3968 5
3969 14
3970 0
3971 5
3972 6
3973 27
3974 51
3975 9
3976 42
3977 9
3978 1
3979 44
3980 31
3981 46
3982 9
3983 34
3984 5
3985 4
3986 22
3987 25
3988 19
3989 57
3990 46
3991 19
3992 42
3993 10
3994 25
3995 34
3996 7
3997 49
3998 8
3999 24
4000 52
4001 31
4002 6
4003 21
4004 56
4005 39
4006 0
4007 45
4008 9
4009 55
4010 49
4011 37
4012 30
4013 8
4014 49
4015 9
4016 51
4017 57
4018 44
4019 34
4020 47
4021 19
4022 31
4023 12
4024 15
4025 27
4026 23
4027 2
4028 27
4029 41
4030 33
4031 40
4032 19
4033 45
4034 24
4035 28
4036 37
4037 2
4038 27
4039 48
4040 11
4041 28
4042 22
4043 47
4044 50
4045 7
4046 8
4047 46
4048 55
4049 24
4050 52
4051 26
4052 36
4053 12
4054 21
4055 45
4056 8
4057 17
4058 26
4059 38
4060 42
4061 11
4062 23
4063 22
4064 27
4065 26
4066 56
4067 34
4068 19
4069 21
4070 46
4071 20
4072 26
4073 41
4074 25
4075 52
4076 18
4077 48
4078 3
4079 18
4080 24
4081 37
4082 4
4083 57
4084 14
4085 36
4086 39
4087 29
4088 32
4089 10
4090 39
4091 16
4092 36
4093 46
4094 52
4095 27
4096 33
4097 56
4098 38
4099 44
4100 56
4101 46
4102 18
4103 11
4104 51
4105 9
4106 25
4107 14
4108 51
4109 56
4110 36
4111 31
4112 9
4113 7
4114 12
4115 14
4116 32
4117 47
4118 57
4119 14
4120 19
4121 12
4122 0
4123 52
4124 41
4125 54
4126 51
4127 1
4128 32
4129 12
4130 51
4131 37
4132 54
4133 34
4134 31
4135 53
4136 13
4137 5
4138 22
4139 29
4140 11
4141 11
4142 33
4143 45
4144 35
4145 29
4146 34
4147 6
4148 11
4149 45
4150 9
4151 45
4152 46
4153 22
4154 52
4155 42
4156 50
4157 7
4158 36
4159 44
4160 3
4161 14
4162 53
4163 36
4164 26
4165 53
4166 12
4167 43
4168 20
4169 36
4170 17
4171 43
4172 4
4173 21
4174 22
4175 46
4176 50
4177 45
4178 5
4179 4
4180 27
4181 48
4182 1
4183 45
4184 49
4185 34
4186 52
4187 43
4188 47
4189 13
4190 15
4191 39
4192 25
4193 45
4194 29
4195 36
4196 48
4197 43
4198 39
4199 18
4200 55
4201 0
4202 22
4203 53
4204 53
4205 18
4206 29
4207 20
4208 29
4209 5
4210 21
4211 35
4212 0
4213 22
4214 47
4215 29
4216 25
4217 44
4218 32
4219 42
4220 22
4221 0
4222 55
4223 11
4224 5
4225 26
4226 11
4227 6
4228 54
4229 24
4230 44
4231 55
4232 35
4233 14
4234 11
4235 48
4236 15
4237 17
4238 39
4239 10
4240 5
4241 3
4242 4
4243 43
4244 33
4245 21
4246 15
4247 13
4248 31
4249 30
4250 50
4251 10
4252 46
4253 25
4254 3
4255 39
4256 39
4257 0
4258 1
4259 36
4260 49
4261 10
4262 0
4263 44
4264 29
4265 46
4266 11
4267 6
4268 27
4269 39
4270 49
4271 48
4272 8
4273 10
4274 28
4275 43
4276 5
4277 19
4278 23
4279 39
4280 1
4281 49
4282 20
4283 31
4284 45
4285 41
4286 13
4287 44
4288 20
4289 33
4290 35
4291 45
4292 36
4293 54
4294 20
4295 11
4296 5
4297 9
4298 3
4299 3
4300 3
4301 15
4302 28
4303 3
4304 25
4305 44
4306 33
4307 27
4308 14
4309 43
4310 18
4311 11
4312 44
4313 21
4314 36
4315 27
4316 5
4317 30
4318 5
4319 45
4320 52
4321 3
4322 27
4323 49
4324 53
4325 45
4326 51
4327 16
4328 21
4329 26
4330 12
4331 4
4332 49
4333 28
4334 50
4335 31
4336 44
4337 22
4338 21
4339 36
4340 9
4341 25
4342 5
4343 30
4344 32
4345 21
4346 17
4347 18
4348 28
4349 8
4350 18
4351 27
4352 4
4353 52
4354 57
4355 48
4356 20
4357 35
4358 42
4359 19
4360 35
4361 46
4362 9
4363 51
4364 45
4365 11
4366 47
4367 15
4368 46
4369 29
4370 14
4371 54
4372 38
4373 29
4374 33
4375 43
4376 9
4377 3
4378 38
4379 39
4380 3
4381 25
4382 7
4383 9
4384 15
4385 10
4386 30
4387 42
4388 26
4389 21
4390 7
4391 37
4392 9
4393 4
4394 25
4395 52
4396 4
4397 31
4398 31
4399 21
4400 13
4401 39
4402 26
4403 29
4404 44
4405 18
4406 39
4407 7
4408 21
4409 37
4410 14
4411 38
4412 7
4413 11
4414 26
4415 21
4416 21
4417 57
4418 49
4419 6
4420 16
4421 38
4422 7
4423 52
4424 20
4425 18
4426 3
4427 57
4428 4
4429 19
4430 49
4431 21
4432 11
4433 9
4434 53
4435 4
4436 51
4437 40
4438 17
4439 26
4440 15
4441 12
4442 43
4443 51
4444 49
4445 31
4446 18
4447 6
4448 20
4449 25
4450 39
4451 20
4452 29
4453 54
4454 54
4455 46
4456 36
4457 13
4458 32
4459 16
4460 19
4461 1
4462 51
4463 32
4464 50
4465 18
4466 14
4467 12
4468 14
4469 3
4470 52
4471 25
4472 9
4473 22
4474 35
4475 44
4476 37
4477 31
4478 4
4479 27
4480 3
4481 23
4482 30
4483 8
4484 57
4485 41
4486 12
4487 26
4488 23
4489 0
4490 21
4491 46
4492 49
4493 55
4494 26
4495 50
4496 48
4497 25
4498 17
4499 3
4500 14
4501 10
4502 2
4503 44
4504 29
4505 34
4506 20
4507 17
4508 15
4509 21
4510 55
4511 29
4512 26
4513 13
4514 44
4515 15
4516 37
4517 39
4518 54
4519 39
4520 25
4521 8
4522 10
4523 0
4524 2
4525 6
4526 12
4527 22
4528 49
4529 34
4530 19
4531 27
4532 53
4533 46
4534 39
4535 11
4536 44
4537 27
4538 49
4539 15
4540 25
4541 9
4542 17
4543 33
4544 12
4545 44
4546 12
4547 32
4548 5
4549 40
4550 13
4551 52
4552 20
4553 39
4554 53
4555 17
4556 50
4557 56
4558 21
4559 7
4560 51
4561 14
4562 52
4563 19
4564 5
4565 20
4566 33
4567 14
4568 50
4569 27
4570 21
4571 51
4572 56
4573 7
4574 13
4575 18
4576 12
4577 19
4578 31
4579 11
4580 24
4581 28
4582 40
4583 29
4584 53
4585 45
4586 48
4587 33
4588 4
4589 31
4590 31
4591 43
4592 38
4593 45
4594 25
4595 23
4596 11
4597 28
4598 38
4599 50
4600 18
4601 32
4602 54
4603 3
4604 0
4605 42
4606 20
4607 15
4608 20
4609 17
4610 15
4611 15
4612 0
4613 38
4614 39
4615 1
4616 30
4617 37
4618 4
4619 49
4620 9
4621 4
4622 41
4623 26
4624 36
4625 45
4626 24
4627 26
4628 21
4629 48
4630 14
4631 36
4632 41
4633 25
4634 22
4635 31
4636 35
4637 26
4638 35
4639 36
4640 52
4641 53
4642 31
4643 6
4644 8
4645 24
4646 17
4647 44
4648 16
4649 10
4650 34
4651 45
4652 40
4653 28
4654 23
4655 9
4656 0
4657 13
4658 27
4659 4
4660 19
4661 7
4662 33
4663 3
4664 31
4665 36
4666 52
4667 22
4668 52
4669 52
4670 36
4671 33
4672 57
4673 33
4674 15
4675 48
4676 8
4677 18
4678 29
4679 12
4680 42
4681 36
4682 33
4683 20
4684 21
4685 5
4686 18
4687 51
4688 25
4689 37
4690 41
4691 21
4692 26
4693 13
4694 55
4695 36
4696 31
4697 29
4698 35
4699 5
4700 19
4701 3
4702 4
4703 57
4704 19
4705 3
4706 2
4707 22
4708 43
4709 53
4710 51
4711 25
4712 15
4713 30
4714 50
4715 44
4716 34
4717 29
4718 12
4719 19
4720 43
4721 45
4722 2
4723 23
4724 33
4725 18
4726 3
4727 15
4728 14
4729 34
4730 50
4731 39
4732 39
4733 25
4734 57
4735 34
4736 42
4737 45
4738 6
4739 21
4740 14
4741 31
4742 23
4743 3
4744 2
4745 11
4746 39
4747 15
4748 54
4749 8
4750 57
4751 47
4752 42
4753 52
4754 30
4755 7
4756 20
4757 21
4758 25
4759 2
4760 9
4761 7
4762 25
4763 12
4764 37
4765 3
4766 14
4767 43
4768 4
4769 36
4770 11
4771 29
4772 30
4773 56
4774 11
4775 25
4776 14
4777 31
4778 41
4779 46
4780 37
4781 17
4782 53
4783 38
4784 43
4785 32
4786 52
4787 24
4788 24
4789 6
4790 56
4791 28
4792 9
4793 44
4794 49
4795 1
4796 5
4797 3
4798 12
4799 51
4800 44
4801 14
4802 5
4803 50
4804 52
4805 53
4806 29
4807 18
4808 44
4809 51
4810 47
4811 9
4812 7
4813 41
4814 24
4815 36
4816 30
4817 14
4818 19
4819 25
4820 34
4821 26
4822 5
4823 47
4824 22
4825 35
4826 0
4827 8
4828 29
4829 3
4830 11
4831 18
4832 4
4833 31
4834 25
4835 50
4836 1
4837 3
4838 3
4839 5
4840 9
4841 51
4842 51
4843 19
4844 6
4845 9
4846 14
4847 32
4848 27
4849 57
4850 9
4851 42
4852 10
4853 21
4854 6
4855 44
4856 4
4857 20
4858 55
4859 26
4860 23
4861 19
4862 56
4863 28
4864 14
4865 12
4866 11
4867 26
4868 15
4869 44
4870 11
4871 12
4872 28
4873 3
4874 51
4875 14
4876 16
4877 21
4878 23
4879 3
4880 4
4881 38
4882 22
4883 48
4884 47
4885 15
4886 52
4887 49
4888 37
4889 27
4890 8
4891 14
4892 14
4893 18
4894 3
4895 25
4896 5
4897 9
4898 29
4899 21
4900 55
4901 12
4902 24
4903 7
4904 7
4905 6
4906 26
4907 40
4908 7
4909 49
4910 39
4911 40
4912 43
4913 29
4914 9
4915 3
4916 49
4917 51
4918 3
4919 6
4920 55
4921 16
4922 44
4923 25
4924 41
4925 43
4926 21
4927 8
4928 51
4929 14
4930 24
4931 22
4932 31
4933 20
4934 7
4935 11
4936 56
4937 49
4938 25
4939 5
4940 27
4941 45
4942 9
4943 48
4944 15
4945 39
4946 14
4947 11
4948 5
4949 45
4950 57
4951 9
4952 40
4953 45
4954 9
4955 49
4956 5
4957 13
4958 15
4959 56
4960 17
4961 52
4962 28
4963 52
4964 34
4965 43
4966 30
4967 7
4968 11
4969 15
4970 33
4971 31
4972 27
4973 39
4974 29
4975 49
4976 5
4977 9
4978 24
4979 28
4980 45
4981 25
4982 7
4983 26
4984 35
4985 43
4986 19
4987 23
4988 48
4989 28
4990 29
4991 45
4992 28
4993 28
4994 8
4995 49
4996 17
4997 11
4998 41
4999 18
5000 19
5001 17
5002 13
5003 3
5004 28
5005 48
5006 49
5007 3
5008 51
5009 29
5010 49
5011 6
5012 6
5013 9
5014 57
5015 7
5016 30
5017 15
5018 25
5019 22
5020 12
5021 39
5022 12
5023 11
5024 44
5025 13
5026 32
5027 20
5028 31
5029 23
5030 17
5031 7
5032 24
5033 43
5034 43
5035 24
5036 17
5037 39
5038 14
5039 24
5040 28
5041 0
5042 31
5043 14
5044 57
5045 6
5046 57
5047 35
5048 19
5049 50
5050 18
5051 47
5052 16
5053 24
5054 29
5055 15
5056 57
5057 34
5058 14
5059 15
5060 26
5061 47
5062 22
5063 45
5064 19
5065 14
5066 19
5067 3
5068 33
5069 37
5070 25
5071 7
5072 0
5073 45
5074 3
5075 9
5076 5
5077 45
5078 50
5079 41
5080 45
5081 43
5082 44
5083 34
5084 35
5085 53
5086 29
5087 38
5088 5
5089 11
5090 47
5091 22
5092 25
5093 30
5094 14
5095 57
5096 52
5097 20
5098 45
5099 27
5100 14
5101 21
5102 49
5103 9
5104 37
5105 47
5106 4
5107 52
5108 16
5109 14
5110 21
5111 20
5112 17
5113 25
5114 24
5115 7
5116 43
5117 30
5118 6
5119 7
5120 25
5121 34
5122 3
5123 32
5124 55
5125 35
5126 21
5127 23
5128 0
5129 30
5130 17
5131 8
5132 52
5133 22
5134 34
5135 36
5136 49
5137 25
5138 4
5139 37
5140 9
5141 5
5142 4
5143 26
5144 19
5145 34
5146 2
5147 5
5148 4
5149 0
5150 57
5151 44
5152 33
5153 50
5154 51
5155 26
5156 37
5157 45
5158 3
5159 19
5160 33
5161 27
5162 35
5163 45
5164 42
5165 18
5166 14
5167 3
5168 5
5169 27
5170 34
5171 17
5172 9
5173 4
5174 38
5175 34
5176 38
5177 11
5178 15
5179 53
5180 0
5181 24
5182 6
5183 35
5184 43
5185 28
5186 7
5187 45
5188 31
5189 11
5190 16
5191 38
5192 21
5193 14
5194 57
5195 3
5196 46
5197 50
5198 19
5199 26
5200 51
5201 57
5202 7
5203 31
5204 6
5205 25
5206 29
5207 0
5208 29
5209 31
5210 53
5211 25
5212 29
5213 7
5214 9
5215 37
5216 14
5217 30
5218 45
5219 14
5220 51
5221 40
5222 4
5223 51
5224 46
5225 45
5226 5
5227 40
5228 34
5229 3
5230 15
5231 52
5232 12
5233 44
5234 39
5235 25
5236 52
5237 42
5238 29
5239 9
5240 36
5241 15
5242 13
5243 39
5244 43
5245 12
5246 22
5247 52
5248 40
5249 33
5250 40
5251 51
5252 28
5253 39
5254 8
5255 18
5256 45
5257 5
5258 30
5259 45
5260 10
5261 14
5262 44
5263 19
5264 14
5265 14
5266 12
5267 30
5268 37
5269 14
5270 21
5271 18
5272 43
5273 14
5274 49
5275 28
5276 29
5277 28
5278 27
5279 3
5280 24
5281 12
5282 9
5283 8
5284 14
5285 9
5286 51
5287 51
5288 28
5289 4
5290 9
5291 37
5292 13
5293 52
5294 22
5295 19
5296 34
5297 57
5298 54
5299 26
5300 21
5301 26
5302 0
5303 14
5304 0
5305 27
5306 16
5307 46
5308 13
5309 52
5310 9
5311 16
5312 12
5313 23
5314 33
5315 37
5316 51
5317 5
5318 14
5319 7
5320 25
5321 31
5322 11
5323 55
5324 45
5325 50
5326 45
5327 14
5328 30
5329 22
5330 15
5331 26
5332 41
5333 13
5334 52
5335 8
5336 46
5337 31
5338 52
5339 23
5340 18
5341 7
5342 14
5343 3
5344 50
5345 15
5346 0
5347 20
5348 46
5349 11
5350 28
5351 29
5352 51
5353 43
5354 41
5355 5
5356 47
5357 21
5358 9
5359 54
5360 14
5361 12
5362 52
5363 46
5364 5
5365 29
5366 25
5367 36
5368 29
5369 31
5370 45
5371 11
5372 16
5373 4
5374 11
5375 53
5376 7
5377 28
5378 11
5379 39
5380 23
5381 35
5382 17
5383 22
5384 44
5385 51
5386 37
5387 30
5388 20
5389 26
5390 21
5391 37
5392 34
5393 9
5394 12
5395 25
5396 2
5397 8
5398 36
5399 20
5400 36
5401 14
5402 44
5403 27
5404 22
5405 47
5406 2
5407 17
5408 51
5409 38
5410 20
5411 33
5412 12
5413 33
5414 49
5415 15
5416 45
5417 9
5418 30
5419 45
5420 55
5421 9
5422 8
5423 40
5424 28
5425 37
5426 42
5427 42
5428 17
5429 18
5430 25
5431 53
5432 12
5433 26
5434 15
5435 21
5436 19
5437 39
5438 25
5439 55
5440 31
5441 11
5442 33
5443 55
5444 10
5445 18
5446 21
5447 7
5448 35
5449 0
5450 15
5451 15
5452 11
5453 26
5454 20
5455 54
5456 4
5457 3
5458 4
5459 3
5460 19
5461 17
5462 16
5463 24
5464 20
5465 35
5466 36
5467 28
5468 37
5469 29
5470 27
5471 1
5472 48
5473 56
5474 9
5475 17
5476 43
5477 11
5478 43
5479 9
5480 6
5481 21
5482 3
5483 11
5484 26
5485 57
5486 42
5487 30
5488 30
5489 48
5490 55
5491 20
5492 43
5493 11
5494 23
5495 55
5496 40
5497 38
5498 52
5499 42
5500 27
5501 31
5502 2
5503 51
5504 41
5505 4
5506 16
5507 23
5508 51
5509 16
5510 4
5511 45
5512 1
5513 19
5514 22
5515 56
5516 14
5517 53
5518 27
5519 11
5520 45
5521 33
5522 34
5523 17
5524 11
5525 1
5526 14
5527 16
5528 14
5529 31
5530 25
5531 12
5532 16
5533 22
5534 52
5535 44
5536 14
5537 21
5538 10
5539 7
5540 0
5541 24
5542 25
5543 6
5544 18
5545 29
5546 16
5547 40
5548 14
5549 30
5550 40
5551 29
5552 20
5553 2
5554 27
5555 31
5556 32
5557 27
5558 26
5559 11
5560 14
5561 6
5562 29
5563 50
5564 34
5565 23
5566 48
5567 44
5568 19
5569 39
5570 55
5571 23
5572 21
5573 47
5574 22
5575 13
5576 20
5577 17
5578 18
5579 22
5580 52
5581 21
5582 10
5583 54
5584 24
5585 18
5586 14
5587 47
5588 41
5589 24
5590 6
5591 33
5592 13
5593 33
5594 26
5595 46
5596 16
5597 44
5598 32
5599 10
5600 0
5601 50
5602 27
5603 14
5604 4
5605 37
5606 55
5607 30
5608 27
5609 47
5610 22
5611 1
5612 35
5613 33
5614 14
5615 15
5616 34
5617 11
5618 56
5619 29
5620 51
5621 4
5622 17
5623 37
5624 35
5625 46
5626 5
5627 25
5628 38
5629 41
5630 14
5631 39
5632 5
5633 9
5634 15
5635 36
5636 12
5637 14
5638 18
5639 30
5640 3
5641 42
5642 18
5643 30
5644 5
5645 7
5646 36
5647 36
5648 34
5649 14
5650 48
5651 32
5652 2
5653 50
5654 45
5655 24
5656 28
5657 29
5658 35
5659 27
5660 48
5661 43
5662 5
5663 9
5664 11
5665 39
5666 3
5667 2
5668 8
5669 18
5670 51
5671 45
5672 38
5673 9
5674 55
5675 38
5676 35
5677 45
5678 33
5679 17
5680 4
5681 57
5682 12
5683 11
5684 21
5685 42
5686 10
5687 0
5688 11
5689 16
5690 53
5691 21
5692 44
5693 45
5694 26
5695 39
5696 21
5697 51
5698 53
5699 49
5700 29
5701 10
5702 55
5703 44
5704 29
5705 44
5706 52
5707 21
5708 47
5709 30
5710 6
5711 5
5712 47
5713 52
5714 8
5715 39
5716 30
5717 22
5718 23
5719 27
5720 25
5721 49
5722 14
5723 14
5724 49
5725 52
5726 8
5727 47
5728 56
5729 44
5730 29
5731 55
5732 45
5733 21
5734 45
5735 24
5736 27
5737 9
5738 29
5739 28
5740 1
5741 34
5742 6
5743 13
5744 52
5745 36
5746 29
5747 45
5748 47
5749 1
5750 12
5751 45
5752 48
5753 24
5754 57
5755 34
5756 9
5757 11
5758 49
5759 57
5760 44
5761 44
5762 26
5763 36
5764 37
5765 18
5766 52
5767 45
5768 14
5769 19
5770 18
5771 27
5772 12
5773 34
5774 5
5775 7
5776 42
5777 1
5778 13
5779 34
5780 15
5781 10
5782 28
5783 6
5784 56
5785 3
5786 4
5787 1
5788 21
5789 35
5790 13
5791 3
5792 7
5793 50
5794 7
5795 43
5796 29
5797 33
5798 30
5799 2
5800 20
5801 0
5802 57
5803 34
5804 8
5805 27
5806 1
5807 12
5808 13
5809 56
5810 8
5811 47
5812 20
5813 34
5814 11
5815 37
5816 54
5817 50
5818 12
5819 4
5820 26
5821 10
5822 47
5823 34
5824 37
5825 14
5826 3
5827 13
5828 42
5829 25
5830 30
5831 51
5832 2
5833 3
5834 39
5835 20
5836 18
5837 25
5838 48
5839 20
5840 26
5841 53
5842 38
5843 27
5844 8
5845 17
5846 39
5847 9
5848 46
5849 50
5850 11
5851 43
5852 7
5853 21
5854 6
5855 46
5856 10
5857 57
5858 1
5859 4
5860 11
5861 17
5862 8
5863 39
5864 12
5865 18
5866 37
5867 29
5868 10
5869 17
5870 34
5871 28
5872 33
5873 28
5874 49
5875 47
5876 19
5877 57
5878 14
5879 15
5880 51
5881 51
5882 25
5883 31
5884 19
5885 41
5886 21
5887 17
5888 39
5889 12
5890 34
5891 12
5892 39
5893 23
5894 2
5895 35
5896 19
5897 26
5898 38
5899 34
5900 49
5901 49
5902 18
5903 35
5904 53
5905 9
5906 16
5907 45
5908 39
5909 26
5910 44
5911 40
5912 29
5913 9
5914 50
5915 6
5916 36
5917 54
5918 56
5919 7
5920 18
5921 39
5922 3
5923 17
5924 31
5925 38
5926 28
5927 50
5928 49
5929 31
5930 26
5931 47
5932 3
5933 9
5934 54
5935 51
5936 15
5937 48
5938 51
5939 1
5940 37
5941 26
5942 33
5943 34
5944 4
5945 9
5946 45
5947 33
5948 39
5949 8
5950 56
5951 1
5952 50
5953 31
5954 10
5955 18
5956 7
5957 25
5958 56
5959 0
5960 28
5961 38
5962 1
5963 17
5964 30
5965 34
5966 7
5967 19
5968 13
5969 34
5970 16
5971 55
5972 36
5973 13
5974 11
5975 35
5976 26
5977 17
5978 33
5979 39
5980 34
5981 10
5982 38
5983 43
5984 19
5985 49
5986 51
5987 6
5988 28
5989 15
5990 33
5991 48
5992 4
5993 3
5994 53
5995 53
5996 9
5997 5
5998 7
5999 19
6000 51
6001 15
6002 0
6003 41
6004 34
6005 11
6006 3
6007 36
6008 53
6009 30
6010 26
6011 43
6012 21
6013 4
6014 47
6015 8
6016 0
6017 25
6018 37
6019 5
6020 45
6021 44
6022 7
6023 53
6024 17
6025 44
6026 27
6027 17
6028 50
6029 45
6030 14
6031 34
6032 3
6033 36
6034 44
6035 13
6036 3
6037 49
6038 30
6039 34
6040 10
6041 53
6042 29
6043 42
6044 3
6045 1
6046 57
6047 3
6048 47
6049 13
6050 44
6051 2
6052 29
6053 44
6054 28
6055 42
6056 52
6057 47
6058 20
6059 14
6060 5
6061 24
6062 20
6063 52
6064 44
6065 2
6066 9
6067 25
6068 57
6069 33
6070 57
6071 49
6072 18
6073 56
6074 6
6075 9
6076 55
6077 0
6078 19
6079 15
6080 24
6081 12
6082 15
6083 14
6084 53
6085 45
6086 5
6087 19
6088 13
6089 55
6090 14
6091 33
6092 42
6093 9
6094 45
6095 27
6096 27
6097 28
6098 23
6099 11
6100 53
6101 0
6102 52
6103 15
6104 44
6105 11
6106 35
6107 51
6108 13
6109 33
6110 52
6111 39
6112 43
6113 1
6114 52
6115 4
6116 18
6117 46
6118 18
6119 12
6120 46
6121 4
6122 34
6123 44
6124 33
6125 49
6126 44
6127 4
6128 2
6129 51
6130 48
6131 52
6132 28
6133 34
6134 30
6135 19
6136 24
6137 32
6138 19
6139 23
6140 24
6141 54
6142 13
6143 31
6144 44
6145 35
6146 34
6147 36
6148 49
6149 15
6150 14
6151 27
6152 39
6153 30
6154 44
6155 32
6156 33
6157 22
6158 42
6159 42
6160 1
6161 11
6162 28
6163 9
6164 27
6165 34
6166 28
6167 45
6168 42
6169 17
6170 12
6171 26
6172 7
6173 9
6174 27
6175 5
6176 40
6177 33
6178 23
6179 51
6180 22
6181 31
6182 3
6183 57
6184 28
6185 2
6186 26
6187 18
6188 56
6189 39
6190 51
6191 51
6192 42
6193 6
6194 30
6195 21
6196 20
6197 25
6198 28
6199 52
6200 22
6201 20
6202 53
6203 16
6204 17
6205 40
6206 37
6207 37
6208 14
6209 52
6210 29
6211 26
6212 26
6213 24
6214 28
6215 39
6216 51
6217 14
6218 55
6219 37
6220 9
6221 2
6222 50
6223 5
6224 48
6225 8
6226 5
6227 35
6228 6
6229 36
6230 15
6231 42
6232 26
6233 27
6234 44
6235 34
6236 29
6237 9
6238 53
6239 9
6240 17
6241 42
6242 50
6243 7
6244 52
6245 6
6246 25
6247 43
6248 47
6249 14
6250 34
6251 0
6252 43
6253 14
6254 15
6255 42
6256 37
6257 23
6258 17
6259 38
6260 3
6261 52
6262 31
6263 21
6264 54
6265 45
6266 57
6267 40
6268 31
6269 44
6270 5
6271 21
6272 33
6273 34
6274 21
6275 47
6276 2
6277 51
6278 48
6279 3
6280 52
6281 32
6282 33
6283 6
6284 39
6285 13
6286 41
6287 14
6288 11
6289 5
6290 48
6291 25
6292 14
6293 53
6294 31
6295 40
6296 7
6297 50
6298 46
6299 35
6300 25
6301 21
6302 11
6303 56
6304 6
6305 34
6306 32
6307 25
6308 3
6309 4
6310 25
6311 14
6312 35
6313 21
6314 1
6315 35
6316 5
6317 14
6318 29
6319 50
6320 42
6321 3
6322 2
6323 37
6324 46
6325 18
6326 15
6327 51
6328 29
6329 0
6330 7
6331 45
6332 31
6333 0
6334 48
6335 5
6336 33
6337 12
6338 45
6339 24
6340 45
6341 17
6342 20
6343 29
6344 21
6345 24
6346 44
6347 50
6348 13
6349 9
6350 21
6351 3
6352 7
6353 52
6354 28
6355 10
6356 18
6357 37
6358 55
6359 43
6360 5
6361 33
6362 46
6363 56
6364 43
6365 30
6366 15
6367 7
6368 4
6369 5
6370 47
6371 35
6372 44
6373 47
6374 20
6375 10
6376 6
6377 49
6378 25
6379 3
6380 6
6381 26
6382 53
6383 36
6384 52
6385 25
6386 5
6387 14
6388 36
6389 34
6390 5
6391 57
6392 15
6393 41
6394 53
6395 25
6396 11
6397 12
6398 35
6399 51
6400 51
6401 55
6402 43
6403 34
6404 27
6405 0
6406 5
6407 44
6408 30
6409 12
6410 35
6411 3
6412 14
6413 52
6414 12
6415 26
6416 31
6417 3
6418 17
6419 30
6420 52
6421 7
6422 48
6423 4
6424 36
6425 0
6426 30
6427 33
6428 38
6429 20
6430 23
6431 15
6432 14
6433 49
6434 9
6435 3
6436 16
6437 5
6438 35
6439 37
6440 23
6441 52
6442 30
6443 22
6444 30
6445 2
6446 47
6447 54
6448 27
6449 33
6450 38
6451 27
6452 35
6453 17
6454 15
6455 14
6456 5
6457 11
6458 37
6459 21
6460 48
6461 46
6462 41
6463 51
6464 21
6465 5
6466 9
6467 0
6468 53
6469 15
6470 9
6471 44
6472 10
6473 15
6474 45
6475 22
6476 17
6477 9
6478 32
6479 14
6480 25
6481 23
6482 9
6483 19
6484 0
6485 23
6486 33
6487 28
6488 46
6489 44
6490 40
6491 51
6492 47
6493 24
6494 47
6495 3
6496 21
6497 5
6498 26
6499 37
6500 17
6501 47
6502 37
6503 36
6504 10
6505 50
6506 51
6507 5
6508 50
6509 27
6510 11
6511 17
6512 24
6513 18
6514 50
6515 57
6516 54
6517 25
6518 37
6519 7
6520 31
6521 17
6522 6
6523 26
6524 33
6525 17
6526 55
6527 44
6528 5
6529 44
6530 39
6531 36
6532 27
6533 0
6534 21
6535 49
6536 19
6537 50
6538 52
6539 46
6540 7
6541 1
6542 50
6543 40
6544 4
6545 16
6546 6
6547 4
6548 46
6549 36
6550 38
6551 50
6552 26
6553 29
6554 4
6555 1
6556 42
6557 29
6558 12
6559 17
6560 15
6561 3
6562 39
6563 14
6564 14
6565 33
6566 34
6567 56
6568 25
6569 12
6570 27
6571 18
6572 34
6573 47
6574 30
6575 14
6576 22
6577 57
6578 11
6579 44
6580 4
6581 56
6582 11
6583 28
6584 49
6585 3
6586 42
6587 55
6588 45
6589 25
6590 26
6591 51
6592 52
6593 30
6594 27
6595 51
6596 38
6597 30
6598 19
6599 31
6600 48
6601 9
6602 47
6603 37
6604 51
6605 18
6606 42
6607 57
6608 42
6609 10
6610 31
6611 36
6612 15
6613 44
6614 14
6615 42
6616 10
6617 43
6618 5
6619 30
6620 27
6621 20
6622 31
6623 5
6624 44
6625 3
6626 11
6627 4
6628 5
6629 5
6630 9
6631 38
6632 44
6633 22
6634 9
6635 8
6636 34
6637 5
6638 33
6639 13
6640 16
6641 22
6642 51
6643 31
6644 53
6645 9
6646 17
6647 56
6648 25
6649 16
6650 57
6651 18
6652 7
6653 1
6654 24
6655 19
6656 3
6657 49
6658 57
6659 40
6660 55
6661 47
6662 42
6663 9
6664 1
6665 34
6666 47
6667 1
6668 44
6669 12
6670 0
6671 39
6672 33
6673 0
6674 29
6675 19
6676 41
6677 10
6678 18
6679 52
6680 42
6681 44
6682 18
6683 9
6684 25
6685 13
6686 39
6687 20
6688 38
6689 27
6690 4
6691 57
6692 51
6693 18
6694 17
6695 29
6696 46
6697 3
6698 11
6699 22
6700 18
6701 56
6702 2
6703 38
6704 53
6705 52
6706 6
6707 45
6708 44
6709 21
6710 47
6711 44
6712 44
6713 54
6714 37
6715 25
6716 24
6717 11
6718 30
6719 47
6720 28
6721 5
6722 7
6723 28
6724 22
6725 48
6726 9
6727 21
6728 6
6729 12
6730 21
6731 34
6732 15
6733 24
6734 49
6735 23
6736 25
6737 39
6738 36
6739 3
6740 14
6741 3
6742 9
6743 55
6744 53
6745 32
6746 45
6747 36
6748 36
6749 24
6750 49
6751 12
6752 42
6753 28
6754 35
6755 9
6756 13
6757 12
6758 14
6759 5
6760 28
6761 44
6762 44
6763 56
6764 18
6765 53
6766 41
6767 45
6768 37
6769 47
6770 14
6771 7
6772 51
6773 21
6774 14
6775 14
6776 49
6777 56
6778 14
6779 36
6780 26
6781 44
6782 51
6783 0
6784 13
6785 19
6786 44
6787 7
6788 9
6789 12
6790 9
6791 24
6792 39
6793 49
6794 5
6795 48
6796 33
6797 19
6798 7
6799 13
6800 38
6801 22
6802 12
6803 9
6804 13
6805 14
6806 48
6807 38
6808 19
6809 5
6810 29
6811 29
6812 20
6813 14
6814 26
6815 55
6816 5
6817 7
6818 44
6819 54
6820 42
6821 45
6822 39
6823 45
6824 11
6825 38
6826 51
6827 1
6828 4
6829 23
6830 28
6831 10
6832 0
6833 39
6834 47
6835 48
6836 34
6837 33
6838 17
6839 6
6840 15
6841 3
6842 44
6843 49
6844 48
6845 2
6846 12
6847 15
6848 14
6849 17
6850 34
6851 44
6852 9
6853 13
6854 10
6855 7
6856 44
6857 2
6858 15
6859 54
6860 41
6861 42
6862 7
6863 12
6864 46
6865 4
6866 15
6867 0
6868 17
6869 43
6870 39
6871 30
6872 36
6873 25
6874 14
6875 46
6876 50
6877 4
6878 41
6879 3
6880 56
6881 2
6882 9
6883 27
6884 39
6885 52
6886 28
6887 4
6888 38
6889 9
6890 35
6891 22
6892 13
6893 17
6894 6
6895 28
6896 28
6897 10
6898 34
6899 32
6900 56
6901 36
6902 6
6903 36
6904 38
6905 25
6906 55
6907 16
6908 35
6909 51
6910 38
6911 31
6912 0
6913 47
6914 39
6915 1
6916 12
6917 8
6918 21
6919 49
6920 53
6921 45
6922 17
6923 5
6924 44
6925 37
6926 43
6927 21
6928 27
6929 35
6930 28
6931 2
6932 7
6933 34
6934 13
6935 13
6936 25
6937 43
6938 55
6939 12
6940 24
6941 9
6942 5
6943 10
6944 48
6945 37
6946 13
6947 1
6948 26
6949 35
6950 43
6951 9
6952 51
6953 42
6954 17
6955 23
6956 43
6957 40
6958 9
6959 14
6960 26
6961 23
6962 6
6963 36
6964 23
6965 23
6966 23
6967 15
6968 9
6969 48
6970 42
6971 11
6972 8
6973 14
6974 5
6975 54
6976 34
6977 32
6978 39
6979 39
6980 4
6981 29
6982 18
6983 4
6984 11
6985 10
6986 10
6987 47
6988 43
6989 9
6990 18
6991 44
6992 44
6993 33
6994 29
6995 21
6996 44
6997 30
6998 44
6999 5
7000 0
7001 39
7002 38
7003 3
7004 8
7005 45
7006 57
7007 53
7008 26
7009 38
7010 28
7011 3
7012 23
7013 5
7014 20
7015 32
7016 48
7017 14
7018 45
7019 3
7020 56
7021 10
7022 48
7023 27
7024 9
7025 1
7026 18
7027 24
7028 35
7029 47
7030 39
7031 31
7032 10
7033 43
7034 26
7035 12
7036 54
7037 18
7038 53
7039 2
7040 42
7041 34
7042 9
7043 24
7044 39
7045 42
7046 35
7047 46
7048 35
7049 16
7050 14
7051 56
7052 0
7053 20
7054 55
7055 31
7056 8
7057 53
7058 29
7059 7
7060 1
7061 49
7062 31
7063 25
7064 42
7065 29
7066 0
7067 22
7068 10
7069 16
7070 5
7071 0
7072 32
7073 9
7074 24
7075 42
7076 3
7077 27
7078 33
7079 53
7080 40
7081 40
7082 35
7083 53
7084 31
7085 17
7086 33
7087 0
7088 19
7089 9
7090 56
7091 23
7092 56
7093 49
7094 18
7095 20
7096 20
7097 15
7098 33
7099 37
7100 38
7101 3
7102 3
7103 1
7104 16
7105 20
7106 25
7107 6
7108 20
7109 24
7110 33
7111 55
7112 1
7113 51
7114 23
7115 45
7116 25
7117 3
7118 5
7119 16
7120 25
7121 18
7122 28
7123 5
7124 25
7125 25
7126 42
7127 25
7128 53
7129 49
7130 34
7131 1
7132 18
7133 9
7134 41
7135 24
7136 51
7137 14
7138 47
7139 49
7140 3
7141 53
7142 17
7143 3
7144 22
7145 32
7146 17
7147 49
7148 28
7149 51
7150 5
7151 15
7152 57
7153 33
7154 36
7155 12
7156 20
7157 33
7158 18
7159 14
7160 48
7161 40
7162 35
7163 49
7164 44
7165 4
7166 6
7167 48
7168 20
7169 25
7170 11
7171 44
7172 22
7173 53
7174 30
7175 18
7176 39
7177 8
7178 17
7179 20
7180 35
7181 33
7182 44
7183 14
7184 14
7185 0
7186 30
7187 1
7188 20
7189 36
7190 27
7191 52
7192 44
7193 1
7194 6
7195 22
7196 43
7197 39
7198 5
7199 29
7200 7
7201 43
7202 36
7203 11
7204 2
7205 22
7206 35
7207 47
7208 22
7209 22
7210 3
7211 37
7212 0
7213 32
7214 40
7215 26
7216 48
7217 14
7218 0
7219 5
7220 15
7221 20
7222 2
7223 28
7224 3
7225 2
7226 18
7227 10
7228 37
7229 42
7230 43
7231 49
7232 9
7233 36
7234 27
7235 2
7236 40
7237 10
7238 49
7239 8
7240 39
7241 10
7242 13
7243 38
7244 9
7245 52
7246 14
7247 39
7248 11
7249 44
7250 6
7251 51
7252 43
7253 53
7254 48
7255 6
7256 3
7257 43
7258 2
7259 21
7260 6
7261 15
7262 26
7263 26
7264 51
7265 9
7266 45
7267 48
7268 6
7269 47
7270 45
7271 29
7272 39
7273 7
7274 49
7275 47
7276 14
7277 53
7278 11
7279 32
7280 29
7281 14
7282 43
7283 16
7284 50
7285 48
7286 51
7287 21
7288 22
7289 50
7290 14
7291 28
7292 27
7293 32
7294 52
7295 29
7296 42
7297 43
7298 55
7299 11
7300 48
7301 20
7302 1
7303 32
7304 55
7305 44
7306 18
7307 34
7308 43
7309 18
7310 30
7311 9
7312 17
7313 53
7314 55
7315 14
7316 55
7317 29
7318 24
7319 34
7320 38
7321 5
7322 32
7323 14
7324 18
7325 46
7326 39
7327 7
7328 5
7329 6
7330 16
7331 48
7332 9
7333 45
7334 21
7335 1
7336 39
7337 3
7338 4
7339 24
7340 44
7341 17
7342 4
7343 11
7344 3
7345 27
7346 24
7347 11
7348 23
7349 48
7350 34
7351 46
7352 1
7353 11
7354 2
7355 2
7356 9
7357 39
7358 31
7359 55
7360 21
7361 14
7362 15
7363 25
7364 11
7365 21
7366 3
7367 39
7368 25
7369 44
7370 45
7371 34
7372 11
7373 1
7374 49
7375 52
7376 46
7377 43
7378 39
7379 34
7380 28
7381 32
7382 4
7383 42
7384 34
7385 7
7386 14
7387 9
7388 26
7389 47
7390 24
7391 17
7392 21
7393 26
7394 31
7395 14
7396 42
7397 14
7398 26
7399 29
7400 9
7401 30
7402 11
7403 9
7404 2
7405 37
7406 56
7407 27
7408 31
7409 41
7410 52
7411 30
7412 16
7413 45
7414 17
7415 32
7416 47
7417 16
7418 13
7419 25
7420 27
7421 48
7422 38
7423 3
7424 12
7425 7
7426 23
7427 35
7428 32
7429 34
7430 15
7431 33
7432 23
7433 31
7434 38
7435 30
7436 20
7437 52
7438 26
7439 1
7440 49
7441 8
7442 10
7443 44
7444 54
7445 37
7446 27
7447 18
7448 22
7449 45
7450 20
7451 57
7452 51
7453 24
7454 20
7455 12
7456 26
7457 37
7458 56
7459 14
7460 38
7461 41
7462 21
7463 0
7464 6
7465 15
7466 29
7467 13
7468 16
7469 13
7470 3
7471 45
7472 3
7473 43
7474 9
7475 17
7476 48
7477 46
7478 4
7479 9
7480 16
7481 53
7482 18
7483 10
7484 19
7485 29
7486 5
7487 40
7488 29
7489 15
7490 15
7491 25
7492 22
7493 1
7494 35
7495 25
7496 19
7497 15
7498 11
7499 49
7500 30
7501 38
7502 13
7503 42
7504 9
7505 48
7506 47
7507 9
7508 10
7509 14
7510 47
7511 4
7512 1
7513 18
7514 51
7515 42
7516 37
7517 4
7518 21
7519 3
7520 11
7521 13
7522 29
7523 52
7524 23
7525 15
7526 50
7527 48
7528 35
7529 37
7530 10
7531 52
7532 10
7533 52
7534 38
7535 21
7536 28
7537 44
7538 35
7539 18
7540 36
7541 47
7542 39
7543 15
7544 13
7545 3
7546 26
7547 34
7548 16
7549 35
7550 31
7551 3
7552 25
7553 19
7554 7
7555 3
7556 56
7557 30
7558 50
7559 11
7560 56
7561 13
7562 49
7563 11
7564 30
7565 36
7566 25
7567 25
7568 28
7569 44
7570 5
7571 12
7572 49
7573 48
7574 34
7575 47
7576 21
7577 34
7578 28
7579 12
7580 19
7581 44
7582 57
7583 38
7584 18
7585 50
7586 35
7587 31
7588 33
7589 9
7590 14
7591 7
7592 56
7593 40
7594 36
7595 20
7596 10
7597 27
7598 29
7599 28
7600 9
7601 21
7602 26
7603 11
7604 42
7605 8
7606 56
7607 19
7608 16
7609 25
7610 32
7611 33
7612 31
7613 7
7614 25
7615 3
7616 39
7617 56
7618 4
7619 25
7620 14
7621 44
7622 23
7623 57
7624 11
7625 3
7626 28
7627 10
7628 16
7629 23
7630 24
7631 16
7632 22
7633 31
7634 1
7635 6
7636 7
7637 24
7638 44
7639 3
7640 16
7641 13
7642 50
7643 26
7644 28
7645 14
7646 6
7647 24
7648 45
7649 3
7650 7
7651 39
7652 25
7653 13
7654 14
7655 40
7656 14
7657 39
7658 4
7659 2
7660 17
7661 22
7662 19
7663 31
7664 37
7665 44
7666 35
7667 52
7668 44
7669 37
7670 28
7671 14
7672 8
7673 17
7674 29
7675 34
7676 8
7677 24
7678 7
7679 5
7680 12
7681 30
7682 12
7683 37
7684 4
7685 23
7686 14
7687 43
7688 0
7689 47
7690 6
7691 27
7692 3
7693 3
7694 14
7695 51
7696 34
7697 24
7698 44
7699 12
7700 17
7701 33
7702 29
7703 38
7704 52
7705 51
7706 4
7707 0
7708 27
7709 2
7710 7
7711 21
7712 28
7713 44
7714 50
7715 27
7716 45
7717 45
7718 33
7719 45
7720 57
7721 39
7722 10
7723 32
7724 18
7725 25
7726 50
7727 33
7728 7
7729 45
7730 18
7731 18
7732 44
7733 13
7734 51
7735 29
7736 32
7737 25
7738 25
7739 5
7740 18
7741 46
7742 17
7743 5
7744 55
7745 34
7746 47
7747 55
7748 22
7749 2
7750 5
7751 24
7752 26
7753 34
7754 43
7755 53
7756 25
7757 25
7758 19
7759 14
7760 53
7761 57
7762 52
7763 50
7764 0
7765 48
7766 30
7767 25
7768 42
7769 50
7770 57
7771 31
7772 34
7773 24
7774 0
7775 43
7776 6
7777 11
7778 23
7779 39
7780 6
7781 32
7782 7
7783 9
7784 45
7785 5
7786 38
7787 35
7788 11
7789 10
7790 39
7791 34
7792 25
7793 8
7794 54
7795 9
7796 14
7797 44
7798 20
7799 15
7800 47
7801 33
7802 12
7803 0
7804 1
7805 15
7806 17
7807 7
7808 11
7809 20
7810 51
7811 3
7812 51
7813 39
7814 55
7815 45
7816 0
7817 14
7818 11
7819 30
7820 5
7821 28
7822 57
7823 22
7824 14
7825 56
7826 57
7827 24
7828 32
7829 14
7830 12
7831 15
7832 54
7833 39
7834 43
7835 11
7836 22
7837 15
7838 27
7839 27
7840 46
7841 44
7842 15
7843 6
7844 13
7845 17
7846 39
7847 6
7848 45
7849 0
7850 34
7851 1
7852 17
7853 33
7854 16
7855 9
7856 34
7857 2
7858 37
7859 6
7860 38
7861 15
7862 55
7863 23
7864 35
7865 9
7866 34
7867 11
7868 29
7869 24
7870 18
7871 15
7872 6
7873 9
7874 14
7875 49
7876 10
7877 42
7878 44
7879 17
7880 47
7881 18
7882 20
7883 15
7884 14
7885 32
7886 8
7887 28
7888 37
7889 7
7890 26
7891 52
7892 27
7893 27
7894 56
7895 30
7896 47
7897 54
7898 25
7899 10
7900 14
7901 17
7902 31
7903 28
7904 47
7905 26
7906 50
7907 7
7908 29
7909 4
7910 43
7911 25
7912 10
7913 33
7914 38
7915 12
7916 56
7917 51
7918 23
7919 51
7920 38
7921 10
7922 36
7923 31
7924 11
7925 35
7926 51
7927 39
7928 4
7929 5
7930 55
7931 20
7932 15
7933 42
7934 28
7935 24
7936 24
7937 39
7938 31
7939 54
7940 48
7941 53
7942 23
7943 12
7944 15
7945 5
7946 25
7947 51
7948 20
7949 26
7950 48
7951 51
7952 33
7953 53
7954 9
7955 32
7956 9
7957 37
7958 23
7959 23
7960 39
7961 21
7962 11
7963 5
7964 14
7965 19
7966 40
7967 18
7968 11
7969 45
7970 31
7971 26
7972 55
7973 47
7974 7
7975 8
7976 5
7977 52
7978 24
7979 9
7980 36
7981 4
7982 7
7983 48
7984 34
7985 35
7986 9
7987 26
7988 12
7989 17
7990 14
7991 14
7992 20
7993 27
7994 14
7995 7
7996 16
7997 29
7998 51
7999 28
8000 50
8001 22
8002 2
8003 8
8004 20
8005 33
8006 26
8007 9
8008 38
8009 25
8010 28
8011 18
8012 18
8013 0
8014 42
8015 34
8016 24
8017 15
8018 18
8019 27
8020 46
8021 10
8022 36
8023 33
8024 39
8025 43
8026 33
8027 12
8028 56
8029 24
8030 21
8031 51
8032 33
8033 18
8034 40
8035 4
8036 48
8037 45
8038 46
8039 14
8040 50
8041 35
8042 10
8043 24
8044 6
8045 51
8046 52
8047 0
8048 10
8049 18
8050 13
8051 51
8052 22
8053 48
8054 51
8055 37
8056 14
8057 49
8058 30
8059 13
8060 44
8061 44
8062 24
8063 27
8064 3
8065 24
8066 38
8067 2
8068 36
8069 48
8070 31
8071 30
8072 26
8073 8
8074 27
8075 49
8076 49
8077 9
8078 49
8079 9
8080 26
8081 43
8082 17
8083 22
8084 50
8085 36
8086 21
8087 43
8088 51
8089 43
8090 31
8091 10
8092 12
8093 52
8094 11
8095 25
8096 17
8097 31
8098 44
8099 10
8100 24
8101 20
8102 12
8103 20
8104 4
8105 27
8106 9
8107 12
8108 27
8109 2
8110 3
8111 47
8112 18
8113 13
8114 44
8115 46
8116 33
8117 23
8118 28
8119 37
8120 48
8121 18
8122 3
8123 7
8124 41
8125 30
8126 42
8127 21
8128 49
8129 48
8130 47
8131 48
8132 57
8133 45
8134 52
8135 21
8136 47
8137 15
8138 43
8139 33
8140 48
8141 52
8142 14
8143 4
8144 39
8145 18
8146 52
8147 3
8148 21
8149 54
8150 45
8151 6
8152 36
8153 34
8154 16
8155 18
8156 24
8157 9
8158 30
8159 10
8160 45
8161 41
8162 9
8163 50
8164 44
8165 1
8166 10
8167 55
8168 17
8169 7
8170 50
8171 41
8172 17
8173 21
8174 6
8175 15
8176 9
8177 49
8178 40
8179 9
8180 11
8181 6
8182 29
8183 15
8184 21
8185 23
8186 25
8187 36
8188 39
8189 40
8190 13
8191 14
8192 53
8193 27
8194 39
8195 26
8196 32
8197 30
8198 51
8199 25
8200 9
8201 2
8202 38
8203 29
8204 24
8205 38
8206 45
8207 48
8208 57
8209 4
8210 1
8211 39
8212 6
8213 51
8214 11
8215 36
8216 57
8217 52
8218 5
8219 14
8220 15
8221 45
8222 55
8223 35
8224 16
8225 29
8226 6
8227 22
8228 0
8229 25
8230 10
8231 9
8232 30
8233 37
8234 37
8235 6
8236 5
8237 2
8238 6
8239 28
8240 13
8241 3
8242 9
8243 20
8244 21
8245 45
8246 4
8247 52
8248 5
8249 25
8250 11
8251 52
8252 9
8253 27
8254 57
8255 21
8256 19
8257 52
8258 24
8259 52
8260 11
8261 9
8262 46
8263 10
8264 15
8265 7
8266 5
8267 11
8268 33
8269 57
8270 24
8271 6
8272 32
8273 34
8274 30
8275 28
8276 23
8277 44
8278 11
8279 7
8280 2
8281 39
8282 25
8283 19
8284 3
8285 24
8286 26
8287 20
8288 57
8289 9
8290 30
8291 12
8292 31
8293 21
8294 54
8295 7
8296 5
8297 28
8298 6
8299 4
8300 3
8301 47
8302 5
8303 47
8304 42
8305 2
8306 32
8307 14
8308 26
8309 0
8310 41
8311 13
8312 4
8313 32
8314 15
8315 38
8316 11
8317 5
8318 25
8319 9
8320 44
8321 24
8322 37
8323 51
8324 14
8325 31
8326 6
8327 29
8328 50
8329 42
8330 29
8331 11
8332 21
8333 51
8334 21
8335 39
8336 14
8337 3
8338 39
8339 24
8340 13
8341 0
8342 8
8343 25
8344 11
8345 21
8346 28
8347 57
8348 44
8349 46
8350 20
8351 15
8352 14
8353 47
8354 51
8355 53
8356 26
8357 43
8358 25
8359 56
8360 47
8361 5
8362 7
8363 14
8364 17
8365 57
8366 1
8367 29
8368 7
8369 53
8370 37
8371 30
8372 33
8373 19
8374 4
8375 0
8376 28
8377 18
8378 38
8379 39
8380 27
8381 22
8382 31
8383 9
8384 43
8385 1
8386 45
8387 5
8388 33
8389 15
8390 24
8391 5
8392 45
8393 2
8394 0
8395 39
8396 33
8397 28
8398 57
8399 15
8400 34
8401 34
8402 44
8403 41
8404 23
8405 9
8406 9
8407 39
8408 1
8409 9
8410 8
8411 0
8412 3
8413 36
8414 34
8415 14
8416 57
8417 17
8418 2
8419 48
8420 21
8421 0
8422 55
8423 14
8424 1
8425 48
8426 54
8427 1
8428 39
8429 13
8430 51
8431 19
8432 5
8433 57
8434 22
8435 51
8436 1
8437 44
8438 39
8439 47
8440 4
8441 9
8442 7
8443 18
8444 29
8445 28
8446 8
8447 38
8448 7
8449 19
8450 6
8451 16
8452 19
8453 48
8454 45
8455 7
8456 48
8457 29
8458 38
8459 38
8460 30
8461 0
8462 49
8463 29
8464 14
8465 10
8466 27
8467 51
8468 18
8469 6
8470 15
8471 9
8472 26
8473 53
8474 11
8475 19
8476 33
8477 26
8478 9
8479 44
8480 51
8481 19
8482 17
8483 6
8484 31
8485 32
8486 12
8487 13
8488 48
8489 33
8490 54
8491 11
8492 11
8493 4
8494 12
8495 46
8496 0
8497 36
8498 1
8499 26
8500 21
8501 12
8502 44
8503 24
8504 5
8505 18
8506 12
8507 36
8508 4
8509 42
8510 14
8511 0
8512 19
8513 52
8514 42
8515 35
8516 34
8517 51
8518 35
8519 15
8520 15
8521 21
8522 34
8523 44
8524 31
8525 28
8526 28
8527 11
8528 36
8529 0
8530 21
8531 54
8532 20
8533 31
8534 7
8535 36
8536 11
8537 21
8538 4
8539 27
8540 14
8541 11
8542 24
8543 1
8544 0
8545 7
8546 45
8547 1
8548 29
8549 40
8550 44
8551 52
8552 21
8553 50
8554 6
8555 12
8556 43
8557 44
8558 39
8559 14
8560 9
8561 49
8562 44
8563 18
8564 50
8565 14
8566 5
8567 2
8568 56
8569 39
8570 21
8571 46
8572 26
8573 3
8574 45
8575 19
8576 12
8577 52
8578 37
8579 41
8580 30
8581 24
8582 29
8583 15
8584 26
8585 37
8586 0
8587 36
8588 45
8589 39
8590 33
8591 38
8592 1
8593 5
8594 55
8595 11
8596 32
8597 46
8598 5
8599 11
8600 19
8601 6
8602 49
8603 18
8604 9
8605 56
8606 7
8607 27
8608 11
8609 27
8610 24
8611 30
8612 18
8613 20
8614 9
8615 56
8616 50
8617 9
8618 47
8619 9
8620 46
8621 19
8622 2
8623 47
8624 32
8625 34
8626 1
8627 47
8628 19
8629 20
8630 26
8631 46
8632 29
8633 46
8634 24
8635 20
8636 2
8637 25
8638 24
8639 37
8640 34
8641 0
8642 18
8643 16
8644 11
8645 25
8646 25
8647 13
8648 33
8649 37
8650 2
8651 39
8652 56
8653 26
8654 23
8655 11
8656 50
8657 7
8658 45
8659 15
8660 43
8661 48
8662 11
8663 13
8664 3
8665 36
8666 48
8667 22
8668 38
8669 29
8670 0
8671 6
8672 38
8673 53
8674 22
8675 5
8676 7
8677 34
8678 56
8679 50
8680 30
8681 42
8682 12
8683 24
8684 10
8685 9
8686 0
8687 32
8688 20
8689 42
8690 27
8691 3
8692 45
8693 57
8694 22
8695 20
8696 42
8697 7
8698 50
8699 15
8700 25
8701 7
8702 18
8703 51
8704 36
8705 50
8706 21
8707 13
8708 27
8709 15
8710 30
8711 49
8712 25
8713 51
8714 22
8715 38
8716 5
8717 34
8718 14
8719 40
8720 9
8721 3
8722 16
8723 49
8724 16
8725 26
8726 33
8727 26
8728 39
8729 10
8730 31
8731 2
8732 50
8733 41
8734 3
8735 3
8736 17
8737 7
8738 51
8739 6
8740 12
8741 47
8742 29
8743 9
8744 42
8745 28
8746 52
8747 44
8748 9
8749 19
8750 14
8751 53
8752 35
8753 35
8754 33
8755 43
8756 6
8757 37
8758 28
8759 10
8760 1
8761 44
8762 11
8763 3
8764 42
8765 45
8766 37
8767 5
8768 38
8769 48
8770 19
8771 26
8772 41
8773 47
8774 25
8775 31
8776 31
8777 25
8778 25
8779 51
8780 27
8781 47
8782 41
8783 14
8784 18
8785 15
8786 13
8787 21
8788 48
8789 53
8790 7
8791 25
8792 52
8793 35
8794 19
8795 0
8796 49
8797 9
8798 56
8799 7
8800 15
8801 5
8802 1
8803 48
8804 10
8805 37
8806 12
8807 15
8808 33
8809 29
8810 43
8811 29
8812 4
8813 47
8814 3
8815 2
8816 36
8817 38
8818 39
8819 9
8820 30
8821 5
8822 11
8823 8
8824 7
8825 11
8826 29
8827 45
8828 13
8829 33
8830 0
8831 43
8832 15
8833 31
8834 21
8835 32
8836 14
8837 55
8838 13
8839 6
8840 41
8841 43
8842 31
8843 52
8844 31
8845 5
8846 56
8847 22
8848 44
8849 26
8850 29
8851 29
8852 52
8853 6
8854 8
8855 9
8856 44
8857 15
8858 13
8859 13
8860 53
8861 13
8862 38
8863 57
8864 26
8865 34
8866 45
8867 26
8868 40
8869 47
8870 34
8871 27
8872 44
8873 37
8874 49
8875 43
8876 39
8877 0
8878 5
8879 35
8880 20
8881 9
8882 33
8883 27
8884 44
8885 18
8886 9
8887 7
8888 21
8889 22
8890 34
8891 6
8892 15
8893 50
8894 33
8895 32
8896 14
8897 43
8898 3
8899 51
8900 19
8901 39
8902 8
8903 46
8904 15
8905 46
8906 0
8907 9
8908 10
8909 40
8910 5
8911 56
8912 20
8913 44
8914 5
8915 42
8916 3
8917 34
8918 32
8919 48
8920 9
8921 34
8922 12
8923 31
8924 21
8925 34
8926 44
8927 31
8928 22
8929 2
8930 8
8931 54
8932 21
8933 3
8934 36
8935 37
8936 20
8937 17
8938 31
8939 42
8940 30
8941 22
8942 5
8943 37
8944 15
8945 44
8946 5
8947 25
8948 5
8949 33
8950 12
8951 50
8952 0
8953 7
8954 20
8955 47
8956 31
8957 44
8958 26
8959 54
8960 37
8961 33
8962 49
8963 0
8964 9
8965 37
8966 12
8967 24
8968 26
8969 51
8970 8
8971 55
8972 57
8973 50
8974 31
8975 44
8976 33
8977 39
8978 0
8979 4
8980 32
8981 3
8982 35
8983 0
8984 46
8985 52
8986 11
8987 13
8988 47
8989 36
8990 28
8991 51
8992 5
8993 27
8994 48
8995 5
8996 49
8997 22
8998 36
8999 52
9000 22
9001 2
9002 56
9003 35
9004 45
9005 50
9006 11
9007 7
9008 47
9009 31
9010 39
9011 10
9012 4
9013 36
9014 54
9015 18
9016 42
9017 38
9018 57
9019 47
9020 40
9021 40
9022 52
9023 41
9024 11
9025 5
9026 44
9027 51
9028 3
9029 8
9030 23
9031 6
9032 50
9033 7
9034 31
9035 6
9036 52
9037 47
9038 32
9039 21
9040 3
9041 18
9042 44
9043 10
9044 10
9045 30
9046 5
9047 31
9048 13
9049 6
9050 12
9051 51
9052 7
9053 46
9054 12
9055 31
9056 19
9057 50
9058 3
9059 43
9060 23
9061 44
9062 27
9063 49
9064 19
9065 35
9066 25
9067 47
9068 41
9069 45
9070 42
9071 29
9072 6
9073 12
9074 19
9075 28
9076 32
9077 51
9078 9
9079 12
9080 43
9081 15
9082 24
9083 26
9084 44
9085 7
9086 22
9087 31
9088 38
9089 21
9090 31
9091 17
9092 30
9093 9
9094 26
9095 1
9096 56
9097 38
9098 56
9099 29
9100 27
9101 9
9102 11
9103 31
9104 33
9105 16
9106 25
9107 6
9108 34
9109 57
9110 53
9111 27
9112 42
9113 29
9114 49
9115 26
9116 9
9117 43
9118 46
9119 1
9120 3
9121 14
9122 21
9123 23
9124 19
9125 37
9126 52
9127 25
9128 22
9129 38
9130 30
9131 27
9132 11
9133 49
9134 29
9135 7
9136 15
9137 10
9138 0
9139 39
9140 13
9141 14
9142 37
9143 11
9144 41
9145 31
9146 33
9147 9
9148 24
9149 0
9150 42
9151 27
9152 34
9153 9
9154 6
9155 19
9156 22
9157 55
9158 17
9159 6
9160 12
9161 7
9162 18
9163 27
9164 40
9165 5
9166 23
9167 14
9168 9
9169 20
9170 11
9171 45
9172 46
9173 53
9174 40
9175 27
9176 26
9177 2
9178 16
9179 55
9180 6
9181 36
9182 37
9183 25
9184 29
9185 51
9186 41
9187 49
9188 27
9189 0
9190 1
9191 34
9192 8
9193 30
9194 17
9195 52
9196 55
9197 55
9198 33
9199 17
9200 10
9201 37
9202 27
9203 35
9204 0
9205 17
9206 52
9207 18
9208 11
9209 51
9210 24
9211 47
9212 46
9213 31
9214 3
9215 47
9216 55
9217 55
9218 37
9219 29
9220 18
9221 53
9222 31
9223 44
9224 20
9225 5
9226 16
9227 53
9228 52
9229 9
9230 15
9231 24
9232 23
9233 41
9234 14
9235 2
9236 27
9237 29
9238 33
9239 29
9240 51
9241 32
9242 40
9243 53
9244 37
9245 38
9246 16
9247 21
9248 36
9249 3
9250 24
9251 10
9252 33
9253 7
9254 5
9255 9
9256 42
9257 23
9258 13
9259 5
9260 21
9261 6
9262 44
9263 1
9264 46
9265 37
9266 3
9267 6
9268 45
9269 3
9270 29
9271 2
9272 44
9273 22
9274 27
9275 44
9276 28
9277 27
9278 4
9279 41
9280 42
9281 19
9282 44
9283 46
9284 21
9285 13
9286 43
9287 9
9288 37
9289 6
9290 44
9291 10
9292 44
9293 27
9294 13
9295 31
9296 22
9297 23
9298 12
9299 27
9300 27
9301 4
9302 11
9303 14
9304 25
9305 32
9306 24
9307 15
9308 23
9309 26
9310 33
9311 14
9312 25
9313 7
9314 9
9315 31
9316 34
9317 7
9318 17
9319 39
9320 45
9321 41
9322 37
9323 51
9324 27
9325 18
9326 46
9327 42
9328 1
9329 5
9330 14
9331 26
9332 15
9333 31
9334 31
9335 12
9336 14
9337 39
9338 38
9339 50
9340 41
9341 51
9342 26
9343 29
9344 57
9345 21
9346 41
9347 17
9348 9
9349 0
9350 5
9351 49
9352 26
9353 37
9354 1
9355 6
9356 48
9357 23
9358 19
9359 15
9360 39
9361 24
9362 6
9363 12
9364 13
9365 39
9366 9
9367 34
9368 33
9369 50
9370 30
9371 21
9372 5
9373 23
9374 32
9375 9
9376 29
9377 26
9378 14
9379 2
9380 57
9381 50
9382 43
9383 56
9384 36
9385 18
9386 12
9387 12
9388 11
9389 27
9390 51
9391 22
9392 5
9393 5
9394 15
9395 8
9396 14
9397 55
9398 56
9399 17
9400 4
9401 5
9402 41
9403 50
9404 5
9405 34
9406 35
9407 45
9408 22
9409 25
9410 52
9411 57
9412 49
9413 49
9414 9
9415 29
9416 39
9417 28
9418 33
9419 36
9420 34
9421 9
9422 8
9423 45
9424 48
9425 47
9426 29
9427 37
9428 28
9429 35
9430 8
9431 14
9432 39
9433 16
9434 43
9435 9
9436 46
9437 18
9438 26
9439 7
9440 0
9441 45
9442 3
9443 20
9444 4
9445 28
9446 36
9447 14
9448 10
9449 54
9450 24
9451 21
9452 7
9453 43
9454 0
9455 11
9456 1
9457 52
9458 29
9459 45
9460 28
9461 19
9462 35
9463 4
9464 37
9465 25
9466 52
9467 33
9468 55
9469 11
9470 23
9471 11
9472 26
9473 12
9474 27
9475 3
9476 3
9477 27
9478 28
9479 1
9480 8
9481 6
9482 12
9483 53
9484 12
9485 37
9486 34
9487 4
9488 48
9489 8
9490 5
9491 24
9492 7
9493 30
9494 50
9495 20
9496 37
9497 42
9498 13
9499 36
9500 0
9501 16
9502 35
9503 10
9504 51
9505 0
9506 53
9507 57
9508 56
9509 14
9510 47
9511 44
9512 2
9513 35
9514 4
9515 30
9516 31
9517 52
9518 18
9519 6
9520 34
9521 11
9522 22
9523 3
9524 22
9525 37
9526 45
9527 25
9528 20
9529 50
9530 7
9531 31
9532 35
9533 9
9534 11
9535 18
9536 14
9537 44
9538 33
9539 0
9540 18
9541 48
9542 0
9543 29
9544 50
9545 39
9546 57
9547 23
9548 27
9549 16
9550 31
9551 43
9552 9
9553 29
9554 18
9555 2
9556 35
9557 43
9558 49
9559 41
9560 54
9561 22
9562 15
9563 49
9564 8
9565 14
9566 42
9567 36
9568 1
9569 19
9570 47
9571 26
9572 44
9573 3
9574 47
9575 49
9576 15
9577 32
9578 52
9579 19
9580 27
9581 39
9582 0
9583 35
9584 51
9585 51
9586 45
9587 31
9588 30
9589 8
9590 35
9591 17
9592 52
9593 43
9594 45
9595 27
9596 56
9597 31
9598 2
9599 53
9600 39
9601 39
9602 3
9603 52
9604 21
9605 30
9606 0
9607 7
9608 23
9609 8
9610 37
9611 1
9612 27
9613 47
9614 50
9615 53
9616 33
9617 57
9618 11
9619 13
9620 43
9621 0
9622 22
9623 27
9624 10
9625 18
9626 9
9627 3
9628 1
9629 42
9630 21
9631 38
9632 31
9633 11
9634 8
9635 28
9636 12
9637 7
9638 45
9639 35
9640 13
9641 18
9642 45
9643 6
9644 29
9645 37
9646 36
9647 44
9648 33
9649 34
9650 29
9651 26
9652 9
9653 52
9654 34
9655 42
9656 3
9657 44
9658 56
9659 0
9660 2
9661 54
9662 36
9663 47
9664 18
9665 31
9666 37
9667 29
9668 26
9669 7
9670 11
9671 0
9672 7
9673 10
9674 25
9675 23
9676 9
9677 7
9678 37
9679 28
9680 40
9681 46
9682 31
9683 17
9684 13
9685 26
9686 57
9687 0
9688 31
9689 24
9690 34
9691 14
9692 21
9693 5
9694 52
9695 28
9696 26
9697 37
9698 11
9699 4
9700 43
9701 51
9702 47
9703 32
9704 56
9705 22
9706 6
9707 44
9708 38
9709 11
9710 38
9711 39
9712 37
9713 14
9714 51
9715 28
9716 47
9717 19
9718 57
9719 19
9720 52
9721 25
9722 38
9723 47
9724 43
9725 10
9726 51
9727 44
9728 39
9729 54
9730 52
9731 54
9732 6
9733 38
9734 38
9735 32
9736 6
9737 20
9738 27
9739 31
9740 17
9741 21
9742 26
9743 47
9744 40
9745 33
9746 9
9747 11
9748 32
9749 44
9750 30
9751 46
9752 18
9753 24
9754 29
9755 55
9756 20
9757 13
9758 42
9759 36
9760 10
9761 21
9762 24
9763 4
9764 7
9765 32
9766 2
9767 34
9768 5
9769 51
9770 9
9771 9
9772 35
9773 41
9774 9
9775 47
9776 49
9777 9
9778 39
9779 14
9780 31
9781 8
9782 24
9783 12
9784 44
9785 49
9786 40
9787 6
9788 3
9789 14
9790 43
9791 43
9792 46
9793 3
9794 14
9795 21
9796 10
9797 43
9798 19
9799 5
9800 39
9801 18
9802 2
9803 25
9804 0
9805 35
9806 3
9807 17
9808 42
9809 47
9810 2
9811 4
9812 25
9813 39
9814 44
9815 49
9816 44
9817 11
9818 50
9819 16
9820 19
9821 53
9822 1
9823 39
9824 27
9825 9
9826 25
9827 4
9828 15
9829 3
9830 2
9831 46
9832 33
9833 8
9834 48
9835 28
9836 3
9837 23
9838 10
9839 9
9840 50
9841 17
9842 53
9843 14
9844 24
9845 45
9846 0
9847 43
9848 46
9849 10
9850 3
9851 40
9852 31
9853 8
9854 7
9855 5
9856 11
9857 17
9858 52
9859 6
9860 51
9861 9
9862 8
9863 42
9864 21
9865 29
9866 46
9867 25
9868 21
9869 55
9870 46
9871 11
9872 16
9873 33
9874 34
9875 23
9876 28
9877 11
9878 14
9879 6
9880 54
9881 39
9882 52
9883 54
9884 28
9885 34
9886 57
9887 17
9888 11
9889 22
9890 17
9891 21
9892 5
9893 17
9894 3
9895 24
9896 18
9897 1
9898 10
9899 36
9900 22
9901 4
9902 27
9903 24
9904 32
9905 5
9906 17
9907 17
9908 11
9909 56
9910 54
9911 28
9912 17
9913 57
9914 19
9915 5
9916 25
9917 12
9918 35
9919 19
9920 47
9921 23
9922 49
9923 25
9924 17
9925 3
9926 51
9927 7
9928 11
9929 15
9930 44
9931 19
9932 24
9933 9
9934 38
9935 1
9936 18
9937 50
9938 0
9939 31
9940 3
9941 34
9942 40
9943 14
9944 2
9945 24
9946 50
9947 52
9948 9
9949 51
9950 12
9951 21
9952 44
9953 47
9954 45
9955 42
9956 24
9957 29
9958 27
9959 3
9960 28
9961 6
9962 22
9963 14
9964 43
9965 9
9966 50
9967 39
9968 39
9969 31
9970 18
9971 27
9972 0
9973 9
9974 42
9975 29
9976 46
9977 43
9978 44
9979 26
9980 21
9981 52
9982 7
9983 29
9984 25
9985 31
9986 33
9987 6
9988 37
9989 33
9990 37
9991 2
9992 34
9993 20
9994 4
9995 8
9996 43
9997 54
9998 46
9999 20
