0 0
1 1
2 2
3 3
4 4
5 5
6 6
7 7
8 8
9 9
10 10
11 3
12 11
13 12
14 4
15 2
16 13
17 4
18 9
19 14
20 13
21 15
22 16
23 13
24 16
25 17
26 18
27 19
28 20
29 21
30 22
31 20
32 23
33 8
34 24
35 25
36 16
37 13
38 26
39 24
40 9
41 3
42 19
43 15
44 8
45 27
46 25
47 28
48 28
49 29
50 30
51 21
52 17
53 15
54 2
55 21
56 12
57 31
58 14
59 20
60 32
61 33
62 34
63 11
64 19
65 0
66 33
67 7
68 35
69 26
70 16
71 24
72 6
73 26
74 4
75 14
76 21
77 16
78 0
79 4
80 27
81 36
82 35
83 37
84 27
85 38
86 39
87 5
88 3
89 26
90 34
91 7
92 40
93 2
94 4
95 7
96 34
97 27
98 38
99 41
100 7
101 38
102 42
103 24
104 43
105 29
106 16
107 24
108 38
109 28
110 44
111 21
112 26
113 37
114 2
115 28
116 27
117 37
118 29
119 39
120 40
121 45
122 30
123 36
124 15
125 32
126 11
127 12
128 46
129 12
130 22
131 36
132 0
133 45
134 18
135 1
136 25
137 14
138 42
139 7
140 31
141 39
142 29
143 3
144 39
145 31
146 17
147 11
148 45
149 22
150 14
151 31
152 39
153 42
154 47
155 44
156 7
157 24
158 40
159 36
160 29
161 27
162 27
163 38
164 8
165 4
166 42
167 48
168 11
169 5
170 16
171 11
172 49
173 23
174 26
175 39
176 21
177 37
178 29
179 28
180 13
181 48
182 19
183 47
184 9
185 32
186 38
187 14
188 38
189 48
190 39
191 34
192 16
193 33
194 14
195 33
196 39
197 50
198 5
199 32
200 49
201 29
202 13
203 26
204 9
205 26
206 41
207 0
208 26
209 4
210 33
211 9
212 38
213 25
214 42
215 6
216 1
217 33
218 27
219 6
220 8
221 1
222 25
223 4
224 30
225 36
226 28
227 4
228 6
229 15
230 15
231 18
232 16
233 7
234 27
235 16
236 40
237 23
238 51
239 28
240 49
241 44
242 31
243 9
244 35
245 7
246 52
247 2
248 30
249 52
250 11
251 31
252 1
253 5
254 39
255 9
256 5
257 22
258 0
259 44
260 47
261 15
262 11
263 46
264 7
265 0
266 16
267 27
268 19
269 39
270 13
271 21
272 8
273 24
274 4
275 1
276 0
277 53
278 39
279 28
280 37
281 32
282 46
283 29
284 39
285 30
286 19
287 42
288 8
289 41
290 28
291 20
292 0
293 42
294 22
295 6
296 22
297 32
298 24
299 52
300 8
301 47
302 15
303 29
304 30
305 22
306 17
307 36
308 9
309 34
310 4
311 21
312 22
313 0
314 12
315 28
316 37
317 15
318 6
319 27
320 50
321 54
322 29
323 13
324 29
325 46
326 15
327 39
328 4
329 20
330 14
331 22
332 11
333 37
334 50
335 9
336 22
337 0
338 7
339 10
340 15
341 32
342 47
343 46
344 43
345 15
346 25
347 16
348 41
349 47
350 11
351 14
352 43
353 27
354 23
355 21
356 30
357 14
358 36
359 6
360 39
361 45
362 41
363 45
364 33
365 41
366 47
367 18
368 0
369 25
370 24
371 44
372 33
373 27
374 29
375 54
376 43
377 42
378 4
379 27
380 50
381 7
382 14
383 46
384 45
385 22
386 25
387 16
388 2
389 33
390 39
391 9
392 29
393 9
394 7
395 24
396 0
397 5
398 32
399 47
400 40
401 40
402 47
403 28
404 41
405 8
406 37
407 20
408 36
409 16
410 10
411 55
412 5
413 15
414 10
415 27
416 20
417 13
418 12
419 1
420 31
421 46
422 47
423 19
424 14
425 18
426 15
427 14
428 24
429 15
430 7
431 20
432 50
433 19
434 36
435 49
436 39
437 15
438 46
439 52
440 11
441 42
442 11
443 23
444 21
445 6
446 39
447 0
448 37
449 15
450 45
451 33
452 28
453 42
454 29
455 49
456 53
457 39
458 43
459 39
460 24
461 2
462 1
463 11
464 8
465 12
466 4
467 52
468 49
469 34
470 6
471 43
472 25
473 20
474 43
475 48
476 29
477 0
478 48
479 27
480 24
481 36
482 23
483 29
484 16
485 32
486 5
487 41
488 16
489 17
490 23
491 40
492 38
493 9
494 39
495 38
496 18
497 41
498 3
499 42
500 39
501 45
502 39
503 8
504 13
505 13
506 39
507 9
508 17
509 2
510 40
511 48
512 52
513 24
514 52
515 45
516 1
517 33
518 11
519 29
520 42
521 32
522 26
523 28
524 2
525 2
526 16
527 42
528 52
529 7
530 21
531 2
532 49
533 15
534 21
535 28
536 47
537 9
538 4
539 24
540 21
541 42
542 29
543 19
544 25
545 39
546 21
547 7
548 23
549 25
550 36
551 27
552 42
553 2
554 28
555 3
556 44
557 34
558 20
559 42
560 29
561 45
562 46
563 45
564 50
565 20
566 5
567 44
568 6
569 6
570 23
571 52
572 37
573 47
574 33
575 28
576 0
577 42
578 44
579 29
580 7
581 1
582 21
583 37
584 20
585 0
586 28
587 5
588 41
589 24
590 13
591 16
592 17
593 47
594 0
595 50
596 16
597 40
598 38
599 24
600 26
601 34
602 24
603 28
604 26
605 4
606 41
607 30
608 21
609 14
610 15
611 6
612 38
613 49
614 39
615 8
616 20
617 54
618 4
619 2
620 11
621 31
622 38
623 0
624 12
625 39
626 45
627 5
628 50
629 13
630 25
631 42
632 3
633 1
634 29
635 44
636 20
637 7
638 39
639 38
640 26
641 32
642 9
643 25
644 28
645 23
646 26
647 45
648 17
649 36
650 9
651 28
652 0
653 38
654 41
655 49
656 1
657 36
658 52
659 19
660 52
661 18
662 13
663 48
664 45
665 28
666 25
667 0
668 48
669 12
670 29
671 2
672 15
673 38
674 12
675 0
676 39
677 9
678 44
679 16
680 7
681 14
682 8
683 38
684 16
685 34
686 27
687 22
688 34
689 46
690 24
691 4
692 20
693 2
694 44
695 45
696 42
697 21
698 39
699 21
700 1
701 38
702 1
703 38
704 22
705 7
706 24
707 0
708 35
709 16
710 16
711 20
712 43
713 22
714 24
715 44
716 34
717 47
718 46
719 24
720 15
721 25
722 18
723 7
724 38
725 48
726 2
727 22
728 17
729 17
730 1
731 16
732 53
733 2
734 8
735 4
736 15
737 49
738 14
739 47
740 18
741 26
742 14
743 30
744 39
745 5
746 30
747 45
748 23
749 39
750 7
751 31
752 4
753 29
754 8
755 29
756 29
757 0
758 24
759 48
760 28
761 18
762 6
763 47
764 27
765 37
766 2
767 47
768 3
769 46
770 46
771 17
772 1
773 1
774 7
775 9
776 4
777 9
778 19
779 36
780 55
781 13
782 7
783 24
784 38
785 16
786 38
787 41
788 42
789 47
790 6
791 53
792 28
793 24
794 0
795 38
796 37
797 21
798 47
799 32
800 16
801 31
802 15
803 20
804 3
805 21
806 23
807 20
808 3
809 13
810 9
811 21
812 34
813 49
814 48
815 27
816 43
817 1
818 29
819 44
820 51
821 45
822 32
823 25
824 2
825 41
826 24
827 51
828 37
829 32
830 27
831 25
832 29
833 44
834 52
835 46
836 3
837 15
838 13
839 7
840 7
841 18
842 38
843 9
844 32
845 26
846 41
847 0
848 19
849 29
850 7
851 37
852 5
853 49
854 29
855 33
856 49
857 6
858 20
859 46
860 31
861 40
862 41
863 21
864 30
865 42
866 25
867 43
868 16
869 11
870 13
871 17
872 21
873 40
874 36
875 27
876 37
877 18
878 38
879 16
880 47
881 6
882 11
883 49
884 19
885 37
886 6
887 28
888 55
889 43
890 29
891 44
892 45
893 15
894 35
895 50
896 28
897 11
898 48
899 4
900 17
901 34
902 0
903 52
904 37
905 25
906 12
907 40
908 25
909 38
910 5
911 48
912 20
913 34
914 41
915 29
916 46
917 41
918 39
919 1
920 0
921 23
922 37
923 0
924 41
925 27
926 44
927 5
928 2
929 0
930 14
931 19
932 42
933 15
934 24
935 14
936 3
937 50
938 2
939 44
940 10
941 15
942 3
943 44
944 18
945 5
946 42
947 46
948 9
949 0
950 47
951 19
952 14
953 48
954 4
955 14
956 55
957 42
958 13
959 1
960 48
961 53
962 29
963 26
964 34
965 52
966 11
967 41
968 24
969 32
970 38
971 48
972 46
973 44
974 0
975 23
976 23
977 37
978 22
979 43
980 10
981 4
982 43
983 12
984 14
985 47
986 29
987 21
988 7
989 24
990 37
991 27
992 32
993 48
994 30
995 36
996 48
997 16
998 6
999 17
1000 24
1001 29
1002 17
1003 5
1004 20
1005 23
1006 21
1007 30
1008 38
1009 41
1010 5
1011 34
1012 51
1013 48
1014 6
1015 13
1016 10
1017 17
1018 29
1019 32
1020 48
1021 24
1022 26
1023 34
1024 3
1025 45
1026 43
1027 26
1028 14
1029 22
1030 28
1031 6
1032 41
1033 28
1034 43
1035 11
1036 25
1037 38
1038 20
1039 23
1040 54
1041 50
1042 11
1043 44
1044 39
1045 34
1046 0
1047 42
1048 49
1049 44
1050 50
1051 14
1052 15
1053 29
1054 30
1055 0
1056 5
1057 20
1058 50
1059 24
1060 52
1061 33
1062 50
1063 0
1064 40
1065 23
1066 31
1067 46
1068 27
1069 31
1070 5
1071 4
1072 0
1073 19
1074 30
1075 31
1076 29
1077 16
1078 45
1079 4
1080 22
1081 0
1082 25
1083 44
1084 7
1085 24
1086 16
1087 22
1088 42
1089 48
1090 15
1091 32
1092 8
1093 44
1094 48
1095 31
1096 39
1097 27
1098 42
1099 34
1100 17
1101 40
1102 4
1103 30
1104 31
1105 24
1106 0
1107 37
1108 52
1109 8
1110 24
1111 14
1112 25
1113 27
1114 29
1115 20
1116 1
1117 44
1118 44
1119 52
1120 26
1121 47
1122 41
1123 39
1124 28
1125 44
1126 28
1127 6
1128 32
1129 19
1130 38
1131 43
1132 42
1133 54
1134 37
1135 26
1136 19
1137 25
1138 26
1139 22
1140 23
1141 26
1142 49
1143 8
1144 14
1145 30
1146 22
1147 52
1148 39
1149 21
1150 39
1151 21
1152 52
1153 13
1154 17
1155 47
1156 8
1157 48
1158 6
1159 47
1160 17
1161 1
1162 47
1163 5
1164 44
1165 54
1166 5
1167 14
1168 37
1169 50
1170 14
1171 30
1172 39
1173 53
1174 18
1175 48
1176 37
1177 9
1178 27
1179 54
1180 15
1181 15
1182 40
1183 53
1184 52
1185 32
1186 16
1187 8
1188 45
1189 21
1190 2
1191 31
1192 32
1193 22
1194 22
1195 52
1196 34
1197 7
1198 38
1199 37
1200 36
1201 49
1202 20
1203 25
1204 52
1205 54
1206 11
1207 42
1208 19
1209 22
1210 0
1211 38
1212 43
1213 19
1214 29
1215 11
1216 12
1217 28
1218 41
1219 7
1220 16
1221 29
1222 46
1223 32
1224 39
1225 27
1226 53
1227 24
1228 22
1229 29
1230 28
1231 0
1232 26
1233 29
1234 25
1235 20
1236 35
1237 25
1238 2
1239 4
1240 16
1241 52
1242 47
1243 25
1244 3
1245 21
1246 48
1247 25
1248 39
1249 34
1250 36
1251 38
1252 31
1253 25
1254 6
1255 31
1256 2
1257 43
1258 20
1259 7
1260 52
1261 36
1262 2
1263 4
1264 24
1265 25
1266 7
1267 29
1268 4
1269 7
1270 22
1271 26
1272 52
1273 29
1274 27
1275 39
1276 53
1277 6
1278 31
1279 53
1280 25
1281 52
1282 29
1283 6
1284 46
1285 19
1286 25
1287 21
1288 24
1289 27
1290 50
1291 50
1292 23
1293 43
1294 30
1295 31
1296 42
1297 23
1298 12
1299 42
1300 38
1301 26
1302 25
1303 8
1304 38
1305 20
1306 3
1307 26
1308 7
1309 20
1310 6
1311 29
1312 7
1313 1
1314 16
1315 3
1316 22
1317 2
1318 24
1319 43
1320 45
1321 30
1322 9
1323 21
1324 53
1325 4
1326 47
1327 15
1328 33
1329 1
1330 33
1331 27
1332 6
1333 44
1334 48
1335 27
1336 4
1337 8
1338 47
1339 7
1340 19
1341 39
1342 48
1343 29
1344 7
1345 28
1346 34
1347 41
1348 29
1349 3
1350 39
1351 10
1352 28
1353 41
1354 27
1355 27
1356 6
1357 28
1358 42
1359 52
1360 30
1361 12
1362 24
1363 20
1364 0
1365 24
1366 32
1367 47
1368 4
1369 44
1370 3
1371 44
1372 21
1373 27
1374 17
1375 14
1376 18
1377 34
1378 34
1379 24
1380 25
1381 0
1382 27
1383 7
1384 16
1385 10
1386 4
1387 22
1388 15
1389 37
1390 26
1391 0
1392 48
1393 24
1394 34
1395 38
1396 38
1397 42
1398 9
1399 21
1400 25
1401 45
1402 23
1403 37
1404 35
1405 11
1406 20
1407 18
1408 35
1409 50
1410 33
1411 54
1412 34
1413 5
1414 4
1415 20
1416 34
1417 19
1418 45
1419 22
1420 53
1421 36
1422 3
1423 47
1424 11
1425 37
1426 38
1427 42
1428 54
1429 40
1430 48
1431 19
1432 28
1433 11
1434 27
1435 45
1436 9
1437 14
1438 47
1439 1
1440 16
1441 6
1442 29
1443 50
1444 9
1445 2
1446 21
1447 3
1448 10
1449 29
1450 7
1451 3
1452 1
1453 43
1454 0
1455 21
1456 54
1457 18
1458 26
1459 0
1460 15
1461 31
1462 53
1463 2
1464 29
1465 44
1466 7
1467 17
1468 31
1469 46
1470 48
1471 3
1472 18
1473 40
1474 34
1475 0
1476 1
1477 34
1478 19
1479 47
1480 29
1481 30
1482 41
1483 22
1484 43
1485 8
1486 16
1487 47
1488 17
1489 20
1490 54
1491 39
1492 52
1493 52
1494 14
1495 0
1496 52
1497 13
1498 21
1499 33
1500 44
1501 42
1502 42
1503 45
1504 9
1505 42
1506 18
1507 42
1508 50
1509 11
1510 32
1511 43
1512 6
1513 38
1514 17
1515 18
1516 37
1517 28
1518 47
1519 3
1520 28
1521 52
1522 42
1523 0
1524 48
1525 17
1526 36
1527 6
1528 29
1529 48
1530 22
1531 4
1532 47
1533 7
1534 6
1535 48
1536 50
1537 29
1538 22
1539 34
1540 31
1541 10
1542 15
1543 31
1544 46
1545 51
1546 9
1547 35
1548 15
1549 31
1550 38
1551 30
1552 32
1553 20
1554 47
1555 41
1556 27
1557 31
1558 40
1559 19
1560 8
1561 13
1562 31
1563 26
1564 43
1565 15
1566 50
1567 17
1568 31
1569 6
1570 37
1571 37
1572 38
1573 1
1574 12
1575 47
1576 12
1577 15
1578 16
1579 42
1580 29
1581 4
1582 28
1583 23
1584 43
1585 22
1586 36
1587 32
1588 13
1589 3
1590 5
1591 37
1592 29
1593 0
1594 13
1595 22
1596 6
1597 45
1598 36
1599 40
1600 49
1601 37
1602 43
1603 5
1604 25
1605 21
1606 3
1607 6
1608 43
1609 2
1610 34
1611 14
1612 42
1613 37
1614 1
1615 34
1616 42
1617 18
1618 20
1619 19
1620 15
1621 34
1622 46
1623 7
1624 17
1625 2
1626 4
1627 26
1628 32
1629 50
1630 37
1631 42
1632 17
1633 0
1634 38
1635 55
1636 29
1637 36
1638 14
1639 24
1640 50
1641 40
1642 37
1643 45
1644 14
1645 16
1646 21
1647 20
1648 45
1649 30
1650 4
1651 33
1652 17
1653 24
1654 24
1655 8
1656 23
1657 1
1658 53
1659 28
1660 29
1661 2
1662 21
1663 1
1664 52
1665 4
1666 11
1667 29
1668 32
1669 19
1670 16
1671 50
1672 52
1673 48
1674 6
1675 41
1676 52
1677 48
1678 44
1679 48
1680 0
1681 2
1682 29
1683 42
1684 22
1685 47
1686 14
1687 12
1688 4
1689 54
1690 34
1691 42
1692 42
1693 11
1694 35
1695 21
1696 20
1697 16
1698 49
1699 44
1700 38
1701 35
1702 10
1703 25
1704 27
1705 23
1706 28
1707 38
1708 20
1709 16
1710 12
1711 7
1712 46
1713 0
1714 34
1715 27
1716 47
1717 2
1718 36
1719 9
1720 23
1721 31
1722 6
1723 7
1724 46
1725 33
1726 44
1727 9
1728 24
1729 36
1730 22
1731 21
1732 29
1733 39
1734 7
1735 16
1736 26
1737 29
1738 44
1739 39
1740 19
1741 4
1742 46
1743 48
1744 20
1745 38
1746 37
1747 54
1748 54
1749 1
1750 7
1751 8
1752 26
1753 4
1754 13
1755 5
1756 17
1757 11
1758 9
1759 48
1760 28
1761 36
1762 50
1763 19
1764 34
1765 29
1766 34
1767 17
1768 10
1769 16
1770 37
1771 24
1772 42
1773 26
1774 15
1775 16
1776 27
1777 36
1778 41
1779 39
1780 27
1781 42
1782 54
1783 20
1784 31
1785 23
1786 32
1787 9
1788 18
1789 19
1790 0
1791 32
1792 0
1793 31
1794 53
1795 16
1796 19
1797 23
1798 24
1799 2
1800 8
1801 19
1802 26
1803 9
1804 54
1805 41
1806 1
1807 21
1808 45
1809 18
1810 42
1811 54
1812 23
1813 4
1814 35
1815 15
1816 19
1817 31
1818 38
1819 15
1820 50
1821 46
1822 41
1823 37
1824 21
1825 23
1826 22
1827 27
1828 31
1829 0
1830 37
1831 46
1832 31
1833 42
1834 16
1835 5
1836 27
1837 26
1838 28
1839 2
1840 41
1841 52
1842 29
1843 16
1844 27
1845 23
1846 2
1847 12
1848 30
1849 54
1850 45
1851 28
1852 27
1853 13
1854 23
1855 25
1856 29
1857 24
1858 47
1859 15
1860 22
1861 48
1862 22
1863 28
1864 54
1865 26
1866 0
1867 54
1868 29
1869 38
1870 21
1871 44
1872 27
1873 26
1874 52
1875 34
1876 29
1877 52
1878 23
1879 28
1880 17
1881 19
1882 43
1883 19
1884 17
1885 29
1886 52
1887 19
1888 37
1889 16
1890 19
1891 43
1892 47
1893 30
1894 46
1895 50
1896 4
1897 30
1898 32
1899 40
1900 0
1901 22
1902 31
1903 16
1904 14
1905 43
1906 21
1907 22
1908 2
1909 1
1910 6
1911 46
1912 46
1913 17
1914 11
1915 21
1916 17
1917 3
1918 46
1919 0
1920 7
1921 43
1922 3
1923 25
1924 46
1925 21
1926 27
1927 20
1928 32
1929 39
1930 34
1931 16
1932 22
1933 19
1934 38
1935 12
1936 15
1937 34
1938 33
1939 21
1940 39
1941 7
1942 38
1943 22
1944 52
1945 41
1946 37
1947 0
1948 31
1949 49
1950 24
1951 16
1952 24
1953 36
1954 15
1955 34
1956 52
1957 20
1958 23
1959 15
1960 12
1961 39
1962 24
1963 37
1964 39
1965 18
1966 19
1967 52
1968 4
1969 20
1970 33
1971 16
1972 34
1973 24
1974 32
1975 21
1976 33
1977 45
1978 51
1979 24
1980 1
1981 27
1982 6
1983 9
1984 49
1985 20
1986 13
1987 52
1988 32
1989 10
1990 6
1991 14
1992 35
1993 25
1994 27
1995 10
1996 11
1997 35
1998 6
1999 29
2000 43
2001 27
2002 23
2003 32
2004 20
2005 49
2006 5
2007 14
2008 24
2009 21
2010 23
2011 51
2012 27
2013 31
2014 30
2015 36
2016 26
2017 29
2018 54
2019 49
2020 52
2021 39
2022 32
2023 1
2024 22
2025 46
2026 39
2027 23
2028 21
2029 27
2030 3
2031 32
2032 13
2033 52
2034 41
2035 12
2036 40
2037 50
2038 43
2039 9
2040 28
2041 49
2042 8
2043 31
2044 53
2045 16
2046 29
2047 27
2048 43
2049 23
2050 2
2051 11
2052 28
2053 24
2054 43
2055 26
2056 1
2057 29
2058 27
2059 0
2060 19
2061 16
2062 38
2063 20
2064 5
2065 11
2066 10
2067 6
2068 24
2069 48
2070 25
2071 25
2072 54
2073 31
2074 10
2075 42
2076 37
2077 31
2078 43
2079 46
2080 14
2081 36
2082 39
2083 9
2084 50
2085 14
2086 44
2087 5
2088 24
2089 0
2090 48
2091 30
2092 53
2093 39
2094 14
2095 11
2096 46
2097 50
2098 31
2099 37
2100 54
2101 5
2102 48
2103 0
2104 37
2105 48
2106 27
2107 2
2108 32
2109 8
2110 7
2111 26
2112 42
2113 12
2114 37
2115 53
2116 9
2117 4
2118 6
2119 1
2120 24
2121 14
2122 39
2123 34
2124 22
2125 44
2126 6
2127 17
2128 20
2129 19
2130 8
2131 24
2132 1
2133 37
2134 14
2135 6
2136 17
2137 52
2138 23
2139 53
2140 45
2141 39
2142 20
2143 36
2144 24
2145 32
2146 26
2147 0
2148 9
2149 45
2150 15
2151 16
2152 15
2153 40
2154 34
2155 41
2156 27
2157 11
2158 5
2159 10
2160 34
2161 8
2162 16
2163 31
2164 13
2165 20
2166 41
2167 29
2168 33
2169 27
2170 47
2171 11
2172 48
2173 14
2174 8
2175 2
2176 48
2177 49
2178 22
2179 34
2180 20
2181 8
2182 5
2183 18
2184 11
2185 5
2186 46
2187 15
2188 19
2189 10
2190 10
2191 6
2192 20
2193 41
2194 13
2195 35
2196 43
2197 0
2198 32
2199 22
2200 24
2201 0
2202 33
2203 16
2204 49
2205 52
2206 43
2207 34
2208 10
2209 4
2210 48
2211 52
2212 19
2213 28
2214 0
2215 17
2216 16
2217 25
2218 19
2219 21
2220 21
2221 9
2222 52
2223 36
2224 13
2225 6
2226 10
2227 54
2228 25
2229 52
2230 9
2231 34
2232 46
2233 28
2234 38
2235 17
2236 1
2237 54
2238 24
2239 13
2240 52
2241 11
2242 38
2243 23
2244 39
2245 42
2246 21
2247 49
2248 9
2249 24
2250 6
2251 22
2252 17
2253 33
2254 38
2255 11
2256 26
2257 8
2258 36
2259 21
2260 20
2261 21
2262 41
2263 21
2264 47
2265 52
2266 50
2267 49
2268 51
2269 45
2270 10
2271 50
2272 16
2273 47
2274 4
2275 37
2276 26
2277 41
2278 42
2279 42
2280 46
2281 38
2282 22
2283 27
2284 33
2285 15
2286 8
2287 44
2288 43
2289 37
2290 18
2291 20
2292 43
2293 14
2294 50
2295 39
2296 32
2297 14
2298 29
2299 43
2300 22
2301 16
2302 48
2303 15
2304 29
2305 38
2306 23
2307 55
2308 4
2309 36
2310 32
2311 31
2312 5
2313 24
2314 50
2315 32
2316 6
2317 13
2318 50
2319 24
2320 45
2321 17
2322 23
2323 10
2324 35
2325 22
2326 31
2327 34
2328 17
2329 2
2330 46
2331 9
2332 26
2333 21
2334 20
2335 5
2336 12
2337 24
2338 1
2339 31
2340 55
2341 30
2342 41
2343 1
2344 15
2345 52
2346 27
2347 48
2348 54
2349 1
2350 16
2351 34
2352 35
2353 32
2354 14
2355 9
2356 12
2357 12
2358 43
2359 4
2360 31
2361 7
2362 22
2363 42
2364 14
2365 2
2366 35
2367 5
2368 8
2369 48
2370 17
2371 20
2372 48
2373 8
2374 35
2375 26
2376 41
2377 46
2378 29
2379 19
2380 8
2381 24
2382 45
2383 28
2384 15
2385 54
2386 42
2387 19
2388 51
2389 52
2390 37
2391 26
2392 15
2393 50
2394 55
2395 33
2396 50
2397 28
2398 50
2399 16
2400 29
2401 16
2402 3
2403 16
2404 24
2405 37
2406 41
2407 41
2408 45
2409 8
2410 15
2411 26
2412 25
2413 44
2414 23
2415 33
2416 18
2417 29
2418 46
2419 10
2420 44
2421 25
2422 23
2423 32
2424 2
2425 16
2426 37
2427 28
2428 24
2429 34
2430 43
2431 40
2432 49
2433 8
2434 6
2435 52
2436 19
2437 39
2438 50
2439 25
2440 40
2441 32
2442 54
2443 22
2444 13
2445 16
2446 26
2447 41
2448 13
2449 20
2450 54
2451 16
2452 26
2453 45
2454 8
2455 39
2456 2
2457 33
2458 23
2459 27
2460 52
2461 20
2462 1
2463 12
2464 2
2465 11
2466 33
2467 39
2468 21
2469 54
2470 18
2471 5
2472 24
2473 38
2474 33
2475 10
2476 29
2477 35
2478 19
2479 21
2480 32
2481 41
2482 28
2483 50
2484 50
2485 36
2486 36
2487 13
2488 42
2489 25
2490 30
2491 19
2492 54
2493 24
2494 24
2495 30
2496 47
2497 42
2498 32
2499 38
2500 15
2501 29
2502 33
2503 47
2504 47
2505 16
2506 39
2507 50
2508 54
2509 19
2510 32
2511 20
2512 39
2513 22
2514 42
2515 38
2516 26
2517 31
2518 28
2519 9
2520 52
2521 24
2522 3
2523 16
2524 40
2525 0
2526 6
2527 3
2528 13
2529 12
2530 46
2531 42
2532 25
2533 20
2534 33
2535 38
2536 35
2537 38
2538 48
2539 32
2540 54
2541 29
2542 1
2543 52
2544 25
2545 19
2546 52
2547 0
2548 25
2549 17
2550 4
2551 28
2552 44
2553 17
2554 25
2555 7
2556 41
2557 0
2558 5
2559 8
2560 48
2561 50
2562 52
2563 28
2564 21
2565 6
2566 54
2567 50
2568 14
2569 13
2570 26
2571 9
2572 15
2573 42
2574 26
2575 1
2576 8
2577 19
2578 42
2579 22
2580 34
2581 22
2582 29
2583 41
2584 52
2585 47
2586 31
2587 19
2588 15
2589 9
2590 35
2591 40
2592 52
2593 19
2594 44
2595 31
2596 22
2597 37
2598 34
2599 4
2600 29
2601 20
2602 37
2603 35
2604 5
2605 44
2606 17
2607 48
2608 29
2609 31
2610 16
2611 41
2612 6
2613 15
2614 17
2615 37
2616 15
2617 54
2618 32
2619 6
2620 54
2621 44
2622 1
2623 42
2624 20
2625 13
2626 46
2627 36
2628 34
2629 21
2630 30
2631 22
2632 0
2633 26
2634 24
2635 5
2636 15
2637 2
2638 1
2639 20
2640 37
2641 11
2642 5
2643 10
2644 34
2645 38
2646 14
2647 39
2648 28
2649 32
2650 25
2651 3
2652 27
2653 39
2654 23
2655 43
2656 24
2657 45
2658 41
2659 10
2660 1
2661 28
2662 46
2663 44
2664 32
2665 38
2666 47
2667 12
2668 7
2669 8
2670 13
2671 39
2672 41
2673 14
2674 14
2675 38
2676 21
2677 33
2678 1
2679 54
2680 16
2681 38
2682 43
2683 21
2684 4
2685 7
2686 4
2687 48
2688 34
2689 25
2690 48
2691 38
2692 42
2693 15
2694 42
2695 22
2696 34
2697 52
2698 32
2699 22
2700 6
2701 4
2702 32
2703 20
2704 46
2705 26
2706 19
2707 31
2708 34
2709 5
2710 32
2711 7
2712 14
2713 4
2714 52
2715 30
2716 8
2717 23
2718 29
2719 48
2720 17
2721 1
2722 48
2723 42
2724 37
2725 34
2726 28
2727 20
2728 31
2729 21
2730 11
2731 32
2732 7
2733 37
2734 50
2735 27
2736 13
2737 21
2738 19
2739 29
2740 10
2741 48
2742 0
2743 33
2744 22
2745 26
2746 26
2747 38
2748 42
2749 17
2750 16
2751 8
2752 19
2753 27
2754 17
2755 38
2756 14
2757 28
2758 30
2759 38
2760 29
2761 39
2762 43
2763 3
2764 49
2765 42
2766 47
2767 39
2768 34
2769 6
2770 24
2771 47
2772 15
2773 31
2774 54
2775 42
2776 5
2777 38
2778 33
2779 22
2780 25
2781 13
2782 7
2783 22
2784 43
2785 46
2786 32
2787 11
2788 39
2789 52
2790 24
2791 43
2792 25
2793 28
2794 24
2795 35
2796 11
2797 8
2798 19
2799 28
2800 54
2801 44
2802 2
2803 3
2804 39
2805 19
2806 47
2807 50
2808 44
2809 29
2810 31
2811 45
2812 34
2813 52
2814 38
2815 25
2816 38
2817 6
2818 31
2819 16
2820 45
2821 29
2822 15
2823 6
2824 35
2825 43
2826 12
2827 22
2828 20
2829 23
2830 24
2831 45
2832 31
2833 19
2834 15
2835 15
2836 51
2837 50
2838 0
2839 50
2840 29
2841 1
2842 34
2843 25
2844 46
2845 6
2846 1
2847 14
2848 29
2849 20
2850 14
2851 12
2852 45
2853 36
2854 23
2855 21
2856 34
2857 32
2858 12
2859 38
2860 6
2861 6
2862 41
2863 38
2864 14
2865 4
2866 7
2867 29
2868 3
2869 42
2870 30
2871 13
2872 54
2873 11
2874 27
2875 49
2876 6
2877 20
2878 55
2879 1
2880 43
2881 33
2882 52
2883 20
2884 38
2885 9
2886 53
2887 23
2888 39
2889 42
2890 37
2891 16
2892 11
2893 25
2894 38
2895 47
2896 3
2897 47
2898 4
2899 13
2900 28
2901 13
2902 49
2903 38
2904 53
2905 23
2906 0
2907 28
2908 52
2909 21
2910 37
2911 34
2912 2
2913 14
2914 45
2915 43
2916 21
2917 24
2918 18
2919 39
2920 24
2921 25
2922 0
2923 22
2924 24
2925 38
2926 24
2927 52
2928 45
2929 24
2930 41
2931 26
2932 37
2933 46
2934 38
2935 27
2936 16
2937 17
2938 50
2939 8
2940 14
2941 45
2942 21
2943 31
2944 34
2945 34
2946 48
2947 10
2948 11
2949 37
2950 29
2951 6
2952 47
2953 38
2954 30
2955 17
2956 14
2957 22
2958 47
2959 7
2960 48
2961 29
2962 26
2963 28
2964 32
2965 25
2966 12
2967 26
2968 40
2969 41
2970 15
2971 26
2972 30
2973 7
2974 7
2975 45
2976 1
2977 50
2978 43
2979 0
2980 30
2981 22
2982 16
2983 47
2984 44
2985 8
2986 27
2987 45
2988 32
2989 12
2990 51
2991 3
2992 10
2993 34
2994 35
2995 43
2996 10
2997 27
2998 38
2999 41
3000 41
3001 30
3002 28
3003 2
3004 4
3005 6
3006 28
3007 39
3008 43
3009 43
3010 14
3011 17
3012 10
3013 53
3014 38
3015 35
3016 47
3017 1
3018 14
3019 26
3020 42
3021 9
3022 8
3023 2
3024 16
3025 30
3026 28
3027 49
3028 37
3029 26
3030 22
3031 52
3032 28
3033 27
3034 15
3035 27
3036 27
3037 48
3038 41
3039 37
3040 43
3041 1
3042 12
3043 38
3044 38
3045 50
3046 20
3047 29
3048 47
3049 48
3050 12
3051 10
3052 7
3053 39
3054 13
3055 18
3056 44
3057 54
3058 38
3059 48
3060 17
3061 0
3062 53
3063 44
3064 41
3065 32
3066 33
3067 13
3068 29
3069 1
3070 42
3071 39
3072 24
3073 53
3074 22
3075 4
3076 13
3077 32
3078 47
3079 16
3080 29
3081 43
3082 41
3083 25
3084 28
3085 20
3086 54
3087 39
3088 18
3089 32
3090 43
3091 46
3092 49
3093 40
3094 11
3095 47
3096 14
3097 7
3098 38
3099 10
3100 30
3101 7
3102 32
3103 43
3104 30
3105 14
3106 54
3107 26
3108 48
3109 3
3110 26
3111 16
3112 27
3113 35
3114 25
3115 48
3116 31
3117 8
3118 6
3119 23
3120 46
3121 29
3122 18
3123 47
3124 36
3125 19
3126 46
3127 50
3128 6
3129 52
3130 31
3131 26
3132 34
3133 47
3134 54
3135 27
3136 52
3137 2
3138 12
3139 41
3140 29
3141 41
3142 3
3143 35
3144 7
3145 54
3146 16
3147 22
3148 7
3149 6
3150 8
3151 35
3152 27
3153 5
3154 19
3155 18
3156 20
3157 43
3158 34
3159 50
3160 38
3161 39
3162 27
3163 5
3164 45
3165 6
3166 37
3167 44
3168 51
3169 23
3170 24
3171 4
3172 20
3173 28
3174 16
3175 23
3176 2
3177 33
3178 31
3179 53
3180 6
3181 21
3182 34
3183 0
3184 38
3185 11
3186 26
3187 0
3188 26
3189 27
3190 47
3191 52
3192 44
3193 17
3194 13
3195 16
3196 25
3197 8
3198 41
3199 32
3200 38
3201 23
3202 15
3203 6
3204 21
3205 23
3206 39
3207 40
3208 31
3209 55
3210 7
3211 16
3212 5
3213 44
3214 11
3215 32
3216 9
3217 13
3218 8
3219 8
3220 15
3221 32
3222 12
3223 41
3224 1
3225 37
3226 26
3227 51
3228 7
3229 39
3230 2
3231 31
3232 34
3233 28
3234 34
3235 53
3236 39
3237 25
3238 30
3239 12
3240 15
3241 16
3242 34
3243 0
3244 27
3245 39
3246 0
3247 7
3248 10
3249 12
3250 0
3251 10
3252 23
3253 34
3254 47
3255 20
3256 24
3257 29
3258 38
3259 19
3260 15
3261 27
3262 6
3263 33
3264 4
3265 7
3266 32
3267 30
3268 4
3269 36
3270 27
3271 23
3272 38
3273 38
3274 47
3275 3
3276 22
3277 8
3278 46
3279 36
3280 1
3281 23
3282 19
3283 37
3284 42
3285 37
3286 44
3287 10
3288 17
3289 38
3290 48
3291 11
3292 11
3293 29
3294 11
3295 20
3296 11
3297 7
3298 13
3299 26
3300 49
3301 15
3302 27
3303 22
3304 52
3305 10
3306 25
3307 24
3308 47
3309 35
3310 44
3311 35
3312 1
3313 43
3314 27
3315 15
3316 2
3317 10
3318 5
3319 37
3320 45
3321 1
3322 4
3323 13
3324 15
3325 31
3326 4
3327 1
3328 20
3329 20
3330 3
3331 45
3332 55
3333 13
3334 9
3335 29
3336 33
3337 2
3338 39
3339 50
3340 25
3341 44
3342 31
3343 46
3344 25
3345 38
3346 42
3347 43
3348 26
3349 47
3350 32
3351 52
3352 23
3353 0
3354 8
3355 10
3356 32
3357 38
3358 54
3359 16
3360 47
3361 36
3362 3
3363 24
3364 14
3365 23
3366 27
3367 33
3368 8
3369 6
3370 31
3371 24
3372 46
3373 55
3374 20
3375 14
3376 42
3377 53
3378 40
3379 26
3380 16
3381 17
3382 50
3383 49
3384 29
3385 8
3386 37
3387 49
3388 47
3389 35
3390 14
3391 52
3392 47
3393 13
3394 0
3395 7
3396 11
3397 37
3398 29
3399 0
3400 32
3401 37
3402 6
3403 42
3404 49
3405 13
3406 33
3407 46
3408 28
3409 37
3410 0
3411 33
3412 40
3413 47
3414 27
3415 33
3416 12
3417 22
3418 33
3419 8
3420 23
3421 22
3422 38
3423 19
3424 42
3425 24
3426 32
3427 23
3428 10
3429 50
3430 10
3431 50
3432 15
3433 38
3434 27
3435 3
3436 33
3437 44
3438 31
3439 24
3440 15
3441 29
3442 25
3443 41
3444 12
3445 54
3446 29
3447 39
3448 24
3449 13
3450 19
3451 22
3452 19
3453 45
3454 47
3455 37
3456 20
3457 3
3458 14
3459 39
3460 6
3461 29
3462 33
3463 17
3464 34
3465 17
3466 46
3467 7
3468 55
3469 13
3470 25
3471 24
3472 25
3473 50
3474 54
3475 30
3476 4
3477 43
3478 43
3479 8
3480 24
3481 26
3482 5
3483 32
3484 4
3485 8
3486 35
3487 10
3488 51
3489 52
3490 27
3491 16
3492 53
3493 49
3494 51
3495 39
3496 39
3497 12
3498 54
3499 10
3500 32
3501 49
3502 4
3503 7
3504 48
3505 30
3506 30
3507 32
3508 42
3509 22
3510 11
3511 7
3512 42
3513 21
3514 6
3515 52
3516 33
3517 17
3518 33
3519 42
3520 5
3521 26
3522 49
3523 52
3524 32
3525 14
3526 48
3527 41
3528 26
3529 7
3530 27
3531 17
3532 32
3533 34
3534 50
3535 33
3536 31
3537 1
3538 42
3539 18
3540 30
3541 48
3542 7
3543 24
3544 1
3545 20
3546 34
3547 6
3548 11
3549 30
3550 15
3551 26
3552 38
3553 14
3554 13
3555 5
3556 53
3557 13
3558 48
3559 8
3560 15
3561 34
3562 8
3563 16
3564 48
3565 30
3566 38
3567 47
3568 54
3569 54
3570 20
3571 31
3572 7
3573 36
3574 34
3575 39
3576 47
3577 38
3578 5
3579 25
3580 5
3581 8
3582 50
3583 25
3584 44
3585 12
3586 20
3587 27
3588 23
3589 45
3590 10
3591 24
3592 37
3593 12
3594 29
3595 46
3596 20
3597 24
3598 33
3599 42
3600 0
3601 53
3602 47
3603 45
3604 10
3605 33
3606 41
3607 44
3608 19
3609 4
3610 45
3611 47
3612 30
3613 31
3614 52
3615 41
3616 24
3617 1
3618 27
3619 54
3620 5
3621 37
3622 36
3623 30
3624 20
3625 6
3626 46
3627 26
3628 37
3629 4
3630 21
3631 35
3632 14
3633 39
3634 17
3635 51
3636 52
3637 0
3638 22
3639 50
3640 35
3641 4
3642 13
3643 17
3644 25
3645 14
3646 27
3647 16
3648 38
3649 43
3650 22
3651 38
3652 19
3653 39
3654 5
3655 15
3656 41
3657 12
3658 21
3659 36
3660 32
3661 22
3662 1
3663 27
3664 20
3665 42
3666 43
3667 44
3668 14
3669 5
3670 19
3671 42
3672 38
3673 24
3674 3
3675 32
3676 34
3677 7
3678 35
3679 43
3680 1
3681 5
3682 34
3683 1
3684 15
3685 40
3686 31
3687 26
3688 3
3689 2
3690 9
3691 2
3692 38
3693 37
3694 39
3695 54
3696 19
3697 20
3698 9
3699 41
3700 32
3701 7
3702 29
3703 33
3704 13
3705 15
3706 22
3707 43
3708 22
3709 5
3710 27
3711 28
3712 2
3713 6
3714 23
3715 48
3716 12
3717 22
3718 8
3719 11
3720 12
3721 28
3722 11
3723 24
3724 12
3725 24
3726 34
3727 31
3728 40
3729 21
3730 45
3731 14
3732 32
3733 23
3734 52
3735 20
3736 0
3737 30
3738 30
3739 45
3740 4
3741 15
3742 16
3743 43
3744 12
3745 25
3746 37
3747 42
3748 23
3749 38
3750 48
3751 1
3752 14
3753 18
3754 13
3755 24
3756 29
3757 23
3758 20
3759 39
3760 34
3761 34
3762 34
3763 27
3764 26
3765 3
3766 1
3767 44
3768 19
3769 34
3770 34
3771 26
3772 37
3773 48
3774 32
3775 54
3776 23
3777 32
3778 12
3779 26
3780 26
3781 8
3782 38
3783 26
3784 47
3785 13
3786 15
3787 21
3788 39
3789 29
3790 5
3791 46
3792 38
3793 2
3794 44
3795 19
3796 45
3797 41
3798 37
3799 55
3800 46
3801 39
3802 20
3803 27
3804 29
3805 30
3806 14
3807 1
3808 0
3809 43
3810 46
3811 30
3812 8
3813 22
3814 21
3815 25
3816 39
3817 29
3818 14
3819 26
3820 25
3821 37
3822 12
3823 32
3824 29
3825 24
3826 22
3827 8
3828 42
3829 27
3830 17
3831 4
3832 11
3833 21
3834 24
3835 24
3836 34
3837 4
3838 28
3839 3
3840 24
3841 12
3842 6
3843 26
3844 14
3845 17
3846 22
3847 39
3848 24
3849 5
3850 52
3851 45
3852 20
3853 46
3854 23
3855 27
3856 17
3857 52
3858 28
3859 38
3860 41
3861 48
3862 25
3863 12
3864 19
3865 24
3866 42
3867 41
3868 0
3869 34
3870 9
3871 16
3872 23
3873 1
3874 6
3875 14
3876 26
3877 3
3878 19
3879 48
3880 51
3881 1
3882 36
3883 11
3884 2
3885 52
3886 43
3887 10
3888 36
3889 1
3890 45
3891 17
3892 26
3893 21
3894 12
3895 20
3896 21
3897 21
3898 26
3899 21
3900 52
3901 28
3902 25
3903 20
3904 0
3905 20
3906 48
3907 18
3908 0
3909 34
3910 17
3911 27
3912 51
3913 36
3914 44
3915 26
3916 39
3917 1
3918 12
3919 33
3920 9
3921 5
3922 6
3923 16
3924 20
3925 54
3926 31
3927 22
3928 30
3929 22
3930 37
3931 1
3932 34
3933 48
3934 12
3935 40
3936 13
3937 30
3938 26
3939 27
3940 15
3941 30
3942 43
3943 8
3944 42
3945 33
3946 21
3947 10
3948 10
3949 25
3950 2
3951 19
3952 47
3953 47
3954 49
3955 52
3956 0
3957 9
3958 0
3959 9
3960 26
3961 44
3962 13
3963 17
3964 52
3965 38
3966 40
3967 4
3968 36
3969 45
3970 9
3971 48
3972 2
3973 3
3974 13
3975 39
3976 45
3977 40
3978 50
3979 26
3980 15
3981 35
3982 5
3983 37
3984 37
3985 16
3986 20
3987 2
3988 28
3989 55
3990 16
3991 8
3992 29
3993 14
3994 48
3995 42
3996 38
3997 16
3998 9
3999 16
4000 34
4001 1
4002 29
4003 18
4004 48
4005 23
4006 10
4007 16
4008 40
4009 40
4010 54
4011 21
4012 48
4013 17
4014 11
4015 41
4016 17
4017 31
4018 16
4019 24
4020 8
4021 29
4022 7
4023 9
4024 25
4025 5
4026 54
4027 25
4028 3
4029 21
4030 19
4031 14
4032 39
4033 41
4034 11
4035 22
4036 5
4037 41
4038 29
4039 41
4040 21
4041 7
4042 34
4043 3
4044 15
4045 39
4046 9
4047 27
4048 20
4049 12
4050 8
4051 0
4052 48
4053 5
4054 28
4055 27
4056 9
4057 24
4058 21
4059 18
4060 18
4061 5
4062 21
4063 51
4064 27
4065 43
4066 37
4067 4
4068 16
4069 27
4070 27
4071 38
4072 1
4073 54
4074 16
4075 27
4076 41
4077 20
4078 32
4079 4
4080 16
4081 4
4082 34
4083 34
4084 40
4085 11
4086 1
4087 47
4088 28
4089 25
4090 42
4091 22
4092 27
4093 25
4094 10
4095 15
4096 42
4097 20
4098 25
4099 10
4100 16
4101 43
4102 34
4103 25
4104 18
4105 1
4106 7
4107 53
4108 47
4109 20
4110 18
4111 4
4112 39
4113 30
4114 30
4115 48
4116 8
4117 27
4118 32
4119 7
4120 39
4121 43
4122 41
4123 38
4124 18
4125 50
4126 40
4127 45
4128 29
4129 12
4130 16
4131 17
4132 27
4133 4
4134 50
4135 12
4136 45
4137 44
4138 25
4139 0
4140 44
4141 14
4142 47
4143 11
4144 30
4145 29
4146 12
4147 16
4148 17
4149 47
4150 8
4151 28
4152 4
4153 23
4154 36
4155 42
4156 21
4157 34
4158 0
4159 24
4160 49
4161 48
4162 25
4163 26
4164 22
4165 39
4166 7
4167 21
4168 22
4169 38
4170 24
4171 38
4172 20
4173 17
4174 41
4175 13
4176 24
4177 27
4178 24
4179 31
4180 44
4181 25
4182 31
4183 44
4184 8
4185 19
4186 24
4187 13
4188 3
4189 52
4190 1
4191 20
4192 38
4193 41
4194 37
4195 48
4196 46
4197 49
4198 15
4199 0
4200 54
4201 46
4202 6
4203 20
4204 41
4205 50
4206 19
4207 14
4208 4
4209 27
4210 25
4211 24
4212 10
4213 4
4214 47
4215 27
4216 30
4217 11
4218 8
4219 38
4220 24
4221 23
4222 25
4223 34
4224 37
4225 8
4226 28
4227 32
4228 50
4229 3
4230 24
4231 54
4232 29
4233 23
4234 41
4235 26
4236 39
4237 17
4238 39
4239 32
4240 37
4241 31
4242 10
4243 25
4244 21
4245 18
4246 34
4247 36
4248 9
4249 45
4250 35
4251 26
4252 45
4253 10
4254 20
4255 29
4256 23
4257 54
4258 39
4259 41
4260 23
4261 6
4262 4
4263 19
4264 28
4265 27
4266 2
4267 48
4268 38
4269 25
4270 23
4271 16
4272 17
4273 49
4274 44
4275 36
4276 16
4277 54
4278 46
4279 32
4280 11
4281 20
4282 37
4283 24
4284 6
4285 29
4286 8
4287 21
4288 1
4289 53
4290 26
4291 32
4292 36
4293 48
4294 10
4295 45
4296 13
4297 23
4298 45
4299 45
4300 27
4301 24
4302 29
4303 10
4304 4
4305 23
4306 0
4307 19
4308 33
4309 20
4310 46
4311 14
4312 16
4313 21
4314 6
4315 54
4316 20
4317 42
4318 39
4319 6
4320 38
4321 47
4322 9
4323 11
4324 4
4325 8
4326 47
4327 2
4328 42
4329 30
4330 26
4331 20
4332 23
4333 13
4334 4
4335 35
4336 42
4337 38
4338 39
4339 52
4340 1
4341 38
4342 54
4343 19
4344 8
4345 48
4346 20
4347 8
4348 25
4349 7
4350 14
4351 9
4352 12
4353 34
4354 41
4355 5
4356 29
4357 9
4358 19
4359 28
4360 5
4361 26
4362 14
4363 37
4364 47
4365 21
4366 50
4367 34
4368 37
4369 0
4370 53
4371 19
4372 11
4373 26
4374 55
4375 41
4376 16
4377 18
4378 1
4379 11
4380 47
4381 31
4382 17
4383 37
4384 47
4385 29
4386 38
4387 47
4388 21
4389 23
4390 36
4391 52
4392 41
4393 13
4394 46
4395 38
4396 39
4397 32
4398 7
4399 27
4400 47
4401 39
4402 21
4403 27
4404 29
4405 38
4406 32
4407 42
4408 7
4409 39
4410 17
4411 43
4412 11
4413 10
4414 39
4415 5
4416 52
4417 32
4418 0
4419 8
4420 49
4421 29
4422 52
4423 38
4424 22
4425 38
4426 13
4427 19
4428 14
4429 4
4430 27
4431 47
4432 40
4433 38
4434 25
4435 0
4436 16
4437 14
4438 29
4439 52
4440 5
4441 26
4442 29
4443 23
4444 10
4445 26
4446 17
4447 14
4448 0
4449 22
4450 35
4451 32
4452 25
4453 1
4454 6
4455 51
4456 13
4457 16
4458 36
4459 48
4460 1
4461 41
4462 55
4463 18
4464 40
4465 36
4466 48
4467 25
4468 37
4469 3
4470 48
4471 38
4472 45
4473 50
4474 29
4475 8
4476 29
4477 1
4478 9
4479 26
4480 33
4481 18
4482 33
4483 28
4484 33
4485 0
4486 41
4487 52
4488 29
4489 49
4490 33
4491 33
4492 32
4493 11
4494 38
4495 31
4496 28
4497 21
4498 8
4499 18
4500 43
4501 28
4502 14
4503 44
4504 26
4505 21
4506 53
4507 26
4508 50
4509 33
4510 52
4511 27
4512 22
4513 7
4514 27
4515 25
4516 28
4517 37
4518 47
4519 38
4520 46
4521 15
4522 24
4523 36
4524 39
4525 24
4526 47
4527 6
4528 0
4529 1
4530 42
4531 2
4532 21
4533 27
4534 52
4535 50
4536 24
4537 55
4538 35
4539 29
4540 6
4541 37
4542 26
4543 53
4544 38
4545 23
4546 42
4547 20
4548 48
4549 38
4550 35
4551 19
4552 10
4553 5
4554 34
4555 54
4556 32
4557 39
4558 32
4559 27
4560 36
4561 22
4562 24
4563 37
4564 10
4565 29
4566 33
4567 16
4568 48
4569 8
4570 4
4571 11
4572 45
4573 20
4574 32
4575 27
4576 14
4577 37
4578 39
4579 43
4580 21
4581 47
4582 13
4583 20
4584 0
4585 27
4586 26
4587 47
4588 20
4589 23
4590 46
4591 20
4592 37
4593 18
4594 12
4595 13
4596 50
4597 49
4598 40
4599 22
4600 10
4601 43
4602 20
4603 42
4604 20
4605 32
4606 45
4607 47
4608 37
4609 53
4610 31
4611 25
4612 20
4613 28
4614 55
4615 50
4616 15
4617 12
4618 6
4619 14
4620 22
4621 46
4622 24
4623 54
4624 9
4625 16
4626 33
4627 40
4628 49
4629 47
4630 49
4631 31
4632 28
4633 22
4634 4
4635 29
4636 0
4637 46
4638 50
4639 11
4640 20
4641 22
4642 9
4643 17
4644 7
4645 42
4646 21
4647 23
4648 15
4649 42
4650 36
4651 7
4652 4
4653 23
4654 13
4655 15
4656 29
4657 23
4658 4
4659 44
4660 34
4661 26
4662 27
4663 1
4664 4
4665 38
4666 19
4667 54
4668 26
4669 24
4670 7
4671 19
4672 24
4673 4
4674 6
4675 5
4676 26
4677 1
4678 26
4679 12
4680 30
4681 48
4682 32
4683 24
4684 22
4685 48
4686 43
4687 31
4688 10
4689 19
4690 21
4691 30
4692 41
4693 4
4694 44
4695 43
4696 30
4697 38
4698 5
4699 29
4700 11
4701 50
4702 20
4703 26
4704 39
4705 39
4706 26
4707 17
4708 25
4709 25
4710 48
4711 11
4712 43
4713 44
4714 16
4715 32
4716 43
4717 20
4718 30
4719 37
4720 38
4721 41
4722 39
4723 28
4724 39
4725 40
4726 49
4727 6
4728 11
4729 39
4730 35
4731 40
4732 36
4733 2
4734 45
4735 22
4736 19
4737 27
4738 41
4739 30
4740 30
4741 27
4742 6
4743 38
4744 18
4745 15
4746 42
4747 22
4748 4
4749 25
4750 4
4751 20
4752 7
4753 1
4754 42
4755 46
4756 1
4757 7
4758 39
4759 36
4760 3
4761 52
4762 16
4763 50
4764 19
4765 7
4766 17
4767 38
4768 17
4769 26
4770 30
4771 1
4772 38
4773 19
4774 37
4775 7
4776 50
4777 14
4778 42
4779 25
4780 47
4781 44
4782 29
4783 48
4784 28
4785 26
4786 16
4787 27
4788 29
4789 52
4790 11
4791 0
4792 20
4793 6
4794 6
4795 54
4796 38
4797 45
4798 14
4799 19
4800 22
4801 33
4802 25
4803 12
4804 28
4805 36
4806 42
4807 29
4808 50
4809 48
4810 14
4811 15
4812 34
4813 18
4814 42
4815 35
4816 38
4817 37
4818 46
4819 48
4820 43
4821 21
4822 50
4823 44
4824 37
4825 2
4826 10
4827 52
4828 28
4829 36
4830 49
4831 21
4832 17
4833 39
4834 3
4835 12
4836 21
4837 0
4838 7
4839 52
4840 26
4841 37
4842 1
4843 42
4844 22
4845 24
4846 27
4847 19
4848 4
4849 25
4850 25
4851 19
4852 26
4853 33
4854 17
4855 16
4856 16
4857 34
4858 44
4859 3
4860 23
4861 41
4862 48
4863 5
4864 37
4865 36
4866 7
4867 40
4868 24
4869 24
4870 43
4871 20
4872 25
4873 11
4874 55
4875 24
4876 15
4877 19
4878 7
4879 0
4880 12
4881 47
4882 23
4883 13
4884 15
4885 6
4886 43
4887 21
4888 43
4889 28
4890 9
4891 1
4892 24
4893 23
4894 53
4895 24
4896 32
4897 8
4898 13
4899 7
4900 18
4901 28
4902 19
4903 20
4904 27
4905 38
4906 42
4907 24
4908 14
4909 7
4910 18
4911 14
4912 25
4913 47
4914 41
4915 18
4916 15
4917 23
4918 28
4919 14
4920 18
4921 50
4922 11
4923 41
4924 38
4925 0
4926 42
4927 44
4928 39
4929 43
4930 41
4931 16
4932 36
4933 32
4934 9
4935 24
4936 50
4937 34
4938 39
4939 54
4940 9
4941 47
4942 47
4943 29
4944 21
4945 27
4946 55
4947 1
4948 6
4949 18
4950 31
4951 15
4952 0
4953 1
4954 4
4955 38
4956 4
4957 45
4958 43
4959 0
4960 34
4961 47
4962 38
4963 24
4964 7
4965 36
4966 33
4967 22
4968 49
4969 34
4970 0
4971 27
4972 28
4973 54
4974 36
4975 2
4976 38
4977 43
4978 21
4979 5
4980 41
4981 29
4982 27
4983 5
4984 17
4985 27
4986 14
4987 34
4988 41
4989 44
4990 48
4991 29
4992 21
4993 21
4994 22
4995 11
4996 3
4997 9
4998 18
4999 11
5000 54
5001 16
5002 7
5003 1
5004 10
5005 23
5006 13
5007 13
5008 36
5009 6
5010 14
5011 14
5012 17
5013 15
5014 10
5015 20
5016 32
5017 39
5018 8
5019 39
5020 16
5021 40
5022 43
5023 50
5024 6
5025 12
5026 28
5027 4
5028 9
5029 23
5030 30
5031 37
5032 15
5033 21
5034 2
5035 28
5036 21
5037 44
5038 11
5039 26
5040 29
5041 16
5042 3
5043 38
5044 25
5045 39
5046 47
5047 4
5048 52
5049 26
5050 5
5051 27
5052 16
5053 28
5054 41
5055 44
5056 16
5057 35
5058 40
5059 31
5060 27
5061 18
5062 37
5063 19
5064 54
5065 8
5066 7
5067 45
5068 29
5069 5
5070 22
5071 47
5072 46
5073 2
5074 48
5075 36
5076 34
5077 45
5078 8
5079 7
5080 30
5081 32
5082 8
5083 4
5084 13
5085 38
5086 44
5087 1
5088 17
5089 1
5090 3
5091 12
5092 21
5093 18
5094 52
5095 52
5096 25
5097 49
5098 38
5099 26
5100 9
5101 15
5102 14
5103 32
5104 43
5105 52
5106 52
5107 5
5108 42
5109 11
5110 19
5111 18
5112 10
5113 14
5114 47
5115 9
5116 9
5117 12
5118 29
5119 37
5120 19
5121 19
5122 26
5123 0
5124 4
5125 26
5126 12
5127 20
5128 24
5129 6
5130 12
5131 9
5132 24
5133 45
5134 24
5135 34
5136 40
5137 44
5138 40
5139 29
5140 52
5141 5
5142 9
5143 16
5144 52
5145 26
5146 50
5147 30
5148 7
5149 20
5150 46
5151 0
5152 43
5153 48
5154 34
5155 41
5156 6
5157 1
5158 7
5159 8
5160 53
5161 53
5162 26
5163 12
5164 20
5165 8
5166 42
5167 26
5168 14
5169 54
5170 3
5171 14
5172 33
5173 3
5174 29
5175 3
5176 25
5177 13
5178 22
5179 13
5180 29
5181 27
5182 23
5183 29
5184 17
5185 15
5186 19
5187 29
5188 39
5189 25
5190 5
5191 33
5192 21
5193 43
5194 41
5195 47
5196 16
5197 33
5198 1
5199 42
5200 44
5201 46
5202 46
5203 4
5204 2
5205 50
5206 28
5207 20
5208 54
5209 27
5210 52
5211 20
5212 36
5213 34
5214 39
5215 39
5216 27
5217 12
5218 24
5219 5
5220 27
5221 9
5222 16
5223 44
5224 27
5225 17
5226 30
5227 46
5228 31
5229 32
5230 24
5231 50
5232 38
5233 17
5234 42
5235 47
5236 40
5237 24
5238 27
5239 13
5240 11
5241 43
5242 0
5243 7
5244 41
5245 20
5246 21
5247 38
5248 24
5249 53
5250 13
5251 33
5252 29
5253 47
5254 0
5255 44
5256 37
5257 20
5258 18
5259 27
5260 35
5261 19
5262 16
5263 8
5264 1
5265 22
5266 36
5267 52
5268 50
5269 35
5270 39
5271 37
5272 20
5273 5
5274 33
5275 30
5276 42
5277 4
5278 10
5279 43
5280 17
5281 1
5282 5
5283 9
5284 18
5285 0
5286 26
5287 4
5288 24
5289 22
5290 45
5291 29
5292 13
5293 1
5294 1
5295 29
5296 19
5297 37
5298 6
5299 50
5300 41
5301 11
5302 4
5303 4
5304 46
5305 22
5306 30
5307 50
5308 48
5309 24
5310 24
5311 9
5312 5
5313 48
5314 3
5315 46
5316 27
5317 16
5318 50
5319 8
5320 39
5321 26
5322 16
5323 2
5324 41
5325 0
5326 14
5327 44
5328 48
5329 55
5330 7
5331 15
5332 38
5333 23
5334 6
5335 4
5336 26
5337 15
5338 41
5339 52
5340 30
5341 52
5342 44
5343 24
5344 34
5345 31
5346 28
5347 49
5348 39
5349 7
5350 52
5351 41
5352 36
5353 25
5354 12
5355 34
5356 50
5357 28
5358 38
5359 19
5360 43
5361 26
5362 38
5363 39
5364 36
5365 47
5366 7
5367 3
5368 28
5369 7
5370 35
5371 17
5372 41
5373 20
5374 32
5375 6
5376 42
5377 54
5378 10
5379 3
5380 19
5381 20
5382 27
5383 13
5384 3
5385 40
5386 48
5387 32
5388 29
5389 16
5390 23
5391 29
5392 24
5393 41
5394 2
5395 6
5396 49
5397 19
5398 38
5399 26
5400 6
5401 5
5402 29
5403 40
5404 52
5405 11
5406 0
5407 0
5408 25
5409 16
5410 36
5411 32
5412 36
5413 53
5414 23
5415 9
5416 2
5417 20
5418 37
5419 42
5420 24
5421 38
5422 29
5423 21
5424 27
5425 34
5426 49
5427 28
5428 10
5429 1
5430 31
5431 29
5432 53
5433 16
5434 31
5435 14
5436 27
5437 43
5438 11
5439 49
5440 15
5441 28
5442 37
5443 41
5444 14
5445 50
5446 30
5447 29
5448 29
5449 30
5450 6
5451 43
5452 50
5453 46
5454 31
5455 48
5456 1
5457 15
5458 20
5459 38
5460 42
5461 47
5462 52
5463 31
5464 29
5465 54
5466 36
5467 44
5468 34
5469 47
5470 54
5471 45
5472 30
5473 16
5474 37
5475 22
5476 20
5477 13
5478 22
5479 52
5480 30
5481 19
5482 34
5483 25
5484 39
5485 4
5486 24
5487 32
5488 1
5489 5
5490 49
5491 22
5492 34
5493 26
5494 4
5495 26
5496 39
5497 42
5498 6
5499 3
5500 28
5501 28
5502 7
5503 34
5504 7
5505 3
5506 41
5507 4
5508 30
5509 31
5510 7
5511 27
5512 4
5513 54
5514 55
5515 42
5516 54
5517 20
5518 46
5519 22
5520 7
5521 21
5522 36
5523 15
5524 9
5525 27
5526 46
5527 14
5528 11
5529 5
5530 53
5531 37
5532 14
5533 20
5534 28
5535 21
5536 43
5537 7
5538 26
5539 11
5540 44
5541 7
5542 14
5543 26
5544 16
5545 48
5546 15
5547 24
5548 2
5549 43
5550 21
5551 29
5552 9
5553 43
5554 14
5555 7
5556 50
5557 54
5558 40
5559 34
5560 48
5561 29
5562 26
5563 9
5564 19
5565 42
5566 24
5567 55
5568 37
5569 30
5570 11
5571 4
5572 9
5573 20
5574 52
5575 49
5576 47
5577 4
5578 48
5579 13
5580 6
5581 12
5582 13
5583 8
5584 14
5585 14
5586 18
5587 12
5588 18
5589 24
5590 6
5591 0
5592 36
5593 32
5594 39
5595 37
5596 16
5597 32
5598 0
5599 52
5600 34
5601 31
5602 0
5603 43
5604 20
5605 50
5606 37
5607 11
5608 33
5609 12
5610 38
5611 33
5612 0
5613 54
5614 30
5615 1
5616 37
5617 4
5618 30
5619 9
5620 7
5621 52
5622 33
5623 50
5624 26
5625 33
5626 3
5627 11
5628 29
5629 40
5630 0
5631 39
5632 16
5633 31
5634 20
5635 10
5636 5
5637 22
5638 30
5639 11
5640 34
5641 11
5642 20
5643 34
5644 7
5645 54
5646 2
5647 21
5648 36
5649 39
5650 5
5651 19
5652 18
5653 32
5654 16
5655 15
5656 52
5657 26
5658 37
5659 29
5660 38
5661 30
5662 37
5663 39
5664 6
5665 42
5666 22
5667 26
5668 35
5669 33
5670 13
5671 26
5672 44
5673 49
5674 11
5675 7
5676 26
5677 19
5678 2
5679 41
5680 48
5681 48
5682 24
5683 13
5684 22
5685 3
5686 35
5687 14
5688 54
5689 15
5690 26
5691 7
5692 5
5693 42
5694 53
5695 39
5696 47
5697 29
5698 0
5699 6
5700 28
5701 16
5702 18
5703 36
5704 42
5705 8
5706 5
5707 19
5708 42
5709 40
5710 47
5711 19
5712 3
5713 37
5714 9
5715 15
5716 12
5717 39
5718 31
5719 24
5720 44
5721 20
5722 11
5723 1
5724 20
5725 25
5726 7
5727 16
5728 27
5729 28
5730 28
5731 4
5732 19
5733 21
5734 13
5735 41
5736 45
5737 52
5738 26
5739 26
5740 44
5741 41
5742 13
5743 50
5744 7
5745 0
5746 54
5747 1
5748 27
5749 48
5750 47
5751 31
5752 14
5753 12
5754 32
5755 24
5756 35
5757 24
5758 14
5759 24
5760 36
5761 21
5762 41
5763 24
5764 16
5765 20
5766 40
5767 36
5768 1
5769 50
5770 20
5771 3
5772 30
5773 19
5774 39
5775 20
5776 40
5777 4
5778 48
5779 43
5780 0
5781 24
5782 49
5783 29
5784 40
5785 11
5786 39
5787 43
5788 36
5789 33
5790 4
5791 38
5792 31
5793 38
5794 0
5795 25
5796 18
5797 51
5798 13
5799 29
5800 1
5801 27
5802 26
5803 2
5804 9
5805 15
5806 29
5807 13
5808 13
5809 41
5810 29
5811 33
5812 34
5813 2
5814 52
5815 22
5816 14
5817 46
5818 0
5819 1
5820 26
5821 29
5822 21
5823 17
5824 44
5825 1
5826 20
5827 16
5828 18
5829 47
5830 9
5831 50
5832 22
5833 10
5834 13
5835 41
5836 15
5837 29
5838 32
5839 34
5840 54
5841 53
5842 34
5843 6
5844 2
5845 30
5846 52
5847 22
5848 24
5849 31
5850 29
5851 44
5852 50
5853 7
5854 31
5855 24
5856 19
5857 7
5858 19
5859 20
5860 38
5861 2
5862 9
5863 1
5864 16
5865 53
5866 38
5867 28
5868 13
5869 14
5870 43
5871 43
5872 33
5873 43
5874 20
5875 1
5876 37
5877 25
5878 33
5879 21
5880 47
5881 29
5882 10
5883 33
5884 42
5885 23
5886 45
5887 7
5888 12
5889 55
5890 28
5891 36
5892 18
5893 38
5894 2
5895 20
5896 32
5897 0
5898 41
5899 47
5900 52
5901 38
5902 43
5903 47
5904 53
5905 31
5906 14
5907 41
5908 1
5909 19
5910 42
5911 8
5912 42
5913 33
5914 0
5915 39
5916 15
5917 4
5918 45
5919 52
5920 29
5921 23
5922 47
5923 49
5924 11
5925 47
5926 22
5927 47
5928 0
5929 29
5930 46
5931 16
5932 0
5933 29
5934 22
5935 47
5936 38
5937 5
5938 30
5939 52
5940 16
5941 42
5942 27
5943 16
5944 26
5945 47
5946 21
5947 54
5948 5
5949 43
5950 48
5951 13
5952 34
5953 12
5954 5
5955 14
5956 52
5957 21
5958 22
5959 30
5960 2
5961 25
5962 1
5963 46
5964 22
5965 0
5966 42
5967 20
5968 23
5969 42
5970 30
5971 42
5972 28
5973 12
5974 28
5975 12
5976 41
5977 0
5978 37
5979 39
5980 24
5981 14
5982 49
5983 20
5984 0
5985 12
5986 19
5987 4
5988 48
5989 47
5990 27
5991 47
5992 16
5993 10
5994 54
5995 36
5996 32
5997 5
5998 16
5999 42
6000 16
6001 14
6002 46
6003 7
6004 2
6005 1
6006 0
6007 27
6008 25
6009 33
6010 16
6011 30
6012 23
6013 26
6014 43
6015 21
6016 20
6017 16
6018 48
6019 4
6020 14
6021 32
6022 15
6023 34
6024 47
6025 0
6026 43
6027 29
6028 21
6029 8
6030 16
6031 14
6032 7
6033 10
6034 4
6035 16
6036 26
6037 24
6038 8
6039 3
6040 36
6041 12
6042 11
6043 35
6044 52
6045 45
6046 5
6047 1
6048 26
6049 20
6050 53
6051 38
6052 37
6053 39
6054 21
6055 24
6056 38
6057 36
6058 21
6059 21
6060 50
6061 42
6062 35
6063 1
6064 35
6065 30
6066 8
6067 50
6068 19
6069 20
6070 19
6071 42
6072 50
6073 48
6074 24
6075 21
6076 21
6077 46
6078 37
6079 34
6080 12
6081 43
6082 31
6083 21
6084 26
6085 29
6086 24
6087 27
6088 13
6089 25
6090 27
6091 1
6092 30
6093 37
6094 37
6095 20
6096 32
6097 22
6098 50
6099 15
6100 13
6101 18
6102 6
6103 27
6104 16
6105 47
6106 16
6107 32
6108 19
6109 26
6110 50
6111 42
6112 15
6113 51
6114 37
6115 52
6116 23
6117 26
6118 20
6119 7
6120 38
6121 49
6122 5
6123 50
6124 28
6125 19
6126 11
6127 41
6128 26
6129 34
6130 2
6131 27
6132 52
6133 51
6134 21
6135 32
6136 16
6137 8
6138 41
6139 33
6140 3
6141 47
6142 35
6143 29
6144 49
6145 33
6146 47
6147 14
6148 34
6149 6
6150 5
6151 30
6152 5
6153 13
6154 32
6155 27
6156 38
6157 33
6158 40
6159 20
6160 25
6161 6
6162 30
6163 46
6164 52
6165 19
6166 31
6167 20
6168 36
6169 53
6170 26
6171 30
6172 34
6173 38
6174 14
6175 28
6176 5
6177 41
6178 44
6179 36
6180 38
6181 35
6182 49
6183 52
6184 51
6185 43
6186 25
6187 10
6188 7
6189 14
6190 47
6191 27
6192 29
6193 17
6194 13
6195 42
6196 14
6197 6
6198 47
6199 4
6200 37
6201 21
6202 12
6203 14
6204 33
6205 38
6206 5
6207 33
6208 30
6209 48
6210 0
6211 30
6212 24
6213 47
6214 44
6215 44
6216 31
6217 17
6218 42
6219 21
6220 42
6221 2
6222 49
6223 17
6224 25
6225 39
6226 33
6227 23
6228 24
6229 10
6230 37
6231 11
6232 51
6233 10
6234 6
6235 29
6236 4
6237 5
6238 27
6239 43
6240 25
6241 42
6242 35
6243 37
6244 5
6245 24
6246 0
6247 20
6248 27
6249 37
6250 50
6251 24
6252 38
6253 43
6254 5
6255 42
6256 24
6257 15
6258 21
6259 32
6260 53
6261 31
6262 44
6263 46
6264 3
6265 14
6266 15
6267 43
6268 7
6269 0
6270 33
6271 29
6272 14
6273 30
6274 7
6275 42
6276 0
6277 11
6278 42
6279 12
6280 32
6281 7
6282 10
6283 24
6284 35
6285 46
6286 7
6287 32
6288 33
6289 43
6290 20
6291 6
6292 38
6293 12
6294 1
6295 8
6296 52
6297 20
6298 47
6299 29
6300 38
6301 8
6302 16
6303 48
6304 39
6305 1
6306 18
6307 48
6308 34
6309 32
6310 38
6311 48
6312 43
6313 19
6314 44
6315 18
6316 14
6317 31
6318 0
6319 35
6320 42
6321 12
6322 16
6323 33
6324 38
6325 15
6326 20
6327 27
6328 41
6329 29
6330 34
6331 41
6332 33
6333 33
6334 22
6335 40
6336 41
6337 38
6338 41
6339 47
6340 49
6341 32
6342 14
6343 0
6344 42
6345 43
6346 43
6347 34
6348 23
6349 43
6350 14
6351 4
6352 39
6353 52
6354 25
6355 32
6356 20
6357 18
6358 49
6359 21
6360 26
6361 4
6362 16
6363 55
6364 13
6365 9
6366 21
6367 7
6368 15
6369 12
6370 15
6371 27
6372 42
6373 47
6374 21
6375 46
6376 19
6377 23
6378 33
6379 23
6380 12
6381 22
6382 53
6383 28
6384 24
6385 39
6386 17
6387 53
6388 32
6389 0
6390 37
6391 37
6392 3
6393 36
6394 26
6395 0
6396 13
6397 21
6398 5
6399 38
6400 39
6401 49
6402 16
6403 51
6404 39
6405 4
6406 21
6407 25
6408 42
6409 2
6410 49
6411 54
6412 37
6413 33
6414 32
6415 41
6416 33
6417 23
6418 22
6419 54
6420 41
6421 36
6422 17
6423 26
6424 45
6425 29
6426 29
6427 46
6428 41
6429 34
6430 38
6431 7
6432 21
6433 19
6434 45
6435 47
6436 29
6437 52
6438 26
6439 24
6440 48
6441 42
6442 7
6443 52
6444 24
6445 9
6446 15
6447 41
6448 9
6449 7
6450 25
6451 24
6452 9
6453 12
6454 41
6455 0
6456 0
6457 20
6458 43
6459 4
6460 14
6461 13
6462 42
6463 24
6464 38
6465 14
6466 51
6467 39
6468 43
6469 14
6470 20
6471 42
6472 47
6473 2
6474 32
6475 27
6476 29
6477 8
6478 44
6479 10
6480 7
6481 8
6482 39
6483 14
6484 29
6485 38
6486 3
6487 38
6488 25
6489 53
6490 14
6491 13
6492 41
6493 36
6494 10
6495 50
6496 49
6497 26
6498 17
6499 51
6500 29
6501 34
6502 43
6503 19
6504 14
6505 46
6506 47
6507 21
6508 9
6509 27
6510 6
6511 53
6512 39
6513 16
6514 9
6515 16
6516 7
6517 28
6518 50
6519 15
6520 1
6521 1
6522 23
6523 29
6524 42
6525 30
6526 9
6527 22
6528 38
6529 52
6530 33
6531 39
6532 45
6533 41
6534 24
6535 50
6536 0
6537 32
6538 2
6539 26
6540 45
6541 15
6542 6
6543 41
6544 26
6545 15
6546 41
6547 15
6548 43
6549 38
6550 13
6551 37
6552 48
6553 34
6554 14
6555 41
6556 24
6557 26
6558 38
6559 53
6560 24
6561 54
6562 20
6563 15
6564 10
6565 39
6566 1
6567 24
6568 47
6569 42
6570 14
6571 38
6572 3
6573 10
6574 14
6575 53
6576 43
6577 22
6578 38
6579 11
6580 20
6581 19
6582 2
6583 26
6584 19
6585 49
6586 35
6587 28
6588 10
6589 32
6590 38
6591 26
6592 19
6593 49
6594 48
6595 27
6596 14
6597 36
6598 27
6599 39
6600 26
6601 39
6602 54
6603 39
6604 42
6605 20
6606 49
6607 4
6608 19
6609 29
6610 49
6611 43
6612 39
6613 19
6614 27
6615 16
6616 24
6617 36
6618 24
6619 10
6620 6
6621 10
6622 33
6623 17
6624 32
6625 31
6626 23
6627 17
6628 38
6629 20
6630 19
6631 27
6632 22
6633 13
6634 41
6635 4
6636 34
6637 19
6638 11
6639 38
6640 29
6641 12
6642 0
6643 27
6644 16
6645 9
6646 1
6647 48
6648 2
6649 10
6650 25
6651 21
6652 13
6653 15
6654 8
6655 8
6656 30
6657 31
6658 46
6659 48
6660 23
6661 52
6662 29
6663 22
6664 4
6665 47
6666 24
6667 52
6668 13
6669 40
6670 24
6671 15
6672 22
6673 1
6674 4
6675 32
6676 0
6677 23
6678 20
6679 36
6680 3
6681 42
6682 12
6683 34
6684 28
6685 33
6686 46
6687 48
6688 49
6689 26
6690 2
6691 15
6692 1
6693 38
6694 38
6695 4
6696 30
6697 0
6698 47
6699 29
6700 30
6701 24
6702 0
6703 9
6704 41
6705 53
6706 24
6707 0
6708 34
6709 13
6710 44
6711 27
6712 52
6713 17
6714 28
6715 21
6716 47
6717 21
6718 21
6719 21
6720 10
6721 16
6722 38
6723 26
6724 0
6725 23
6726 39
6727 32
6728 5
6729 42
6730 16
6731 2
6732 44
6733 47
6734 34
6735 0
6736 27
6737 1
6738 9
6739 0
6740 17
6741 0
6742 44
6743 2
6744 22
6745 13
6746 27
6747 38
6748 10
6749 5
6750 10
6751 37
6752 3
6753 20
6754 16
6755 42
6756 16
6757 44
6758 44
6759 46
6760 34
6761 29
6762 23
6763 44
6764 1
6765 52
6766 45
6767 41
6768 39
6769 54
6770 31
6771 29
6772 49
6773 50
6774 12
6775 1
6776 32
6777 11
6778 43
6779 11
6780 26
6781 32
6782 44
6783 41
6784 35
6785 48
6786 29
6787 34
6788 20
6789 16
6790 1
6791 15
6792 54
6793 0
6794 30
6795 22
6796 46
6797 10
6798 41
6799 43
6800 24
6801 5
6802 5
6803 53
6804 46
6805 16
6806 25
6807 28
6808 42
6809 38
6810 1
6811 36
6812 22
6813 37
6814 50
6815 34
6816 7
6817 15
6818 29
6819 20
6820 44
6821 17
6822 27
6823 41
6824 17
6825 34
6826 40
6827 38
6828 3
6829 22
6830 44
6831 43
6832 13
6833 40
6834 17
6835 3
6836 12
6837 54
6838 15
6839 24
6840 34
6841 32
6842 23
6843 29
6844 5
6845 50
6846 43
6847 26
6848 19
6849 33
6850 21
6851 38
6852 16
6853 21
6854 19
6855 52
6856 13
6857 27
6858 36
6859 47
6860 12
6861 12
6862 0
6863 26
6864 51
6865 32
6866 39
6867 25
6868 22
6869 16
6870 39
6871 29
6872 39
6873 39
6874 29
6875 2
6876 11
6877 46
6878 23
6879 0
6880 7
6881 0
6882 26
6883 26
6884 1
6885 24
6886 28
6887 3
6888 41
6889 19
6890 7
6891 24
6892 43
6893 19
6894 29
6895 9
6896 30
6897 1
6898 37
6899 0
6900 41
6901 33
6902 48
6903 33
6904 47
6905 32
6906 25
6907 44
6908 40
6909 22
6910 18
6911 45
6912 49
6913 31
6914 44
6915 43
6916 27
6917 43
6918 52
6919 42
6920 22
6921 23
6922 10
6923 39
6924 37
6925 21
6926 34
6927 38
6928 32
6929 31
6930 41
6931 26
6932 37
6933 36
6934 46
6935 13
6936 11
6937 44
6938 7
6939 48
6940 17
6941 54
6942 50
6943 46
6944 34
6945 11
6946 28
6947 19
6948 38
6949 29
6950 16
6951 45
6952 36
6953 48
6954 29
6955 23
6956 41
6957 21
6958 7
6959 39
6960 24
6961 8
6962 10
6963 48
6964 21
6965 7
6966 7
6967 44
6968 11
6969 42
6970 37
6971 53
6972 4
6973 0
6974 6
6975 26
6976 21
6977 14
6978 23
6979 46
6980 4
6981 11
6982 50
6983 48
6984 28
6985 42
6986 11
6987 31
6988 32
6989 41
6990 0
6991 42
6992 7
6993 4
6994 17
6995 46
6996 52
6997 33
6998 43
6999 20
7000 37
7001 23
7002 25
7003 4
7004 27
7005 0
7006 51
7007 7
7008 8
7009 50
7010 41
7011 7
7012 40
7013 15
7014 29
7015 13
7016 0
7017 0
7018 2
7019 14
7020 10
7021 30
7022 11
7023 2
7024 13
7025 4
7026 24
7027 48
7028 51
7029 44
7030 18
7031 15
7032 15
7033 41
7034 48
7035 12
7036 27
7037 14
7038 42
7039 34
7040 42
7041 2
7042 39
7043 42
7044 42
7045 47
7046 9
7047 43
7048 47
7049 45
7050 8
7051 39
7052 41
7053 45
7054 49
7055 34
7056 9
7057 50
7058 55
7059 0
7060 44
7061 38
7062 29
7063 54
7064 29
7065 38
7066 52
7067 11
7068 23
7069 14
7070 25
7071 36
7072 44
7073 33
7074 8
7075 49
7076 27
7077 35
7078 53
7079 24
7080 14
7081 44
7082 43
7083 6
7084 47
7085 14
7086 0
7087 40
7088 37
7089 11
7090 53
7091 18
7092 1
7093 38
7094 20
7095 48
7096 37
7097 24
7098 54
7099 5
7100 40
7101 41
7102 18
7103 43
7104 15
7105 47
7106 0
7107 16
7108 27
7109 29
7110 26
7111 9
7112 13
7113 12
7114 50
7115 27
7116 48
7117 41
7118 41
7119 22
7120 40
7121 25
7122 25
7123 1
7124 21
7125 37
7126 3
7127 7
7128 35
7129 1
7130 36
7131 51
7132 16
7133 43
7134 22
7135 15
7136 24
7137 22
7138 15
7139 50
7140 7
7141 17
7142 7
7143 2
7144 23
7145 29
7146 40
7147 3
7148 16
7149 42
7150 52
7151 31
7152 24
7153 15
7154 48
7155 52
7156 45
7157 53
7158 20
7159 28
7160 11
7161 6
7162 31
7163 35
7164 24
7165 29
7166 41
7167 24
7168 37
7169 7
7170 16
7171 27
7172 9
7173 5
7174 38
7175 54
7176 7
7177 28
7178 36
7179 16
7180 31
7181 27
7182 20
7183 32
7184 24
7185 16
7186 28
7187 12
7188 54
7189 35
7190 40
7191 24
7192 22
7193 41
7194 4
7195 33
7196 30
7197 38
7198 0
7199 28
7200 39
7201 30
7202 36
7203 41
7204 28
7205 24
7206 0
7207 52
7208 16
7209 55
7210 22
7211 17
7212 36
7213 32
7214 24
7215 39
7216 37
7217 41
7218 28
7219 44
7220 44
7221 34
7222 17
7223 5
7224 33
7225 41
7226 50
7227 43
7228 4
7229 42
7230 13
7231 11
7232 24
7233 4
7234 23
7235 0
7236 14
7237 26
7238 32
7239 7
7240 24
7241 50
7242 27
7243 52
7244 29
7245 38
7246 16
7247 29
7248 5
7249 42
7250 5
7251 22
7252 25
7253 37
7254 24
7255 18
7256 12
7257 20
7258 30
7259 39
7260 32
7261 6
7262 42
7263 17
7264 30
7265 22
7266 8
7267 5
7268 2
7269 44
7270 46
7271 41
7272 32
7273 6
7274 2
7275 12
7276 24
7277 33
7278 50
7279 5
7280 27
7281 11
7282 36
7283 14
7284 15
7285 37
7286 36
7287 18
7288 2
7289 0
7290 48
7291 5
7292 10
7293 19
7294 6
7295 7
7296 0
7297 41
7298 2
7299 21
7300 11
7301 3
7302 48
7303 29
7304 29
7305 46
7306 0
7307 55
7308 41
7309 44
7310 12
7311 16
7312 30
7313 42
7314 27
7315 53
7316 8
7317 30
7318 21
7319 1
7320 49
7321 35
7322 13
7323 0
7324 0
7325 25
7326 4
7327 0
7328 3
7329 29
7330 2
7331 41
7332 33
7333 2
7334 47
7335 22
7336 49
7337 32
7338 32
7339 46
7340 38
7341 6
7342 1
7343 37
7344 24
7345 14
7346 3
7347 25
7348 26
7349 27
7350 29
7351 37
7352 6
7353 1
7354 38
7355 20
7356 51
7357 18
7358 50
7359 26
7360 7
7361 48
7362 25
7363 16
7364 29
7365 15
7366 24
7367 23
7368 20
7369 42
7370 0
7371 16
7372 30
7373 52
7374 48
7375 33
7376 45
7377 49
7378 52
7379 24
7380 5
7381 13
7382 5
7383 38
7384 51
7385 52
7386 27
7387 22
7388 42
7389 3
7390 21
7391 33
7392 7
7393 50
7394 8
7395 33
7396 45
7397 24
7398 54
7399 38
7400 4
7401 12
7402 26
7403 27
7404 13
7405 28
7406 11
7407 0
7408 20
7409 24
7410 28
7411 13
7412 41
7413 40
7414 33
7415 5
7416 35
7417 15
7418 16
7419 38
7420 32
7421 11
7422 27
7423 47
7424 2
7425 47
7426 34
7427 39
7428 34
7429 35
7430 31
7431 49
7432 13
7433 29
7434 29
7435 11
7436 21
7437 28
7438 49
7439 16
7440 10
7441 38
7442 9
7443 33
7444 24
7445 8
7446 49
7447 16
7448 52
7449 38
7450 24
7451 39
7452 22
7453 21
7454 43
7455 7
7456 9
7457 26
7458 47
7459 40
7460 1
7461 51
7462 48
7463 3
7464 16
7465 14
7466 34
7467 36
7468 1
7469 13
7470 45
7471 19
7472 38
7473 41
7474 28
7475 42
7476 39
7477 20
7478 23
7479 22
7480 36
7481 33
7482 30
7483 38
7484 29
7485 20
7486 12
7487 8
7488 7
7489 34
7490 53
7491 11
7492 11
7493 20
7494 36
7495 5
7496 42
7497 31
7498 7
7499 9
7500 34
7501 3
7502 35
7503 49
7504 41
7505 11
7506 21
7507 41
7508 24
7509 29
7510 47
7511 32
7512 11
7513 46
7514 5
7515 50
7516 52
7517 2
7518 3
7519 4
7520 26
7521 48
7522 27
7523 37
7524 54
7525 44
7526 28
7527 23
7528 31
7529 32
7530 1
7531 25
7532 24
7533 53
7534 52
7535 0
7536 24
7537 37
7538 14
7539 32
7540 0
7541 48
7542 12
7543 39
7544 29
7545 12
7546 16
7547 39
7548 14
7549 33
7550 5
7551 25
7552 38
7553 28
7554 52
7555 44
7556 1
7557 32
7558 32
7559 24
7560 41
7561 19
7562 32
7563 15
7564 34
7565 44
7566 26
7567 27
7568 52
7569 32
7570 4
7571 32
7572 10
7573 24
7574 7
7575 52
7576 7
7577 16
7578 21
7579 7
7580 45
7581 20
7582 24
7583 27
7584 53
7585 32
7586 9
7587 7
7588 26
7589 33
7590 41
7591 17
7592 11
7593 25
7594 28
7595 17
7596 43
7597 43
7598 36
7599 31
7600 32
7601 1
7602 28
7603 44
7604 42
7605 12
7606 34
7607 52
7608 2
7609 10
7610 43
7611 41
7612 20
7613 43
7614 14
7615 33
7616 20
7617 24
7618 2
7619 19
7620 1
7621 23
7622 52
7623 25
7624 6
7625 27
7626 24
7627 11
7628 30
7629 25
7630 32
7631 30
7632 2
7633 49
7634 4
7635 41
7636 45
7637 8
7638 50
7639 26
7640 15
7641 14
7642 47
7643 25
7644 46
7645 37
7646 38
7647 54
7648 20
7649 2
7650 8
7651 18
7652 44
7653 21
7654 12
7655 7
7656 41
7657 22
7658 9
7659 12
7660 26
7661 55
7662 38
7663 34
7664 38
7665 19
7666 42
7667 36
7668 42
7669 18
7670 34
7671 47
7672 22
7673 38
7674 26
7675 53
7676 10
7677 11
7678 42
7679 52
7680 53
7681 14
7682 5
7683 28
7684 0
7685 15
7686 18
7687 16
7688 54
7689 44
7690 41
7691 54
7692 54
7693 30
7694 8
7695 5
7696 0
7697 25
7698 21
7699 7
7700 29
7701 37
7702 48
7703 32
7704 6
7705 12
7706 4
7707 50
7708 9
7709 39
7710 20
7711 30
7712 49
7713 39
7714 52
7715 3
7716 41
7717 44
7718 22
7719 18
7720 45
7721 55
7722 47
7723 26
7724 14
7725 50
7726 31
7727 7
7728 34
7729 22
7730 16
7731 38
7732 3
7733 12
7734 45
7735 53
7736 44
7737 11
7738 21
7739 45
7740 43
7741 18
7742 26
7743 45
7744 45
7745 44
7746 17
7747 36
7748 49
7749 2
7750 45
7751 42
7752 41
7753 0
7754 20
7755 26
7756 16
7757 18
7758 42
7759 19
7760 42
7761 19
7762 6
7763 52
7764 46
7765 26
7766 10
7767 38
7768 7
7769 46
7770 32
7771 31
7772 19
7773 1
7774 20
7775 54
7776 50
7777 49
7778 38
7779 49
7780 25
7781 8
7782 17
7783 33
7784 13
7785 14
7786 44
7787 22
7788 20
7789 17
7790 31
7791 30
7792 39
7793 19
7794 50
7795 39
7796 5
7797 4
7798 47
7799 40
7800 24
7801 3
7802 38
7803 27
7804 9
7805 32
7806 12
7807 2
7808 9
7809 24
7810 18
7811 27
7812 43
7813 2
7814 8
7815 41
7816 35
7817 27
7818 32
7819 14
7820 26
7821 23
7822 51
7823 38
7824 40
7825 24
7826 1
7827 8
7828 27
7829 43
7830 36
7831 3
7832 17
7833 19
7834 36
7835 24
7836 19
7837 43
7838 3
7839 22
7840 27
7841 35
7842 39
7843 6
7844 36
7845 33
7846 38
7847 20
7848 27
7849 52
7850 3
7851 20
7852 22
7853 8
7854 14
7855 21
7856 34
7857 7
7858 24
7859 10
7860 10
7861 46
7862 39
7863 7
7864 42
7865 54
7866 49
7867 2
7868 28
7869 27
7870 16
7871 14
7872 22
7873 7
7874 41
7875 20
7876 42
7877 21
7878 3
7879 50
7880 36
7881 14
7882 47
7883 18
7884 28
7885 42
7886 9
7887 5
7888 16
7889 18
7890 9
7891 4
7892 2
7893 9
7894 54
7895 54
7896 20
7897 16
7898 37
7899 9
7900 34
7901 49
7902 38
7903 26
7904 43
7905 51
7906 21
7907 17
7908 4
7909 41
7910 41
7911 11
7912 6
7913 8
7914 41
7915 39
7916 54
7917 50
7918 19
7919 24
7920 41
7921 44
7922 38
7923 34
7924 0
7925 26
7926 24
7927 42
7928 20
7929 52
7930 42
7931 39
7932 41
7933 29
7934 41
7935 7
7936 42
7937 26
7938 39
7939 21
7940 23
7941 7
7942 29
7943 26
7944 40
7945 27
7946 9
7947 30
7948 8
7949 32
7950 47
7951 16
7952 32
7953 0
7954 2
7955 39
7956 39
7957 22
7958 4
7959 41
7960 24
7961 47
7962 25
7963 19
7964 8
7965 37
7966 9
7967 46
7968 40
7969 24
7970 34
7971 22
7972 26
7973 29
7974 18
7975 38
7976 37
7977 28
7978 21
7979 44
7980 13
7981 15
7982 52
7983 53
7984 27
7985 45
7986 0
7987 49
7988 47
7989 12
7990 19
7991 0
7992 14
7993 41
7994 33
7995 13
7996 52
7997 26
7998 2
7999 5
8000 0
8001 32
8002 19
8003 22
8004 23
8005 27
8006 52
8007 39
8008 28
8009 39
8010 47
8011 49
8012 46
8013 25
8014 20
8015 2
8016 8
8017 20
8018 50
8019 37
8020 27
8021 3
8022 23
8023 27
8024 20
8025 0
8026 26
8027 38
8028 44
8029 32
8030 41
8031 30
8032 9
8033 20
8034 24
8035 1
8036 14
8037 28
8038 24
8039 15
8040 31
8041 39
8042 14
8043 32
8044 3
8045 20
8046 32
8047 0
8048 4
8049 45
8050 4
8051 39
8052 33
8053 39
8054 37
8055 46
8056 22
8057 17
8058 48
8059 49
8060 41
8061 38
8062 48
8063 8
8064 1
8065 39
8066 49
8067 27
8068 19
8069 11
8070 27
8071 32
8072 14
8073 9
8074 50
8075 48
8076 17
8077 28
8078 32
8079 5
8080 54
8081 24
8082 37
8083 37
8084 4
8085 10
8086 21
8087 29
8088 17
8089 17
8090 26
8091 35
8092 40
8093 2
8094 10
8095 8
8096 42
8097 9
8098 12
8099 42
8100 40
8101 25
8102 38
8103 20
8104 24
8105 5
8106 45
8107 25
8108 10
8109 42
8110 16
8111 42
8112 29
8113 33
8114 50
8115 50
8116 26
8117 4
8118 0
8119 8
8120 17
8121 39
8122 7
8123 5
8124 28
8125 14
8126 38
8127 1
8128 46
8129 26
8130 34
8131 16
8132 20
8133 19
8134 34
8135 44
8136 46
8137 9
8138 26
8139 31
8140 7
8141 25
8142 30
8143 50
8144 18
8145 5
8146 5
8147 30
8148 22
8149 6
8150 40
8151 22
8152 38
8153 36
8154 42
8155 37
8156 43
8157 45
8158 6
8159 29
8160 27
8161 18
8162 5
8163 21
8164 36
8165 20
8166 7
8167 8
8168 26
8169 29
8170 21
8171 49
8172 0
8173 27
8174 24
8175 22
8176 34
8177 32
8178 38
8179 43
8180 24
8181 35
8182 26
8183 34
8184 7
8185 27
8186 27
8187 29
8188 49
8189 38
8190 0
8191 43
8192 16
8193 33
8194 49
8195 34
8196 0
8197 11
8198 45
8199 38
8200 41
8201 43
8202 29
8203 10
8204 42
8205 30
8206 8
8207 11
8208 11
8209 26
8210 32
8211 11
8212 8
8213 19
8214 43
8215 11
8216 43
8217 7
8218 42
8219 15
8220 25
8221 36
8222 17
8223 47
8224 44
8225 27
8226 43
8227 38
8228 46
8229 39
8230 37
8231 7
8232 42
8233 28
8234 28
8235 48
8236 4
8237 0
8238 46
8239 20
8240 50
8241 2
8242 19
8243 21
8244 18
8245 21
8246 17
8247 24
8248 43
8249 40
8250 51
8251 26
8252 16
8253 54
8254 24
8255 43
8256 8
8257 27
8258 29
8259 24
8260 43
8261 16
8262 26
8263 26
8264 0
8265 52
8266 42
8267 33
8268 26
8269 16
8270 15
8271 10
8272 7
8273 6
8274 38
8275 30
8276 33
8277 8
8278 55
8279 1
8280 14
8281 37
8282 39
8283 38
8284 30
8285 22
8286 25
8287 26
8288 23
8289 30
8290 29
8291 2
8292 38
8293 41
8294 6
8295 29
8296 32
8297 22
8298 21
8299 27
8300 38
8301 16
8302 47
8303 3
8304 0
8305 0
8306 5
8307 31
8308 39
8309 54
8310 23
8311 46
8312 20
8313 3
8314 43
8315 43
8316 15
8317 3
8318 53
8319 1
8320 17
8321 42
8322 12
8323 16
8324 4
8325 16
8326 24
8327 33
8328 40
8329 45
8330 54
8331 17
8332 48
8333 44
8334 28
8335 4
8336 24
8337 26
8338 38
8339 50
8340 13
8341 4
8342 22
8343 29
8344 45
8345 12
8346 33
8347 13
8348 29
8349 27
8350 17
8351 39
8352 43
8353 14
8354 16
8355 25
8356 43
8357 40
8358 6
8359 22
8360 48
8361 26
8362 13
8363 44
8364 1
8365 25
8366 43
8367 28
8368 47
8369 18
8370 21
8371 48
8372 43
8373 32
8374 1
8375 37
8376 27
8377 10
8378 48
8379 17
8380 15
8381 29
8382 27
8383 43
8384 52
8385 43
8386 16
8387 5
8388 20
8389 47
8390 14
8391 12
8392 32
8393 49
8394 17
8395 42
8396 19
8397 11
8398 7
8399 25
8400 32
8401 50
8402 22
8403 16
8404 52
8405 36
8406 23
8407 32
8408 28
8409 41
8410 43
8411 1
8412 14
8413 38
8414 30
8415 24
8416 13
8417 32
8418 36
8419 47
8420 31
8421 28
8422 10
8423 4
8424 27
8425 32
8426 50
8427 48
8428 14
8429 50
8430 34
8431 48
8432 7
8433 39
8434 52
8435 23
8436 33
8437 8
8438 22
8439 17
8440 2
8441 28
8442 27
8443 14
8444 27
8445 49
8446 9
8447 18
8448 20
8449 52
8450 19
8451 26
8452 1
8453 41
8454 45
8455 20
8456 11
8457 31
8458 40
8459 42
8460 22
8461 36
8462 51
8463 0
8464 41
8465 25
8466 13
8467 38
8468 39
8469 4
8470 31
8471 5
8472 8
8473 12
8474 24
8475 27
8476 4
8477 4
8478 11
8479 10
8480 34
8481 37
8482 52
8483 47
8484 9
8485 13
8486 37
8487 10
8488 42
8489 42
8490 11
8491 37
8492 7
8493 42
8494 7
8495 53
8496 27
8497 48
8498 1
8499 8
8500 41
8501 20
8502 17
8503 35
8504 8
8505 27
8506 14
8507 28
8508 49
8509 48
8510 38
8511 10
8512 37
8513 36
8514 50
8515 50
8516 2
8517 12
8518 29
8519 29
8520 50
8521 30
8522 19
8523 39
8524 27
8525 48
8526 25
8527 32
8528 27
8529 0
8530 26
8531 20
8532 16
8533 4
8534 54
8535 29
8536 40
8537 45
8538 17
8539 3
8540 5
8541 17
8542 15
8543 29
8544 24
8545 11
8546 42
8547 50
8548 39
8549 43
8550 3
8551 38
8552 42
8553 17
8554 39
8555 26
8556 32
8557 42
8558 55
8559 21
8560 14
8561 6
8562 55
8563 38
8564 36
8565 33
8566 7
8567 1
8568 39
8569 22
8570 48
8571 35
8572 8
8573 22
8574 0
8575 1
8576 55
8577 23
8578 6
8579 14
8580 27
8581 12
8582 26
8583 16
8584 4
8585 12
8586 33
8587 39
8588 41
8589 30
8590 38
8591 40
8592 10
8593 38
8594 22
8595 20
8596 43
8597 27
8598 16
8599 36
8600 44
8601 26
8602 35
8603 46
8604 23
8605 39
8606 16
8607 38
8608 28
8609 28
8610 21
8611 2
8612 17
8613 0
8614 47
8615 24
8616 31
8617 19
8618 38
8619 39
8620 27
8621 29
8622 53
8623 18
8624 44
8625 22
8626 45
8627 52
8628 41
8629 16
8630 26
8631 17
8632 2
8633 2
8634 40
8635 51
8636 5
8637 24
8638 2
8639 34
8640 29
8641 41
8642 32
8643 15
8644 46
8645 6
8646 7
8647 10
8648 29
8649 24
8650 5
8651 53
8652 19
8653 43
8654 28
8655 40
8656 31
8657 43
8658 41
8659 0
8660 24
8661 23
8662 7
8663 53
8664 50
8665 9
8666 5
8667 37
8668 29
8669 26
8670 41
8671 0
8672 1
8673 27
8674 14
8675 26
8676 45
8677 14
8678 48
8679 49
8680 48
8681 8
8682 1
8683 8
8684 17
8685 40
8686 10
8687 44
8688 45
8689 49
8690 35
8691 24
8692 37
8693 28
8694 9
8695 37
8696 15
8697 13
8698 50
8699 0
8700 16
8701 38
8702 28
8703 1
8704 0
8705 43
8706 12
8707 36
8708 25
8709 14
8710 14
8711 48
8712 29
8713 55
8714 43
8715 28
8716 12
8717 19
8718 48
8719 17
8720 38
8721 24
8722 1
8723 21
8724 14
8725 34
8726 8
8727 32
8728 22
8729 32
8730 44
8731 43
8732 9
8733 5
8734 34
8735 0
8736 29
8737 29
8738 2
8739 14
8740 2
8741 30
8742 34
8743 20
8744 23
8745 54
8746 28
8747 32
8748 25
8749 37
8750 11
8751 1
8752 47
8753 44
8754 43
8755 26
8756 7
8757 19
8758 39
8759 41
8760 55
8761 7
8762 24
8763 39
8764 5
8765 38
8766 14
8767 4
8768 43
8769 24
8770 22
8771 39
8772 37
8773 6
8774 48
8775 4
8776 8
8777 29
8778 29
8779 23
8780 28
8781 54
8782 45
8783 32
8784 29
8785 29
8786 48
8787 7
8788 3
8789 26
8790 20
8791 30
8792 5
8793 42
8794 27
8795 54
8796 24
8797 44
8798 13
8799 37
8800 31
8801 7
8802 16
8803 47
8804 42
8805 51
8806 12
8807 5
8808 35
8809 27
8810 37
8811 46
8812 42
8813 47
8814 47
8815 14
8816 27
8817 40
8818 31
8819 41
8820 0
8821 26
8822 7
8823 8
8824 17
8825 15
8826 30
8827 47
8828 7
8829 8
8830 7
8831 32
8832 24
8833 3
8834 6
8835 33
8836 41
8837 49
8838 19
8839 29
8840 6
8841 26
8842 43
8843 25
8844 34
8845 50
8846 36
8847 55
8848 7
8849 30
8850 47
8851 50
8852 27
8853 7
8854 9
8855 45
8856 13
8857 45
8858 46
8859 37
8860 36
8861 20
8862 24
8863 7
8864 43
8865 21
8866 35
8867 24
8868 14
8869 46
8870 19
8871 22
8872 3
8873 26
8874 33
8875 18
8876 1
8877 36
8878 49
8879 27
8880 3
8881 41
8882 15
8883 17
8884 42
8885 49
8886 23
8887 46
8888 2
8889 34
8890 53
8891 36
8892 21
8893 52
8894 15
8895 39
8896 39
8897 22
8898 2
8899 12
8900 15
8901 12
8902 9
8903 27
8904 24
8905 53
8906 41
8907 20
8908 26
8909 24
8910 27
8911 55
8912 14
8913 34
8914 1
8915 3
8916 0
8917 1
8918 13
8919 24
8920 41
8921 42
8922 27
8923 3
8924 12
8925 24
8926 6
8927 16
8928 16
8929 48
8930 34
8931 38
8932 7
8933 2
8934 47
8935 41
8936 29
8937 43
8938 26
8939 42
8940 22
8941 13
8942 38
8943 52
8944 20
8945 11
8946 20
8947 50
8948 33
8949 31
8950 5
8951 5
8952 25
8953 24
8954 16
8955 35
8956 30
8957 8
8958 49
8959 47
8960 24
8961 32
8962 24
8963 34
8964 51
8965 6
8966 20
8967 16
8968 50
8969 38
8970 0
8971 5
8972 52
8973 31
8974 41
8975 42
8976 46
8977 26
8978 52
8979 39
8980 27
8981 52
8982 9
8983 28
8984 37
8985 6
8986 24
8987 52
8988 15
8989 28
8990 32
8991 33
8992 26
8993 46
8994 16
8995 24
8996 6
8997 21
8998 21
8999 1
9000 38
9001 27
9002 40
9003 26
9004 43
9005 32
9006 52
9007 13
9008 3
9009 6
9010 23
9011 50
9012 20
9013 19
9014 1
9015 55
9016 12
9017 41
9018 46
9019 46
9020 20
9021 4
9022 5
9023 21
9024 25
9025 24
9026 5
9027 16
9028 4
9029 32
9030 44
9031 46
9032 30
9033 18
9034 9
9035 19
9036 21
9037 49
9038 3
9039 4
9040 55
9041 23
9042 43
9043 41
9044 32
9045 28
9046 44
9047 9
9048 21
9049 29
9050 47
9051 39
9052 45
9053 52
9054 24
9055 33
9056 42
9057 31
9058 26
9059 30
9060 6
9061 23
9062 52
9063 38
9064 48
9065 31
9066 21
9067 8
9068 0
9069 27
9070 37
9071 12
9072 11
9073 2
9074 38
9075 7
9076 34
9077 22
9078 5
9079 12
9080 20
9081 2
9082 46
9083 16
9084 4
9085 28
9086 42
9087 34
9088 28
9089 44
9090 8
9091 22
9092 45
9093 41
9094 32
9095 39
9096 48
9097 38
9098 24
9099 36
9100 52
9101 34
9102 43
9103 43
9104 35
9105 14
9106 11
9107 29
9108 24
9109 15
9110 16
9111 32
9112 30
9113 10
9114 36
9115 54
9116 43
9117 38
9118 43
9119 20
9120 2
9121 24
9122 8
9123 0
9124 41
9125 52
9126 14
9127 7
9128 39
9129 24
9130 13
9131 42
9132 28
9133 31
9134 27
9135 8
9136 21
9137 25
9138 49
9139 0
9140 0
9141 14
9142 44
9143 44
9144 0
9145 9
9146 25
9147 9
9148 47
9149 29
9150 24
9151 13
9152 1
9153 43
9154 16
9155 42
9156 43
9157 49
9158 16
9159 52
9160 43
9161 37
9162 20
9163 52
9164 24
9165 9
9166 1
9167 22
9168 21
9169 32
9170 43
9171 11
9172 38
9173 24
9174 14
9175 27
9176 32
9177 7
9178 1
9179 52
9180 8
9181 9
9182 50
9183 30
9184 53
9185 13
9186 0
9187 19
9188 52
9189 0
9190 4
9191 37
9192 4
9193 27
9194 33
9195 48
9196 49
9197 41
9198 19
9199 14
9200 34
9201 21
9202 0
9203 50
9204 31
9205 54
9206 43
9207 17
9208 26
9209 47
9210 48
9211 17
9212 17
9213 17
9214 23
9215 36
9216 10
9217 29
9218 6
9219 25
9220 50
9221 25
9222 11
9223 28
9224 18
9225 5
9226 52
9227 20
9228 47
9229 39
9230 29
9231 52
9232 27
9233 1
9234 22
9235 9
9236 30
9237 25
9238 11
9239 55
9240 19
9241 15
9242 11
9243 37
9244 34
9245 42
9246 0
9247 12
9248 28
9249 47
9250 47
9251 34
9252 20
9253 42
9254 7
9255 13
9256 24
9257 1
9258 10
9259 26
9260 24
9261 24
9262 26
9263 10
9264 21
9265 12
9266 50
9267 52
9268 50
9269 50
9270 45
9271 16
9272 28
9273 34
9274 54
9275 32
9276 23
9277 37
9278 2
9279 24
9280 3
9281 54
9282 34
9283 31
9284 34
9285 10
9286 44
9287 34
9288 38
9289 19
9290 25
9291 47
9292 24
9293 25
9294 21
9295 4
9296 55
9297 36
9298 4
9299 29
9300 40
9301 23
9302 49
9303 40
9304 3
9305 5
9306 42
9307 11
9308 14
9309 49
9310 16
9311 30
9312 8
9313 24
9314 54
9315 28
9316 43
9317 1
9318 33
9319 28
9320 52
9321 21
9322 28
9323 12
9324 4
9325 29
9326 49
9327 20
9328 4
9329 6
9330 9
9331 49
9332 6
9333 26
9334 29
9335 14
9336 52
9337 10
9338 17
9339 37
9340 27
9341 46
9342 50
9343 37
9344 13
9345 12
9346 21
9347 10
9348 24
9349 37
9350 26
9351 0
9352 22
9353 21
9354 9
9355 10
9356 22
9357 29
9358 20
9359 34
9360 18
9361 19
9362 3
9363 13
9364 37
9365 11
9366 51
9367 14
9368 29
9369 18
9370 39
9371 28
9372 39
9373 44
9374 4
9375 45
9376 28
9377 39
9378 51
9379 1
9380 7
9381 54
9382 22
9383 16
9384 10
9385 17
9386 26
9387 16
9388 13
9389 21
9390 36
9391 55
9392 20
9393 44
9394 43
9395 42
9396 20
9397 39
9398 44
9399 13
9400 20
9401 27
9402 28
9403 24
9404 21
9405 1
9406 4
9407 38
9408 55
9409 29
9410 7
9411 17
9412 33
9413 34
9414 27
9415 9
9416 43
9417 11
9418 39
9419 14
9420 3
9421 46
9422 7
9423 16
9424 50
9425 3
9426 39
9427 26
9428 7
9429 49
9430 47
9431 33
9432 44
9433 54
9434 38
9435 5
9436 33
9437 14
9438 29
9439 25
9440 29
9441 0
9442 1
9443 39
9444 34
9445 27
9446 17
9447 22
9448 14
9449 50
9450 46
9451 36
9452 50
9453 20
9454 27
9455 7
9456 31
9457 27
9458 28
9459 45
9460 14
9461 45
9462 14
9463 15
9464 33
9465 11
9466 37
9467 39
9468 37
9469 18
9470 46
9471 32
9472 18
9473 38
9474 28
9475 42
9476 0
9477 25
9478 34
9479 13
9480 39
9481 9
9482 43
9483 52
9484 34
9485 32
9486 5
9487 1
9488 26
9489 24
9490 0
9491 16
9492 24
9493 51
9494 10
9495 38
9496 46
9497 49
9498 13
9499 10
9500 5
9501 15
9502 37
9503 10
9504 2
9505 36
9506 27
9507 13
9508 1
9509 5
9510 8
9511 17
9512 8
9513 43
9514 28
9515 34
9516 6
9517 38
9518 41
9519 3
9520 37
9521 15
9522 4
9523 28
9524 4
9525 55
9526 13
9527 46
9528 37
9529 30
9530 39
9531 26
9532 26
9533 5
9534 16
9535 16
9536 54
9537 25
9538 13
9539 3
9540 44
9541 41
9542 16
9543 44
9544 30
9545 14
9546 7
9547 48
9548 35
9549 38
9550 28
9551 20
9552 14
9553 6
9554 25
9555 0
9556 9
9557 20
9558 21
9559 42
9560 46
9561 4
9562 43
9563 47
9564 19
9565 43
9566 35
9567 44
9568 55
9569 28
9570 50
9571 26
9572 23
9573 52
9574 46
9575 7
9576 39
9577 13
9578 7
9579 43
9580 7
9581 25
9582 29
9583 29
9584 12
9585 36
9586 44
9587 49
9588 21
9589 25
9590 6
9591 33
9592 24
9593 41
9594 36
9595 6
9596 54
9597 39
9598 10
9599 24
9600 23
9601 1
9602 44
9603 8
9604 45
9605 21
9606 46
9607 52
9608 18
9609 45
9610 8
9611 52
9612 29
9613 24
9614 40
9615 30
9616 37
9617 47
9618 20
9619 7
9620 25
9621 5
9622 14
9623 43
9624 29
9625 41
9626 41
9627 26
9628 44
9629 45
9630 43
9631 24
9632 4
9633 13
9634 17
9635 46
9636 22
9637 22
9638 52
9639 9
9640 22
9641 29
9642 24
9643 34
9644 54
9645 43
9646 28
9647 42
9648 15
9649 16
9650 27
9651 48
9652 51
9653 5
9654 50
9655 44
9656 43
9657 16
9658 1
9659 46
9660 38
9661 6
9662 30
9663 39
9664 20
9665 27
9666 46
9667 22
9668 23
9669 52
9670 24
9671 35
9672 27
9673 26
9674 41
9675 49
9676 45
9677 15
9678 16
9679 23
9680 38
9681 29
9682 7
9683 33
9684 25
9685 17
9686 39
9687 33
9688 43
9689 41
9690 19
9691 35
9692 7
9693 6
9694 38
9695 38
9696 40
9697 6
9698 29
9699 0
9700 24
9701 52
9702 10
9703 43
9704 41
9705 55
9706 38
9707 20
9708 34
9709 4
9710 49
9711 29
9712 22
9713 40
9714 28
9715 48
9716 52
9717 43
9718 39
9719 20
9720 31
9721 4
9722 24
9723 33
9724 21
9725 11
9726 31
9727 25
9728 53
9729 4
9730 9
9731 4
9732 7
9733 26
9734 35
9735 8
9736 41
9737 47
9738 2
9739 22
9740 48
9741 22
9742 9
9743 53
9744 7
9745 46
9746 34
9747 24
9748 44
9749 24
9750 28
9751 21
9752 25
9753 16
9754 18
9755 4
9756 29
9757 15
9758 14
9759 47
9760 26
9761 21
9762 38
9763 16
9764 27
9765 28
9766 1
9767 19
9768 49
9769 19
9770 34
9771 34
9772 49
9773 28
9774 45
9775 24
9776 12
9777 20
9778 46
9779 23
9780 43
9781 22
9782 21
9783 47
9784 11
9785 32
9786 38
9787 40
9788 45
9789 22
9790 14
9791 41
9792 26
9793 10
9794 52
9795 3
9796 49
9797 30
9798 16
9799 25
9800 52
9801 45
9802 26
9803 21
9804 39
9805 39
9806 10
9807 22
9808 49
9809 46
9810 29
9811 9
9812 50
9813 18
9814 42
9815 43
9816 28
9817 47
9818 46
9819 41
9820 28
9821 41
9822 15
9823 30
9824 37
9825 36
9826 39
9827 52
9828 18
9829 43
9830 43
9831 25
9832 19
9833 9
9834 5
9835 38
9836 43
9837 14
9838 35
9839 51
9840 13
9841 41
9842 22
9843 1
9844 22
9845 35
9846 28
9847 20
9848 24
9849 35
9850 47
9851 5
9852 34
9853 22
9854 34
9855 26
9856 14
9857 26
9858 42
9859 37
9860 26
9861 14
9862 7
9863 24
9864 20
9865 34
9866 27
9867 4
9868 47
9869 29
9870 5
9871 3
9872 15
9873 24
9874 27
9875 33
9876 8
9877 2
9878 15
9879 24
9880 50
9881 28
9882 45
9883 50
9884 36
9885 19
9886 41
9887 44
9888 45
9889 24
9890 44
9891 7
9892 44
9893 21
9894 1
9895 15
9896 41
9897 4
9898 46
9899 39
9900 16
9901 3
9902 26
9903 17
9904 4
9905 38
9906 53
9907 20
9908 52
9909 20
9910 54
9911 32
9912 16
9913 26
9914 49
9915 39
9916 10
9917 2
9918 17
9919 28
9920 15
9921 14
9922 4
9923 32
9924 14
9925 3
9926 9
9927 14
9928 24
9929 52
9930 12
9931 10
9932 15
9933 0
9934 28
9935 3
9936 48
9937 34
9938 21
9939 16
9940 45
9941 47
9942 7
9943 38
9944 11
9945 13
9946 24
9947 38
9948 33
9949 26
9950 29
9951 12
9952 21
9953 16
9954 35
9955 52
9956 24
9957 28
9958 17
9959 28
9960 20
9961 18
9962 4
9963 28
9964 4
9965 50
9966 32
9967 43
9968 39
9969 27
9970 28
9971 7
9972 54
9973 25
9974 47
9975 14
9976 38
9977 0
9978 32
9979 6
9980 14
9981 23
9982 45
9983 26
9984 13
9985 9
9986 18
9987 19
9988 24
9989 11
9990 4
9991 41
9992 3
9993 0
9994 16
9995 8
9996 52
9997 48
9998 51
9999 22
