0 0
1 1
2 2
3 3
4 4
5 5
6 4
7 6
8 7
9 8
10 9
11 4
12 10
13 11
14 9
15 12
16 4
17 3
18 13
19 11
20 14
21 8
22 15
23 16
24 17
25 8
26 18
27 19
28 20
29 7
30 21
31 22
32 23
33 19
34 16
35 9
36 21
37 24
38 25
39 8
40 16
41 7
42 9
43 26
44 9
45 27
46 28
47 11
48 29
49 30
50 15
51 8
52 31
53 31
54 31
55 3
56 21
57 10
58 32
59 27
60 33
61 21
62 33
63 12
64 34
65 21
66 35
67 36
68 37
69 19
70 9
71 9
72 32
73 19
74 7
75 33
76 7
77 14
78 4
79 21
80 6
81 14
82 8
83 38
84 6
85 39
86 12
87 10
88 15
89 9
90 13
91 26
92 11
93 12
94 40
95 16
96 7
97 41
98 9
99 42
100 43
101 26
102 17
103 4
104 8
105 44
106 6
107 40
108 33
109 41
110 22
111 8
112 45
113 15
114 38
115 9
116 46
117 3
118 11
119 16
120 22
121 4
122 40
123 33
124 41
125 37
126 33
127 29
128 37
129 15
130 9
131 25
132 38
133 15
134 17
135 36
136 17
137 20
138 19
139 36
140 37
141 8
142 25
143 31
144 9
145 4
146 19
147 21
148 5
149 6
150 34
151 15
152 13
153 45
154 47
155 10
156 22
157 17
158 18
159 24
160 9
161 11
162 17
163 0
164 45
165 33
166 33
167 36
168 34
169 16
170 34
171 5
172 33
173 7
174 3
175 21
176 3
177 7
178 3
179 17
180 40
181 48
182 49
183 9
184 27
185 26
186 3
187 27
188 9
189 50
190 21
191 9
192 28
193 10
194 29
195 19
196 25
197 42
198 11
199 7
200 21
201 16
202 38
203 9
204 3
205 4
206 15
207 15
208 34
209 8
210 18
211 40
212 8
213 6
214 33
215 17
216 20
217 4
218 15
219 7
220 6
221 6
222 8
223 22
224 15
225 22
226 9
227 48
228 51
229 9
230 19
231 45
232 2
233 52
234 32
235 21
236 33
237 4
238 15
239 44
240 5
241 15
242 33
243 14
244 4
245 21
246 22
247 20
248 23
249 20
250 51
251 53
252 32
253 34
254 19
255 5
256 12
257 17
258 6
259 21
260 42
261 45
262 43
263 18
264 15
265 25
266 4
267 4
268 19
269 45
270 54
271 3
272 38
273 15
274 40
275 13
276 12
277 22
278 20
279 55
280 8
281 25
282 15
283 12
284 8
285 11
286 9
287 10
288 56
289 20
290 9
291 38
292 32
293 24
294 37
295 25
296 4
297 25
298 29
299 20
300 10
301 16
302 21
303 6
304 22
305 3
306 0
307 34
308 4
309 53
310 14
311 29
312 57
313 6
314 6
315 22
316 44
317 14
318 4
319 7
320 14
321 12
322 49
323 7
324 15
325 48
326 16
327 42
328 58
329 31
330 20
331 28
332 6
333 49
334 40
335 32
336 49
337 4
338 14
339 8
340 42
341 28
342 12
343 5
344 41
345 25
346 9
347 57
348 59
349 20
350 57
351 20
352 15
353 33
354 25
355 43
356 4
357 10
358 3
359 6
360 21
361 0
362 33
363 54
364 33
365 21
366 14
367 60
368 30
369 9
370 22
371 5
372 4
373 14
374 31
375 38
376 19
377 9
378 21
379 49
380 22
381 8
382 12
383 57
384 15
385 14
386 8
387 16
388 9
389 36
390 20
391 16
392 48
393 27
394 4
395 59
396 25
397 23
398 59
399 61
400 14
401 13
402 13
403 11
404 6
405 9
406 2
407 36
408 25
409 40
410 14
411 5
412 22
413 28
414 44
415 19
416 34
417 8
418 16
419 62
420 4
421 52
422 56
423 19
424 53
425 7
426 44
427 48
428 12
429 38
430 21
431 20
432 41
433 9
434 10
435 37
436 6
437 48
438 13
439 34
440 61
441 62
442 44
443 6
444 14
445 36
446 4
447 29
448 21
449 9
450 19
451 0
452 8
453 5
454 15
455 28
456 16
457 12
458 6
459 48
460 36
461 15
462 20
463 6
464 35
465 4
466 4
467 3
468 63
469 19
470 16
471 17
472 21
473 5
474 1
475 20
476 5
477 20
478 0
479 47
480 11
481 64
482 19
483 23
484 3
485 33
486 7
487 4
488 44
489 11
490 26
491 54
492 38
493 19
494 14
495 65
496 18
497 22
498 22
499 3
500 54
501 14
502 6
503 7
504 4
505 9
506 17
507 19
508 2
509 20
510 38
511 36
512 27
513 15
514 64
515 4
516 48
517 29
518 20
519 15
520 25
521 8
522 15
523 11
524 47
525 21
526 14
527 26
528 20
529 50
530 18
531 0
532 32
533 49
534 47
535 18
536 18
537 66
538 19
539 18
540 3
541 32
542 40
543 44
544 2
545 40
546 18
547 38
548 39
549 8
550 54
551 57
552 36
553 21
554 17
555 22
556 20
557 60
558 8
559 25
560 38
561 22
562 17
563 33
564 1
565 25
566 6
567 43
568 36
569 38
570 15
571 0
572 19
573 25
574 2
575 21
576 40
577 36
578 3
579 25
580 20
581 43
582 17
583 31
584 7
585 8
586 29
587 32
588 6
589 38
590 46
591 32
592 47
593 20
594 10
595 63
596 21
597 15
598 36
599 61
600 22
601 33
602 25
603 36
604 12
605 33
606 20
607 22
608 4
609 15
610 21
611 5
612 50
613 50
614 40
615 23
616 8
617 21
618 22
619 21
620 14
621 20
622 38
623 15
624 3
625 20
626 31
627 2
628 22
629 36
630 59
631 12
632 3
633 33
634 44
635 32
636 6
637 38
638 8
639 10
640 15
641 4
642 61
643 20
644 8
645 9
646 33
647 49
648 47
649 28
650 14
651 42
652 9
653 17
654 66
655 5
656 9
657 6
658 21
659 54
660 8
661 5
662 40
663 20
664 7
665 15
666 48
667 61
668 28
669 20
670 38
671 38
672 28
673 16
674 33
675 6
676 14
677 48
678 4
679 8
680 18
681 1
682 42
683 44
684 52
685 10
686 20
687 21
688 6
689 48
690 21
691 15
692 6
693 51
694 41
695 20
696 58
697 6
698 36
699 16
700 2
701 25
702 9
703 20
704 38
705 64
706 34
707 15
708 14
709 39
710 35
711 31
712 19
713 21
714 14
715 34
716 21
717 3
718 36
719 63
720 9
721 58
722 26
723 64
724 29
725 8
726 10
727 4
728 29
729 19
730 32
731 2
732 36
733 14
734 0
735 10
736 4
737 21
738 7
739 16
740 5
741 38
742 16
743 18
744 16
745 8
746 27
747 25
748 61
749 0
750 19
751 4
752 20
753 38
754 32
755 27
756 17
757 50
758 7
759 17
760 19
761 10
762 38
763 4
764 0
765 16
766 33
767 40
768 33
769 44
770 12
771 38
772 6
773 51
774 6
775 10
776 22
777 28
778 45
779 34
780 31
781 33
782 17
783 41
784 40
785 32
786 57
787 7
788 64
789 11
790 49
791 3
792 9
793 9
794 16
795 50
796 7
797 24
798 22
799 10
800 41
801 33
802 6
803 0
804 16
805 15
806 23
807 29
808 12
809 62
810 56
811 6
812 19
813 21
814 20
815 0
816 45
817 17
818 45
819 35
820 16
821 45
822 16
823 40
824 19
825 58
826 40
827 34
828 8
829 7
830 44
831 36
832 41
833 50
834 41
835 16
836 38
837 16
838 19
839 18
840 6
841 31
842 29
843 21
844 21
845 31
846 6
847 36
848 6
849 12
850 10
851 15
852 22
853 6
854 10
855 6
856 38
857 21
858 7
859 6
860 19
861 9
862 6
863 15
864 21
865 41
866 33
867 9
868 45
869 22
870 3
871 49
872 47
873 18
874 17
875 6
876 4
877 12
878 38
879 12
880 7
881 7
882 21
883 14
884 8
885 8
886 57
887 16
888 20
889 34
890 10
891 9
892 29
893 0
894 37
895 37
896 9
897 8
898 33
899 0
900 6
901 7
902 36
903 29
904 21
905 20
906 8
907 4
908 17
909 40
910 55
911 32
912 20
913 15
914 21
915 45
916 64
917 14
918 1
919 66
920 6
921 15
922 35
923 6
924 22
925 6
926 20
927 20
928 19
929 18
930 17
931 14
932 51
933 42
934 22
935 7
936 10
937 2
938 18
939 14
940 43
941 14
942 40
943 64
944 17
945 42
946 5
947 5
948 6
949 10
950 38
951 20
952 16
953 9
954 29
955 29
956 21
957 48
958 34
959 47
960 33
961 18
962 8
963 29
964 8
965 4
966 54
967 22
968 38
969 7
970 21
971 23
972 5
973 17
974 38
975 20
976 50
977 24
978 21
979 10
980 5
981 28
982 36
983 21
984 14
985 53
986 34
987 63
988 7
989 33
990 46
991 4
992 65
993 6
994 15
995 38
996 6
997 24
998 21
999 41
1000 8
1001 46
1002 16
1003 36
1004 14
1005 8
1006 53
1007 22
1008 14
1009 47
1010 38
1011 20
1012 44
1013 8
1014 17
1015 7
1016 21
1017 14
1018 2
1019 23
1020 29
1021 7
1022 66
1023 4
1024 33
1025 10
1026 29
1027 32
1028 36
1029 54
1030 50
1031 38
1032 15
1033 12
1034 38
1035 51
1036 7
1037 24
1038 10
1039 36
1040 61
1041 18
1042 20
1043 38
1044 27
1045 8
1046 41
1047 33
1048 1
1049 4
1050 57
1051 42
1052 37
1053 7
1054 17
1055 15
1056 60
1057 21
1058 18
1059 5
1060 64
1061 45
1062 18
1063 57
1064 49
1065 15
1066 2
1067 29
1068 21
1069 41
1070 55
1071 16
1072 43
1073 54
1074 7
1075 20
1076 19
1077 44
1078 51
1079 8
1080 19
1081 1
1082 10
1083 14
1084 57
1085 48
1086 20
1087 43
1088 44
1089 42
1090 38
1091 3
1092 6
1093 5
1094 49
1095 6
1096 6
1097 19
1098 22
1099 25
1100 34
1101 22
1102 18
1103 32
1104 6
1105 20
1106 8
1107 31
1108 24
1109 9
1110 38
1111 10
1112 8
1113 7
1114 4
1115 16
1116 15
1117 15
1118 22
1119 54
1120 33
1121 20
1122 19
1123 4
1124 0
1125 15
1126 42
1127 25
1128 34
1129 36
1130 14
1131 5
1132 16
1133 9
1134 39
1135 60
1136 9
1137 20
1138 6
1139 3
1140 12
1141 45
1142 47
1143 48
1144 47
1145 10
1146 15
1147 14
1148 33
1149 7
1150 14
1151 20
1152 34
1153 15
1154 4
1155 16
1156 29
1157 58
1158 48
1159 25
1160 16
1161 10
1162 4
1163 12
1164 20
1165 5
1166 21
1167 10
1168 8
1169 50
1170 9
1171 6
1172 15
1173 8
1174 6
1175 43
1176 15
1177 17
1178 3
1179 54
1180 67
1181 62
1182 34
1183 4
1184 32
1185 20
1186 44
1187 25
1188 34
1189 16
1190 15
1191 33
1192 21
1193 54
1194 4
1195 25
1196 4
1197 42
1198 22
1199 42
1200 22
1201 55
1202 28
1203 39
1204 49
1205 22
1206 42
1207 40
1208 42
1209 4
1210 8
1211 48
1212 36
1213 12
1214 5
1215 20
1216 20
1217 25
1218 24
1219 4
1220 41
1221 33
1222 29
1223 62
1224 47
1225 18
1226 8
1227 36
1228 9
1229 38
1230 18
1231 12
1232 21
1233 6
1234 11
1235 18
1236 40
1237 14
1238 20
1239 32
1240 53
1241 6
1242 2
1243 25
1244 19
1245 19
1246 21
1247 5
1248 6
1249 48
1250 21
1251 16
1252 12
1253 6
1254 12
1255 15
1256 3
1257 31
1258 27
1259 36
1260 47
1261 9
1262 25
1263 40
1264 4
1265 14
1266 35
1267 6
1268 19
1269 47
1270 24
1271 34
1272 15
1273 0
1274 65
1275 15
1276 20
1277 2
1278 61
1279 18
1280 57
1281 5
1282 8
1283 36
1284 6
1285 8
1286 34
1287 16
1288 5
1289 19
1290 58
1291 6
1292 15
1293 7
1294 10
1295 37
1296 21
1297 15
1298 7
1299 22
1300 54
1301 13
1302 21
1303 4
1304 16
1305 45
1306 7
1307 19
1308 34
1309 39
1310 0
1311 18
1312 4
1313 21
1314 4
1315 19
1316 49
1317 4
1318 25
1319 27
1320 21
1321 33
1322 51
1323 38
1324 6
1325 15
1326 6
1327 64
1328 19
1329 8
1330 20
1331 38
1332 8
1333 9
1334 18
1335 14
1336 36
1337 29
1338 20
1339 4
1340 16
1341 6
1342 23
1343 6
1344 25
1345 52
1346 59
1347 64
1348 10
1349 15
1350 57
1351 4
1352 22
1353 58
1354 31
1355 33
1356 64
1357 53
1358 19
1359 18
1360 64
1361 14
1362 22
1363 10
1364 23
1365 15
1366 37
1367 20
1368 8
1369 7
1370 15
1371 62
1372 12
1373 33
1374 3
1375 5
1376 31
1377 54
1378 32
1379 15
1380 6
1381 9
1382 40
1383 22
1384 3
1385 4
1386 31
1387 19
1388 64
1389 5
1390 21
1391 8
1392 51
1393 12
1394 57
1395 31
1396 47
1397 21
1398 56
1399 62
1400 4
1401 36
1402 21
1403 40
1404 38
1405 32
1406 6
1407 64
1408 15
1409 4
1410 5
1411 19
1412 19
1413 44
1414 9
1415 24
1416 2
1417 57
1418 1
1419 18
1420 7
1421 14
1422 5
1423 15
1424 9
1425 36
1426 9
1427 25
1428 42
1429 0
1430 2
1431 14
1432 21
1433 53
1434 42
1435 33
1436 7
1437 21
1438 17
1439 8
1440 44
1441 9
1442 54
1443 0
1444 49
1445 10
1446 35
1447 42
1448 32
1449 48
1450 12
1451 48
1452 19
1453 38
1454 8
1455 17
1456 21
1457 32
1458 17
1459 49
1460 8
1461 17
1462 9
1463 15
1464 65
1465 16
1466 38
1467 45
1468 33
1469 11
1470 22
1471 35
1472 47
1473 20
1474 8
1475 17
1476 14
1477 10
1478 14
1479 2
1480 8
1481 22
1482 49
1483 17
1484 2
1485 17
1486 49
1487 17
1488 42
1489 44
1490 49
1491 17
1492 7
1493 63
1494 52
1495 29
1496 4
1497 5
1498 11
1499 3
1500 10
1501 18
1502 21
1503 24
1504 16
1505 44
1506 34
1507 17
1508 49
1509 21
1510 0
1511 4
1512 20
1513 29
1514 37
1515 6
1516 31
1517 6
1518 0
1519 36
1520 31
1521 56
1522 25
1523 20
1524 47
1525 38
1526 28
1527 44
1528 7
1529 16
1530 26
1531 4
1532 25
1533 25
1534 5
1535 3
1536 67
1537 32
1538 4
1539 6
1540 12
1541 57
1542 8
1543 5
1544 3
1545 22
1546 4
1547 8
1548 32
1549 18
1550 42
1551 41
1552 4
1553 44
1554 2
1555 38
1556 20
1557 6
1558 15
1559 18
1560 2
1561 38
1562 7
1563 2
1564 38
1565 21
1566 10
1567 15
1568 3
1569 33
1570 38
1571 9
1572 44
1573 15
1574 22
1575 20
1576 31
1577 44
1578 51
1579 8
1580 18
1581 12
1582 10
1583 45
1584 3
1585 19
1586 42
1587 9
1588 8
1589 22
1590 50
1591 23
1592 45
1593 33
1594 19
1595 0
1596 7
1597 42
1598 47
1599 42
1600 61
1601 38
1602 4
1603 45
1604 21
1605 62
1606 7
1607 17
1608 21
1609 38
1610 20
1611 38
1612 11
1613 59
1614 4
1615 12
1616 7
1617 7
1618 15
1619 60
1620 21
1621 1
1622 15
1623 11
1624 14
1625 32
1626 36
1627 15
1628 19
1629 5
1630 38
1631 8
1632 17
1633 20
1634 10
1635 15
1636 20
1637 30
1638 9
1639 14
1640 29
1641 5
1642 15
1643 19
1644 2
1645 22
1646 19
1647 29
1648 17
1649 18
1650 36
1651 25
1652 22
1653 9
1654 33
1655 8
1656 33
1657 45
1658 16
1659 29
1660 18
1661 7
1662 10
1663 10
1664 6
1665 25
1666 6
1667 11
1668 25
1669 40
1670 20
1671 20
1672 17
1673 43
1674 20
1675 25
1676 33
1677 15
1678 11
1679 25
1680 9
1681 62
1682 31
1683 18
1684 6
1685 15
1686 6
1687 20
1688 8
1689 21
1690 6
1691 47
1692 56
1693 12
1694 6
1695 20
1696 6
1697 40
1698 33
1699 6
1700 58
1701 9
1702 54
1703 15
1704 10
1705 4
1706 9
1707 8
1708 28
1709 15
1710 3
1711 22
1712 14
1713 64
1714 5
1715 32
1716 10
1717 14
1718 48
1719 16
1720 32
1721 42
1722 15
1723 14
1724 35
1725 44
1726 38
1727 28
1728 32
1729 15
1730 25
1731 38
1732 16
1733 13
1734 16
1735 25
1736 4
1737 18
1738 22
1739 19
1740 19
1741 19
1742 22
1743 8
1744 5
1745 60
1746 5
1747 63
1748 21
1749 1
1750 9
1751 57
1752 35
1753 4
1754 50
1755 55
1756 16
1757 51
1758 25
1759 36
1760 18
1761 19
1762 7
1763 7
1764 36
1765 8
1766 5
1767 18
1768 8
1769 53
1770 62
1771 19
1772 21
1773 16
1774 25
1775 7
1776 20
1777 10
1778 29
1779 33
1780 8
1781 27
1782 49
1783 25
1784 6
1785 54
1786 24
1787 63
1788 21
1789 36
1790 0
1791 5
1792 63
1793 44
1794 10
1795 17
1796 48
1797 26
1798 22
1799 38
1800 0
1801 30
1802 20
1803 20
1804 16
1805 9
1806 5
1807 36
1808 22
1809 6
1810 67
1811 53
1812 17
1813 20
1814 20
1815 17
1816 25
1817 36
1818 23
1819 62
1820 37
1821 8
1822 33
1823 32
1824 21
1825 16
1826 18
1827 22
1828 26
1829 9
1830 5
1831 50
1832 9
1833 29
1834 12
1835 38
1836 38
1837 6
1838 65
1839 24
1840 14
1841 34
1842 43
1843 17
1844 23
1845 3
1846 25
1847 13
1848 15
1849 33
1850 10
1851 33
1852 12
1853 21
1854 5
1855 47
1856 44
1857 41
1858 16
1859 16
1860 20
1861 8
1862 21
1863 17
1864 48
1865 44
1866 64
1867 40
1868 15
1869 66
1870 33
1871 44
1872 11
1873 19
1874 20
1875 38
1876 57
1877 9
1878 29
1879 3
1880 15
1881 4
1882 36
1883 51
1884 17
1885 25
1886 15
1887 17
1888 41
1889 57
1890 8
1891 14
1892 6
1893 14
1894 19
1895 19
1896 38
1897 11
1898 8
1899 16
1900 17
1901 14
1902 4
1903 52
1904 29
1905 29
1906 33
1907 19
1908 53
1909 32
1910 36
1911 33
1912 46
1913 11
1914 25
1915 32
1916 33
1917 7
1918 33
1919 9
1920 23
1921 3
1922 0
1923 28
1924 61
1925 38
1926 0
1927 19
1928 20
1929 6
1930 4
1931 5
1932 7
1933 36
1934 64
1935 14
1936 0
1937 21
1938 19
1939 20
1940 22
1941 5
1942 7
1943 18
1944 10
1945 44
1946 41
1947 6
1948 49
1949 21
1950 4
1951 10
1952 16
1953 7
1954 17
1955 27
1956 40
1957 47
1958 7
1959 37
1960 11
1961 45
1962 0
1963 8
1964 8
1965 18
1966 43
1967 1
1968 39
1969 7
1970 12
1971 15
1972 19
1973 54
1974 37
1975 22
1976 46
1977 35
1978 11
1979 13
1980 6
1981 8
1982 10
1983 25
1984 17
1985 19
1986 37
1987 4
1988 54
1989 21
1990 37
1991 14
1992 21
1993 9
1994 14
1995 34
1996 4
1997 6
1998 63
1999 11
2000 3
2001 50
2002 4
2003 41
2004 13
2005 9
2006 59
2007 33
2008 9
2009 11
2010 14
2011 31
2012 2
2013 17
2014 15
2015 21
2016 20
2017 4
2018 12
2019 31
2020 44
2021 32
2022 15
2023 60
2024 18
2025 10
2026 9
2027 53
2028 42
2029 49
2030 5
2031 36
2032 44
2033 47
2034 29
2035 20
2036 20
2037 6
2038 38
2039 49
2040 10
2041 17
2042 56
2043 64
2044 54
2045 21
2046 5
2047 12
2048 4
2049 10
2050 28
2051 35
2052 19
2053 31
2054 10
2055 24
2056 22
2057 42
2058 54
2059 19
2060 8
2061 23
2062 66
2063 16
2064 25
2065 62
2066 23
2067 33
2068 54
2069 3
2070 25
2071 8
2072 15
2073 6
2074 8
2075 9
2076 31
2077 44
2078 4
2079 3
2080 17
2081 36
2082 31
2083 25
2084 3
2085 20
2086 21
2087 4
2088 14
2089 10
2090 9
2091 4
2092 9
2093 32
2094 17
2095 67
2096 20
2097 4
2098 9
2099 22
2100 14
2101 22
2102 20
2103 0
2104 42
2105 61
2106 33
2107 22
2108 5
2109 14
2110 21
2111 12
2112 8
2113 6
2114 29
2115 18
2116 63
2117 13
2118 4
2119 9
2120 4
2121 24
2122 48
2123 55
2124 62
2125 31
2126 64
2127 18
2128 3
2129 8
2130 7
2131 14
2132 21
2133 16
2134 41
2135 4
2136 22
2137 62
2138 17
2139 40
2140 14
2141 9
2142 25
2143 19
2144 19
2145 2
2146 45
2147 14
2148 57
2149 22
2150 31
2151 38
2152 8
2153 36
2154 58
2155 19
2156 53
2157 26
2158 6
2159 9
2160 48
2161 10
2162 44
2163 18
2164 3
2165 14
2166 11
2167 0
2168 4
2169 20
2170 19
2171 8
2172 21
2173 49
2174 49
2175 16
2176 12
2177 6
2178 15
2179 4
2180 9
2181 17
2182 32
2183 58
2184 1
2185 12
2186 16
2187 15
2188 6
2189 47
2190 16
2191 9
2192 45
2193 54
2194 2
2195 33
2196 33
2197 9
2198 49
2199 45
2200 38
2201 15
2202 18
2203 17
2204 16
2205 3
2206 7
2207 51
2208 21
2209 66
2210 29
2211 40
2212 36
2213 7
2214 10
2215 4
2216 5
2217 5
2218 0
2219 36
2220 49
2221 8
2222 8
2223 17
2224 6
2225 50
2226 57
2227 15
2228 15
2229 1
2230 31
2231 19
2232 2
2233 17
2234 51
2235 21
2236 30
2237 32
2238 21
2239 36
2240 29
2241 6
2242 19
2243 1
2244 48
2245 4
2246 0
2247 38
2248 2
2249 47
2250 44
2251 64
2252 38
2253 41
2254 7
2255 20
2256 14
2257 8
2258 13
2259 18
2260 22
2261 42
2262 34
2263 40
2264 12
2265 21
2266 17
2267 4
2268 7
2269 9
2270 19
2271 4
2272 16
2273 25
2274 9
2275 15
2276 19
2277 6
2278 33
2279 8
2280 9
2281 21
2282 7
2283 44
2284 4
2285 8
2286 10
2287 2
2288 10
2289 5
2290 37
2291 41
2292 45
2293 24
2294 38
2295 30
2296 9
2297 4
2298 6
2299 15
2300 4
2301 21
2302 21
2303 32
2304 18
2305 60
2306 20
2307 22
2308 9
2309 38
2310 7
2311 16
2312 21
2313 38
2314 19
2315 1
2316 33
2317 0
2318 4
2319 8
2320 3
2321 5
2322 50
2323 20
2324 47
2325 34
2326 4
2327 21
2328 4
2329 16
2330 9
2331 12
2332 9
2333 6
2334 4
2335 31
2336 8
2337 11
2338 4
2339 14
2340 28
2341 19
2342 21
2343 5
2344 50
2345 33
2346 48
2347 16
2348 0
2349 21
2350 20
2351 19
2352 20
2353 29
2354 20
2355 4
2356 54
2357 8
2358 29
2359 21
2360 34
2361 38
2362 34
2363 19
2364 21
2365 6
2366 36
2367 6
2368 31
2369 6
2370 8
2371 18
2372 6
2373 17
2374 36
2375 22
2376 62
2377 5
2378 14
2379 19
2380 26
2381 20
2382 38
2383 9
2384 34
2385 4
2386 33
2387 20
2388 27
2389 36
2390 22
2391 14
2392 54
2393 0
2394 22
2395 49
2396 30
2397 15
2398 17
2399 41
2400 56
2401 4
2402 49
2403 19
2404 47
2405 36
2406 27
2407 7
2408 8
2409 40
2410 34
2411 5
2412 9
2413 3
2414 4
2415 0
2416 38
2417 21
2418 33
2419 17
2420 0
2421 19
2422 33
2423 56
2424 15
2425 22
2426 63
2427 15
2428 62
2429 16
2430 32
2431 38
2432 48
2433 9
2434 54
2435 47
2436 59
2437 38
2438 8
2439 14
2440 21
2441 20
2442 15
2443 42
2444 59
2445 11
2446 55
2447 11
2448 17
2449 36
2450 7
2451 30
2452 6
2453 15
2454 36
2455 20
2456 6
2457 14
2458 5
2459 4
2460 12
2461 5
2462 16
2463 53
2464 25
2465 33
2466 3
2467 24
2468 17
2469 44
2470 54
2471 15
2472 48
2473 8
2474 28
2475 32
2476 40
2477 22
2478 14
2479 18
2480 40
2481 18
2482 24
2483 21
2484 17
2485 61
2486 19
2487 34
2488 11
2489 23
2490 29
2491 20
2492 6
2493 16
2494 29
2495 6
2496 18
2497 5
2498 53
2499 45
2500 16
2501 5
2502 4
2503 19
2504 9
2505 14
2506 10
2507 44
2508 15
2509 16
2510 7
2511 14
2512 40
2513 26
2514 56
2515 6
2516 7
2517 34
2518 18
2519 5
2520 9
2521 20
2522 44
2523 8
2524 4
2525 9
2526 9
2527 51
2528 29
2529 47
2530 33
2531 10
2532 9
2533 8
2534 16
2535 62
2536 10
2537 20
2538 5
2539 36
2540 10
2541 16
2542 19
2543 19
2544 33
2545 19
2546 57
2547 48
2548 25
2549 32
2550 9
2551 54
2552 11
2553 2
2554 4
2555 20
2556 16
2557 10
2558 57
2559 33
2560 25
2561 14
2562 15
2563 36
2564 3
2565 29
2566 32
2567 8
2568 26
2569 5
2570 6
2571 6
2572 49
2573 41
2574 34
2575 36
2576 6
2577 18
2578 17
2579 3
2580 5
2581 38
2582 57
2583 19
2584 15
2585 22
2586 33
2587 17
2588 10
2589 7
2590 21
2591 36
2592 3
2593 8
2594 33
2595 16
2596 3
2597 14
2598 48
2599 11
2600 65
2601 2
2602 6
2603 17
2604 16
2605 16
2606 18
2607 43
2608 10
2609 6
2610 12
2611 33
2612 36
2613 7
2614 4
2615 44
2616 21
2617 38
2618 6
2619 31
2620 8
2621 32
2622 16
2623 48
2624 15
2625 17
2626 20
2627 6
2628 8
2629 4
2630 20
2631 34
2632 40
2633 1
2634 60
2635 44
2636 15
2637 14
2638 48
2639 3
2640 41
2641 21
2642 49
2643 27
2644 54
2645 4
2646 6
2647 39
2648 19
2649 47
2650 29
2651 16
2652 54
2653 33
2654 14
2655 15
2656 18
2657 33
2658 63
2659 22
2660 50
2661 25
2662 36
2663 40
2664 10
2665 20
2666 31
2667 28
2668 26
2669 34
2670 34
2671 37
2672 37
2673 20
2674 17
2675 9
2676 34
2677 5
2678 9
2679 2
2680 47
2681 54
2682 38
2683 6
2684 25
2685 9
2686 18
2687 25
2688 4
2689 42
2690 54
2691 4
2692 10
2693 31
2694 20
2695 4
2696 9
2697 38
2698 7
2699 3
2700 38
2701 30
2702 49
2703 16
2704 14
2705 16
2706 10
2707 64
2708 23
2709 10
2710 7
2711 28
2712 22
2713 10
2714 4
2715 25
2716 9
2717 17
2718 19
2719 15
2720 21
2721 6
2722 46
2723 7
2724 21
2725 8
2726 31
2727 22
2728 7
2729 9
2730 27
2731 18
2732 21
2733 58
2734 16
2735 30
2736 20
2737 17
2738 43
2739 0
2740 25
2741 21
2742 4
2743 34
2744 17
2745 7
2746 7
2747 9
2748 22
2749 49
2750 31
2751 38
2752 20
2753 2
2754 31
2755 49
2756 63
2757 4
2758 62
2759 16
2760 4
2761 44
2762 4
2763 6
2764 20
2765 19
2766 36
2767 5
2768 8
2769 62
2770 38
2771 18
2772 2
2773 17
2774 52
2775 25
2776 17
2777 26
2778 41
2779 15
2780 0
2781 34
2782 20
2783 57
2784 20
2785 36
2786 7
2787 17
2788 7
2789 9
2790 32
2791 38
2792 45
2793 20
2794 42
2795 17
2796 67
2797 57
2798 15
2799 8
2800 14
2801 3
2802 18
2803 34
2804 20
2805 9
2806 31
2807 0
2808 36
2809 17
2810 5
2811 10
2812 8
2813 49
2814 63
2815 31
2816 19
2817 9
2818 20
2819 47
2820 33
2821 27
2822 24
2823 58
2824 26
2825 60
2826 4
2827 15
2828 21
2829 21
2830 7
2831 0
2832 25
2833 12
2834 3
2835 0
2836 21
2837 31
2838 7
2839 44
2840 17
2841 22
2842 6
2843 0
2844 17
2845 57
2846 9
2847 62
2848 13
2849 42
2850 15
2851 47
2852 5
2853 52
2854 6
2855 7
2856 64
2857 43
2858 4
2859 18
2860 17
2861 22
2862 44
2863 33
2864 54
2865 11
2866 52
2867 8
2868 14
2869 18
2870 45
2871 40
2872 62
2873 44
2874 20
2875 50
2876 17
2877 36
2878 28
2879 33
2880 10
2881 17
2882 47
2883 8
2884 21
2885 10
2886 17
2887 38
2888 39
2889 3
2890 38
2891 33
2892 24
2893 11
2894 20
2895 52
2896 0
2897 19
2898 29
2899 15
2900 44
2901 9
2902 0
2903 14
2904 9
2905 19
2906 15
2907 9
2908 11
2909 19
2910 1
2911 47
2912 24
2913 7
2914 24
2915 10
2916 20
2917 5
2918 19
2919 47
2920 61
2921 4
2922 4
2923 20
2924 8
2925 15
2926 22
2927 8
2928 42
2929 32
2930 44
2931 12
2932 33
2933 33
2934 9
2935 59
2936 20
2937 38
2938 6
2939 17
2940 15
2941 32
2942 21
2943 2
2944 12
2945 19
2946 41
2947 38
2948 3
2949 37
2950 11
2951 5
2952 29
2953 0
2954 7
2955 40
2956 29
2957 44
2958 12
2959 57
2960 23
2961 21
2962 15
2963 22
2964 42
2965 3
2966 57
2967 5
2968 32
2969 32
2970 20
2971 35
2972 2
2973 33
2974 22
2975 33
2976 21
2977 65
2978 9
2979 12
2980 21
2981 3
2982 18
2983 31
2984 36
2985 58
2986 39
2987 21
2988 18
2989 41
2990 16
2991 4
2992 33
2993 6
2994 19
2995 28
2996 65
2997 5
2998 37
2999 19
3000 16
3001 9
3002 29
3003 9
3004 4
3005 6
3006 49
3007 37
3008 15
3009 19
3010 8
3011 62
3012 17
3013 14
3014 6
3015 34
3016 7
3017 45
3018 6
3019 33
3020 40
3021 15
3022 10
3023 44
3024 20
3025 22
3026 8
3027 36
3028 27
3029 62
3030 16
3031 25
3032 16
3033 27
3034 14
3035 34
3036 13
3037 8
3038 33
3039 4
3040 60
3041 17
3042 40
3043 14
3044 6
3045 17
3046 10
3047 38
3048 25
3049 18
3050 3
3051 15
3052 9
3053 38
3054 20
3055 29
3056 17
3057 40
3058 56
3059 16
3060 34
3061 25
3062 25
3063 0
3064 9
3065 9
3066 18
3067 1
3068 6
3069 42
3070 4
3071 33
3072 17
3073 19
3074 33
3075 6
3076 2
3077 6
3078 33
3079 29
3080 27
3081 4
3082 13
3083 29
3084 34
3085 33
3086 9
3087 8
3088 57
3089 26
3090 25
3091 38
3092 53
3093 4
3094 6
3095 20
3096 33
3097 10
3098 50
3099 28
3100 9
3101 15
3102 39
3103 5
3104 20
3105 17
3106 3
3107 10
3108 16
3109 24
3110 3
3111 20
3112 21
3113 14
3114 36
3115 10
3116 58
3117 7
3118 19
3119 38
3120 15
3121 2
3122 27
3123 6
3124 17
3125 42
3126 20
3127 4
3128 20
3129 15
3130 8
3131 55
3132 7
3133 6
3134 6
3135 59
3136 19
3137 12
3138 7
3139 64
3140 7
3141 16
3142 10
3143 31
3144 64
3145 21
3146 10
3147 14
3148 15
3149 14
3150 19
3151 16
3152 6
3153 45
3154 14
3155 29
3156 40
3157 24
3158 19
3159 6
3160 21
3161 44
3162 42
3163 4
3164 6
3165 31
3166 21
3167 3
3168 12
3169 8
3170 3
3171 6
3172 33
3173 6
3174 37
3175 4
3176 38
3177 54
3178 66
3179 3
3180 49
3181 25
3182 20
3183 0
3184 26
3185 15
3186 33
3187 2
3188 8
3189 20
3190 29
3191 20
3192 4
3193 9
3194 53
3195 4
3196 21
3197 20
3198 9
3199 2
3200 22
3201 66
3202 38
3203 29
3204 6
3205 28
3206 17
3207 17
3208 2
3209 20
3210 52
3211 10
3212 6
3213 6
3214 0
3215 25
3216 18
3217 16
3218 42
3219 4
3220 36
3221 14
3222 58
3223 19
3224 8
3225 7
3226 4
3227 15
3228 16
3229 53
3230 21
3231 48
3232 20
3233 6
3234 15
3235 25
3236 19
3237 19
3238 15
3239 17
3240 7
3241 7
3242 45
3243 31
3244 6
3245 15
3246 44
3247 32
3248 36
3249 16
3250 11
3251 38
3252 14
3253 17
3254 45
3255 21
3256 10
3257 4
3258 15
3259 16
3260 6
3261 47
3262 3
3263 17
3264 44
3265 25
3266 18
3267 21
3268 22
3269 5
3270 3
3271 55
3272 33
3273 14
3274 28
3275 6
3276 29
3277 39
3278 14
3279 5
3280 31
3281 18
3282 21
3283 22
3284 19
3285 28
3286 9
3287 29
3288 38
3289 7
3290 38
3291 32
3292 61
3293 42
3294 20
3295 57
3296 25
3297 17
3298 45
3299 5
3300 38
3301 36
3302 16
3303 36
3304 37
3305 10
3306 44
3307 22
3308 12
3309 14
3310 36
3311 49
3312 20
3313 19
3314 4
3315 7
3316 25
3317 21
3318 19
3319 22
3320 25
3321 49
3322 33
3323 6
3324 20
3325 37
3326 10
3327 15
3328 62
3329 33
3330 25
3331 31
3332 33
3333 9
3334 15
3335 19
3336 29
3337 4
3338 63
3339 33
3340 42
3341 15
3342 16
3343 11
3344 7
3345 58
3346 36
3347 9
3348 25
3349 29
3350 42
3351 17
3352 29
3353 16
3354 4
3355 65
3356 8
3357 15
3358 61
3359 9
3360 12
3361 5
3362 22
3363 36
3364 15
3365 33
3366 17
3367 41
3368 53
3369 9
3370 46
3371 15
3372 18
3373 8
3374 9
3375 12
3376 25
3377 10
3378 31
3379 8
3380 42
3381 22
3382 18
3383 27
3384 22
3385 5
3386 2
3387 21
3388 56
3389 33
3390 64
3391 25
3392 22
3393 21
3394 6
3395 11
3396 9
3397 42
3398 9
3399 7
3400 5
3401 22
3402 32
3403 5
3404 40
3405 33
3406 17
3407 17
3408 38
3409 59
3410 37
3411 16
3412 25
3413 15
3414 9
3415 51
3416 63
3417 7
3418 8
3419 14
3420 54
3421 40
3422 12
3423 2
3424 11
3425 25
3426 14
3427 0
3428 14
3429 44
3430 27
3431 29
3432 15
3433 8
3434 12
3435 26
3436 21
3437 33
3438 29
3439 7
3440 49
3441 0
3442 22
3443 52
3444 8
3445 16
3446 39
3447 22
3448 40
3449 15
3450 29
3451 31
3452 42
3453 9
3454 45
3455 36
3456 36
3457 8
3458 44
3459 33
3460 49
3461 10
3462 33
3463 59
3464 44
3465 43
3466 17
3467 40
3468 16
3469 15
3470 36
3471 15
3472 33
3473 40
3474 47
3475 5
3476 40
3477 4
3478 25
3479 4
3480 7
3481 19
3482 36
3483 31
3484 48
3485 21
3486 21
3487 44
3488 37
3489 49
3490 22
3491 14
3492 12
3493 9
3494 9
3495 29
3496 44
3497 29
3498 31
3499 7
3500 5
3501 14
3502 12
3503 33
3504 21
3505 8
3506 18
3507 40
3508 15
3509 40
3510 15
3511 19
3512 41
3513 10
3514 32
3515 52
3516 8
3517 17
3518 11
3519 4
3520 9
3521 1
3522 14
3523 15
3524 38
3525 6
3526 21
3527 6
3528 21
3529 41
3530 10
3531 0
3532 0
3533 32
3534 18
3535 52
3536 17
3537 17
3538 3
3539 21
3540 4
3541 44
3542 3
3543 9
3544 19
3545 31
3546 35
3547 20
3548 38
3549 17
3550 8
3551 48
3552 41
3553 53
3554 49
3555 16
3556 53
3557 64
3558 50
3559 15
3560 21
3561 19
3562 37
3563 62
3564 25
3565 18
3566 6
3567 38
3568 7
3569 4
3570 10
3571 2
3572 13
3573 33
3574 31
3575 20
3576 3
3577 25
3578 42
3579 32
3580 8
3581 34
3582 36
3583 12
3584 4
3585 50
3586 17
3587 8
3588 30
3589 47
3590 36
3591 22
3592 4
3593 65
3594 14
3595 6
3596 48
3597 46
3598 14
3599 7
3600 36
3601 4
3602 15
3603 41
3604 33
3605 29
3606 22
3607 15
3608 16
3609 0
3610 54
3611 15
3612 18
3613 7
3614 40
3615 20
3616 15
3617 36
3618 33
3619 42
3620 31
3621 15
3622 6
3623 20
3624 54
3625 48
3626 25
3627 14
3628 25
3629 24
3630 19
3631 22
3632 11
3633 6
3634 41
3635 0
3636 21
3637 38
3638 9
3639 49
3640 42
3641 4
3642 11
3643 29
3644 16
3645 10
3646 17
3647 21
3648 6
3649 4
3650 44
3651 22
3652 19
3653 44
3654 22
3655 37
3656 9
3657 44
3658 5
3659 34
3660 32
3661 57
3662 56
3663 7
3664 57
3665 20
3666 11
3667 22
3668 17
3669 43
3670 20
3671 15
3672 53
3673 8
3674 32
3675 37
3676 8
3677 22
3678 49
3679 9
3680 3
3681 16
3682 17
3683 2
3684 12
3685 15
3686 20
3687 21
3688 34
3689 56
3690 33
3691 44
3692 21
3693 18
3694 13
3695 22
3696 4
3697 62
3698 32
3699 37
3700 64
3701 7
3702 62
3703 16
3704 22
3705 4
3706 64
3707 33
3708 41
3709 29
3710 48
3711 6
3712 39
3713 47
3714 50
3715 41
3716 0
3717 8
3718 0
3719 5
3720 9
3721 37
3722 4
3723 4
3724 36
3725 11
3726 20
3727 8
3728 5
3729 33
3730 14
3731 34
3732 40
3733 49
3734 15
3735 4
3736 11
3737 18
3738 29
3739 8
3740 17
3741 4
3742 22
3743 7
3744 49
3745 22
3746 67
3747 22
3748 8
3749 21
3750 3
3751 44
3752 7
3753 4
3754 52
3755 10
3756 48
3757 5
3758 25
3759 32
3760 22
3761 12
3762 33
3763 4
3764 35
3765 7
3766 21
3767 20
3768 9
3769 20
3770 34
3771 67
3772 4
3773 3
3774 10
3775 20
3776 24
3777 33
3778 4
3779 28
3780 33
3781 3
3782 16
3783 29
3784 8
3785 59
3786 31
3787 64
3788 1
3789 44
3790 57
3791 6
3792 22
3793 21
3794 21
3795 40
3796 0
3797 19
3798 32
3799 1
3800 34
3801 11
3802 5
3803 12
3804 42
3805 14
3806 20
3807 25
3808 47
3809 41
3810 41
3811 9
3812 17
3813 57
3814 8
3815 20
3816 14
3817 25
3818 6
3819 8
3820 14
3821 4
3822 8
3823 54
3824 9
3825 4
3826 20
3827 30
3828 48
3829 25
3830 9
3831 8
3832 14
3833 55
3834 45
3835 4
3836 25
3837 20
3838 8
3839 3
3840 37
3841 11
3842 15
3843 19
3844 25
3845 7
3846 3
3847 12
3848 38
3849 9
3850 9
3851 4
3852 4
3853 14
3854 14
3855 9
3856 19
3857 14
3858 9
3859 10
3860 26
3861 18
3862 37
3863 13
3864 20
3865 11
3866 6
3867 41
3868 62
3869 33
3870 21
3871 44
3872 25
3873 6
3874 6
3875 36
3876 8
3877 16
3878 67
3879 15
3880 36
3881 52
3882 66
3883 21
3884 29
3885 19
3886 5
3887 16
3888 15
3889 32
3890 9
3891 25
3892 8
3893 16
3894 16
3895 44
3896 4
3897 55
3898 38
3899 8
3900 34
3901 0
3902 4
3903 5
3904 44
3905 20
3906 31
3907 15
3908 35
3909 18
3910 14
3911 11
3912 31
3913 17
3914 37
3915 60
3916 4
3917 21
3918 49
3919 9
3920 38
3921 17
3922 59
3923 16
3924 12
3925 23
3926 38
3927 29
3928 21
3929 19
3930 36
3931 61
3932 36
3933 29
3934 44
3935 3
3936 38
3937 2
3938 31
3939 54
3940 5
3941 0
3942 41
3943 15
3944 9
3945 9
3946 9
3947 33
3948 46
3949 25
3950 52
3951 0
3952 15
3953 19
3954 12
3955 22
3956 61
3957 36
3958 15
3959 34
3960 33
3961 7
3962 16
3963 22
3964 36
3965 8
3966 39
3967 6
3968 6
3969 14
3970 20
3971 0
3972 7
3973 19
3974 8
3975 16
3976 44
3977 16
3978 37
3979 6
3980 9
3981 3
3982 45
3983 21
3984 21
3985 10
3986 39
3987 32
3988 29
3989 9
3990 38
3991 43
3992 42
3993 24
3994 33
3995 25
3996 32
3997 7
3998 18
3999 56
4000 36
4001 22
4002 12
4003 17
4004 10
4005 21
4006 17
4007 54
4008 32
4009 14
4010 47
4011 46
4012 34
4013 4
4014 33
4015 38
4016 6
4017 9
4018 20
4019 17
4020 17
4021 21
4022 27
4023 32
4024 45
4025 40
4026 32
4027 33
4028 14
4029 19
4030 53
4031 38
4032 46
4033 32
4034 38
4035 33
4036 4
4037 9
4038 4
4039 36
4040 10
4041 21
4042 40
4043 21
4044 29
4045 32
4046 44
4047 25
4048 8
4049 16
4050 15
4051 19
4052 48
4053 19
4054 58
4055 32
4056 8
4057 31
4058 1
4059 16
4060 54
4061 25
4062 5
4063 56
4064 14
4065 21
4066 10
4067 6
4068 7
4069 46
4070 32
4071 41
4072 6
4073 10
4074 7
4075 0
4076 20
4077 45
4078 10
4079 33
4080 27
4081 11
4082 7
4083 57
4084 2
4085 8
4086 31
4087 5
4088 4
4089 49
4090 15
4091 17
4092 31
4093 10
4094 23
4095 32
4096 7
4097 7
4098 29
4099 16
4100 52
4101 14
4102 16
4103 25
4104 36
4105 3
4106 21
4107 15
4108 57
4109 38
4110 56
4111 10
4112 22
4113 8
4114 56
4115 7
4116 21
4117 16
4118 21
4119 7
4120 41
4121 19
4122 19
4123 4
4124 11
4125 15
4126 57
4127 3
4128 5
4129 38
4130 41
4131 8
4132 19
4133 15
4134 4
4135 13
4136 40
4137 25
4138 7
4139 37
4140 19
4141 44
4142 47
4143 38
4144 5
4145 51
4146 8
4147 6
4148 44
4149 25
4150 16
4151 25
4152 41
4153 4
4154 5
4155 8
4156 15
4157 20
4158 43
4159 37
4160 6
4161 7
4162 29
4163 21
4164 17
4165 6
4166 6
4167 17
4168 40
4169 8
4170 32
4171 64
4172 15
4173 11
4174 0
4175 6
4176 12
4177 15
4178 14
4179 7
4180 44
4181 59
4182 8
4183 61
4184 15
4185 32
4186 3
4187 17
4188 5
4189 18
4190 9
4191 29
4192 1
4193 60
4194 37
4195 19
4196 3
4197 4
4198 36
4199 21
4200 11
4201 6
4202 8
4203 51
4204 43
4205 20
4206 32
4207 32
4208 15
4209 18
4210 25
4211 8
4212 7
4213 4
4214 63
4215 40
4216 15
4217 16
4218 17
4219 20
4220 50
4221 18
4222 31
4223 34
4224 6
4225 35
4226 21
4227 16
4228 22
4229 49
4230 40
4231 44
4232 7
4233 18
4234 3
4235 41
4236 33
4237 15
4238 19
4239 7
4240 32
4241 7
4242 38
4243 25
4244 44
4245 10
4246 22
4247 47
4248 36
4249 8
4250 41
4251 21
4252 9
4253 17
4254 7
4255 32
4256 36
4257 19
4258 32
4259 38
4260 40
4261 57
4262 16
4263 62
4264 20
4265 21
4266 53
4267 25
4268 38
4269 19
4270 21
4271 29
4272 6
4273 17
4274 49
4275 36
4276 33
4277 33
4278 3
4279 4
4280 40
4281 22
4282 10
4283 21
4284 19
4285 16
4286 27
4287 34
4288 21
4289 45
4290 20
4291 9
4292 6
4293 8
4294 51
4295 14
4296 37
4297 25
4298 29
4299 16
4300 10
4301 6
4302 14
4303 16
4304 7
4305 16
4306 42
4307 36
4308 19
4309 65
4310 20
4311 22
4312 12
4313 8
4314 5
4315 9
4316 15
4317 10
4318 20
4319 16
4320 61
4321 7
4322 11
4323 40
4324 21
4325 40
4326 8
4327 17
4328 3
4329 38
4330 0
4331 34
4332 43
4333 9
4334 21
4335 1
4336 36
4337 6
4338 47
4339 38
4340 18
4341 51
4342 33
4343 4
4344 25
4345 66
4346 20
4347 21
4348 33
4349 9
4350 10
4351 2
4352 4
4353 21
4354 57
4355 67
4356 12
4357 32
4358 22
4359 14
4360 11
4361 23
4362 30
4363 32
4364 25
4365 20
4366 22
4367 0
4368 49
4369 54
4370 64
4371 19
4372 59
4373 0
4374 8
4375 33
4376 4
4377 22
4378 28
4379 14
4380 9
4381 0
4382 6
4383 6
4384 21
4385 9
4386 49
4387 6
4388 4
4389 4
4390 21
4391 8
4392 5
4393 38
4394 19
4395 5
4396 14
4397 19
4398 21
4399 38
4400 36
4401 6
4402 32
4403 25
4404 28
4405 34
4406 67
4407 17
4408 21
4409 9
4410 38
4411 9
4412 55
4413 17
4414 8
4415 6
4416 47
4417 33
4418 20
4419 25
4420 16
4421 39
4422 15
4423 44
4424 21
4425 49
4426 13
4427 63
4428 21
4429 11
4430 15
4431 17
4432 15
4433 33
4434 27
4435 20
4436 3
4437 18
4438 57
4439 40
4440 19
4441 22
4442 34
4443 16
4444 4
4445 36
4446 25
4447 21
4448 5
4449 12
4450 44
4451 21
4452 9
4453 55
4454 57
4455 9
4456 12
4457 22
4458 6
4459 9
4460 9
4461 16
4462 29
4463 6
4464 4
4465 9
4466 25
4467 9
4468 49
4469 22
4470 17
4471 37
4472 4
4473 4
4474 15
4475 10
4476 19
4477 46
4478 29
4479 42
4480 67
4481 20
4482 21
4483 29
4484 50
4485 20
4486 19
4487 38
4488 20
4489 50
4490 4
4491 7
4492 7
4493 49
4494 36
4495 59
4496 38
4497 9
4498 9
4499 6
4500 20
4501 29
4502 49
4503 7
4504 19
4505 38
4506 4
4507 32
4508 3
4509 1
4510 34
4511 40
4512 29
4513 13
4514 33
4515 36
4516 20
4517 63
4518 8
4519 20
4520 3
4521 10
4522 16
4523 36
4524 9
4525 13
4526 63
4527 33
4528 8
4529 26
4530 19
4531 63
4532 32
4533 8
4534 4
4535 25
4536 31
4537 23
4538 25
4539 20
4540 4
4541 6
4542 42
4543 50
4544 8
4545 20
4546 20
4547 9
4548 9
4549 63
4550 34
4551 1
4552 9
4553 41
4554 41
4555 0
4556 51
4557 16
4558 50
4559 45
4560 15
4561 25
4562 33
4563 5
4564 32
4565 22
4566 33
4567 21
4568 4
4569 4
4570 5
4571 49
4572 8
4573 9
4574 44
4575 11
4576 21
4577 15
4578 37
4579 16
4580 4
4581 16
4582 20
4583 9
4584 9
4585 25
4586 8
4587 21
4588 32
4589 56
4590 31
4591 32
4592 47
4593 40
4594 39
4595 33
4596 3
4597 14
4598 18
4599 17
4600 2
4601 20
4602 22
4603 47
4604 20
4605 51
4606 19
4607 57
4608 6
4609 4
4610 4
4611 5
4612 20
4613 21
4614 56
4615 47
4616 6
4617 19
4618 12
4619 18
4620 10
4621 18
4622 20
4623 19
4624 47
4625 31
4626 33
4627 36
4628 27
4629 9
4630 23
4631 9
4632 6
4633 50
4634 29
4635 25
4636 21
4637 29
4638 26
4639 4
4640 21
4641 38
4642 9
4643 50
4644 63
4645 49
4646 30
4647 34
4648 6
4649 35
4650 34
4651 67
4652 8
4653 29
4654 3
4655 38
4656 49
4657 22
4658 10
4659 11
4660 41
4661 29
4662 18
4663 33
4664 17
4665 15
4666 55
4667 21
4668 6
4669 32
4670 16
4671 36
4672 15
4673 57
4674 48
4675 19
4676 4
4677 15
4678 11
4679 33
4680 9
4681 18
4682 16
4683 20
4684 4
4685 6
4686 36
4687 15
4688 28
4689 33
4690 22
4691 49
4692 8
4693 22
4694 21
4695 17
4696 16
4697 63
4698 20
4699 15
4700 0
4701 30
4702 18
4703 16
4704 10
4705 40
4706 6
4707 21
4708 47
4709 44
4710 3
4711 10
4712 4
4713 66
4714 0
4715 8
4716 18
4717 49
4718 15
4719 6
4720 58
4721 41
4722 49
4723 21
4724 9
4725 66
4726 9
4727 2
4728 6
4729 6
4730 21
4731 15
4732 0
4733 55
4734 57
4735 10
4736 19
4737 17
4738 9
4739 16
4740 16
4741 33
4742 17
4743 38
4744 7
4745 21
4746 13
4747 55
4748 31
4749 22
4750 20
4751 9
4752 44
4753 4
4754 26
4755 33
4756 12
4757 50
4758 63
4759 32
4760 16
4761 7
4762 0
4763 39
4764 15
4765 20
4766 55
4767 15
4768 21
4769 46
4770 28
4771 15
4772 9
4773 17
4774 8
4775 9
4776 49
4777 8
4778 54
4779 19
4780 41
4781 4
4782 6
4783 43
4784 18
4785 16
4786 15
4787 20
4788 19
4789 8
4790 18
4791 40
4792 64
4793 16
4794 36
4795 16
4796 53
4797 14
4798 9
4799 36
4800 36
4801 62
4802 2
4803 36
4804 21
4805 16
4806 48
4807 27
4808 15
4809 41
4810 54
4811 28
4812 63
4813 6
4814 48
4815 0
4816 29
4817 34
4818 21
4819 36
4820 39
4821 57
4822 63
4823 15
4824 20
4825 22
4826 40
4827 57
4828 15
4829 36
4830 19
4831 2
4832 39
4833 4
4834 18
4835 4
4836 21
4837 18
4838 11
4839 3
4840 10
4841 6
4842 36
4843 47
4844 20
4845 15
4846 34
4847 9
4848 21
4849 9
4850 0
4851 14
4852 14
4853 24
4854 21
4855 6
4856 38
4857 9
4858 20
4859 36
4860 15
4861 16
4862 21
4863 37
4864 18
4865 15
4866 9
4867 37
4868 49
4869 14
4870 32
4871 22
4872 34
4873 5
4874 40
4875 2
4876 14
4877 62
4878 38
4879 17
4880 17
4881 27
4882 49
4883 36
4884 8
4885 25
4886 31
4887 18
4888 22
4889 25
4890 50
4891 25
4892 9
4893 9
4894 29
4895 4
4896 16
4897 55
4898 41
4899 21
4900 25
4901 11
4902 21
4903 20
4904 23
4905 17
4906 19
4907 8
4908 6
4909 26
4910 4
4911 21
4912 26
4913 8
4914 25
4915 60
4916 0
4917 38
4918 22
4919 32
4920 14
4921 57
4922 25
4923 25
4924 14
4925 65
4926 7
4927 6
4928 31
4929 4
4930 0
4931 36
4932 6
4933 54
4934 5
4935 60
4936 7
4937 10
4938 22
4939 8
4940 20
4941 45
4942 20
4943 6
4944 4
4945 14
4946 21
4947 20
4948 20
4949 36
4950 44
4951 6
4952 22
4953 22
4954 36
4955 10
4956 44
4957 50
4958 61
4959 18
4960 9
4961 7
4962 60
4963 13
4964 21
4965 37
4966 49
4967 31
4968 19
4969 21
4970 21
4971 27
4972 46
4973 49
4974 14
4975 18
4976 25
4977 33
4978 29
4979 31
4980 40
4981 58
4982 7
4983 19
4984 14
4985 10
4986 26
4987 47
4988 21
4989 17
4990 40
4991 34
4992 17
4993 4
4994 15
4995 25
4996 43
4997 32
4998 14
4999 25
5000 10
5001 6
5002 7
5003 9
5004 50
5005 17
5006 20
5007 11
5008 9
5009 16
5010 34
5011 43
5012 10
5013 21
5014 38
5015 17
5016 33
5017 3
5018 1
5019 18
5020 65
5021 10
5022 2
5023 18
5024 8
5025 2
5026 51
5027 49
5028 14
5029 22
5030 18
5031 8
5032 50
5033 10
5034 9
5035 22
5036 9
5037 17
5038 33
5039 12
5040 1
5041 42
5042 6
5043 49
5044 20
5045 16
5046 7
5047 15
5048 7
5049 17
5050 1
5051 20
5052 6
5053 8
5054 31
5055 43
5056 38
5057 49
5058 8
5059 21
5060 29
5061 15
5062 33
5063 8
5064 22
5065 6
5066 45
5067 4
5068 9
5069 44
5070 19
5071 20
5072 45
5073 19
5074 31
5075 22
5076 7
5077 8
5078 58
5079 15
5080 20
5081 54
5082 22
5083 40
5084 44
5085 4
5086 6
5087 13
5088 43
5089 20
5090 66
5091 38
5092 0
5093 20
5094 8
5095 9
5096 19
5097 56
5098 6
5099 49
5100 65
5101 16
5102 45
5103 36
5104 14
5105 33
5106 29
5107 19
5108 34
5109 37
5110 22
5111 10
5112 36
5113 28
5114 55
5115 8
5116 14
5117 36
5118 25
5119 47
5120 29
5121 10
5122 33
5123 36
5124 14
5125 32
5126 8
5127 38
5128 52
5129 4
5130 7
5131 49
5132 16
5133 25
5134 16
5135 6
5136 7
5137 17
5138 11
5139 51
5140 18
5141 15
5142 20
5143 36
5144 32
5145 25
5146 38
5147 63
5148 20
5149 9
5150 19
5151 17
5152 44
5153 59
5154 16
5155 38
5156 57
5157 17
5158 44
5159 15
5160 20
5161 21
5162 22
5163 6
5164 43
5165 46
5166 40
5167 4
5168 54
5169 14
5170 59
5171 6
5172 42
5173 18
5174 9
5175 1
5176 5
5177 33
5178 8
5179 16
5180 34
5181 20
5182 20
5183 61
5184 26
5185 40
5186 19
5187 8
5188 18
5189 0
5190 58
5191 4
5192 36
5193 10
5194 32
5195 55
5196 7
5197 10
5198 47
5199 21
5200 48
5201 24
5202 15
5203 19
5204 21
5205 41
5206 7
5207 20
5208 4
5209 53
5210 41
5211 12
5212 9
5213 41
5214 15
5215 38
5216 6
5217 25
5218 9
5219 21
5220 33
5221 12
5222 24
5223 6
5224 29
5225 28
5226 14
5227 8
5228 20
5229 39
5230 15
5231 57
5232 20
5233 39
5234 33
5235 15
5236 22
5237 58
5238 56
5239 14
5240 38
5241 33
5242 37
5243 4
5244 33
5245 13
5246 4
5247 14
5248 11
5249 18
5250 10
5251 16
5252 39
5253 54
5254 11
5255 63
5256 19
5257 33
5258 15
5259 44
5260 4
5261 47
5262 5
5263 26
5264 15
5265 15
5266 5
5267 40
5268 6
5269 36
5270 40
5271 19
5272 36
5273 57
5274 4
5275 21
5276 4
5277 17
5278 21
5279 7
5280 6
5281 33
5282 29
5283 22
5284 59
5285 15
5286 53
5287 62
5288 22
5289 8
5290 29
5291 19
5292 19
5293 9
5294 21
5295 15
5296 33
5297 33
5298 1
5299 6
5300 9
5301 6
5302 26
5303 20
5304 7
5305 12
5306 38
5307 34
5308 18
5309 38
5310 6
5311 47
5312 28
5313 44
5314 7
5315 36
5316 25
5317 19
5318 50
5319 22
5320 8
5321 10
5322 4
5323 2
5324 42
5325 33
5326 37
5327 4
5328 25
5329 14
5330 1
5331 31
5332 59
5333 67
5334 16
5335 7
5336 60
5337 4
5338 11
5339 7
5340 47
5341 39
5342 61
5343 18
5344 9
5345 10
5346 15
5347 12
5348 8
5349 15
5350 0
5351 17
5352 46
5353 10
5354 2
5355 59
5356 10
5357 20
5358 3
5359 29
5360 11
5361 42
5362 9
5363 54
5364 56
5365 29
5366 21
5367 9
5368 20
5369 14
5370 11
5371 22
5372 6
5373 25
5374 25
5375 5
5376 16
5377 38
5378 18
5379 33
5380 49
5381 44
5382 8
5383 15
5384 17
5385 36
5386 7
5387 8
5388 10
5389 15
5390 33
5391 4
5392 33
5393 17
5394 34
5395 20
5396 16
5397 9
5398 19
5399 6
5400 40
5401 32
5402 52
5403 8
5404 15
5405 19
5406 14
5407 14
5408 21
5409 7
5410 34
5411 22
5412 22
5413 8
5414 20
5415 23
5416 35
5417 14
5418 49
5419 23
5420 19
5421 10
5422 25
5423 1
5424 55
5425 11
5426 22
5427 7
5428 16
5429 4
5430 15
5431 17
5432 5
5433 3
5434 25
5435 34
5436 18
5437 13
5438 9
5439 24
5440 14
5441 55
5442 17
5443 34
5444 17
5445 4
5446 17
5447 58
5448 21
5449 18
5450 45
5451 67
5452 49
5453 9
5454 7
5455 17
5456 65
5457 44
5458 0
5459 38
5460 37
5461 15
5462 63
5463 4
5464 21
5465 44
5466 20
5467 64
5468 30
5469 40
5470 37
5471 42
5472 37
5473 9
5474 29
5475 7
5476 9
5477 19
5478 4
5479 24
5480 14
5481 8
5482 7
5483 53
5484 8
5485 13
5486 14
5487 3
5488 3
5489 62
5490 6
5491 2
5492 31
5493 21
5494 2
5495 15
5496 6
5497 7
5498 17
5499 57
5500 20
5501 59
5502 39
5503 22
5504 35
5505 0
5506 61
5507 33
5508 7
5509 19
5510 2
5511 3
5512 48
5513 10
5514 19
5515 49
5516 20
5517 10
5518 21
5519 10
5520 32
5521 22
5522 49
5523 21
5524 15
5525 10
5526 22
5527 36
5528 6
5529 50
5530 20
5531 47
5532 19
5533 14
5534 12
5535 12
5536 15
5537 6
5538 6
5539 17
5540 1
5541 37
5542 3
5543 56
5544 5
5545 9
5546 7
5547 21
5548 31
5549 38
5550 13
5551 10
5552 36
5553 21
5554 38
5555 41
5556 49
5557 7
5558 48
5559 4
5560 12
5561 15
5562 2
5563 3
5564 16
5565 8
5566 44
5567 49
5568 1
5569 0
5570 0
5571 25
5572 58
5573 36
5574 40
5575 2
5576 48
5577 10
5578 61
5579 7
5580 20
5581 14
5582 25
5583 36
5584 4
5585 38
5586 21
5587 38
5588 19
5589 41
5590 51
5591 21
5592 44
5593 7
5594 20
5595 18
5596 14
5597 44
5598 50
5599 36
5600 9
5601 36
5602 36
5603 16
5604 47
5605 15
5606 31
5607 1
5608 12
5609 48
5610 67
5611 20
5612 4
5613 8
5614 7
5615 22
5616 8
5617 2
5618 4
5619 39
5620 63
5621 18
5622 19
5623 21
5624 9
5625 18
5626 40
5627 7
5628 62
5629 32
5630 14
5631 0
5632 10
5633 14
5634 62
5635 4
5636 43
5637 21
5638 7
5639 34
5640 62
5641 49
5642 44
5643 9
5644 16
5645 12
5646 22
5647 29
5648 32
5649 38
5650 15
5651 14
5652 36
5653 26
5654 17
5655 32
5656 19
5657 66
5658 6
5659 36
5660 16
5661 30
5662 51
5663 10
5664 28
5665 31
5666 3
5667 16
5668 21
5669 7
5670 21
5671 41
5672 25
5673 1
5674 6
5675 9
5676 18
5677 7
5678 10
5679 10
5680 58
5681 25
5682 36
5683 34
5684 9
5685 38
5686 50
5687 0
5688 11
5689 9
5690 15
5691 7
5692 18
5693 47
5694 8
5695 32
5696 15
5697 44
5698 21
5699 26
5700 12
5701 39
5702 3
5703 44
5704 12
5705 6
5706 6
5707 49
5708 8
5709 14
5710 18
5711 37
5712 4
5713 24
5714 25
5715 42
5716 33
5717 32
5718 14
5719 15
5720 13
5721 19
5722 7
5723 21
5724 6
5725 1
5726 2
5727 8
5728 19
5729 10
5730 64
5731 32
5732 42
5733 31
5734 9
5735 66
5736 34
5737 8
5738 34
5739 15
5740 45
5741 8
5742 10
5743 22
5744 14
5745 32
5746 42
5747 19
5748 44
5749 10
5750 8
5751 34
5752 15
5753 8
5754 12
5755 15
5756 36
5757 21
5758 9
5759 34
5760 29
5761 56
5762 19
5763 55
5764 3
5765 22
5766 9
5767 25
5768 16
5769 5
5770 6
5771 20
5772 16
5773 62
5774 4
5775 38
5776 9
5777 6
5778 8
5779 9
5780 33
5781 14
5782 15
5783 14
5784 2
5785 34
5786 49
5787 63
5788 29
5789 17
5790 25
5791 10
5792 33
5793 20
5794 15
5795 19
5796 26
5797 7
5798 16
5799 56
5800 4
5801 6
5802 34
5803 0
5804 21
5805 43
5806 6
5807 61
5808 14
5809 38
5810 32
5811 7
5812 9
5813 42
5814 15
5815 19
5816 9
5817 6
5818 14
5819 20
5820 9
5821 13
5822 22
5823 33
5824 49
5825 12
5826 41
5827 9
5828 3
5829 29
5830 9
5831 34
5832 32
5833 25
5834 44
5835 44
5836 21
5837 0
5838 5
5839 60
5840 8
5841 23
5842 25
5843 33
5844 15
5845 7
5846 25
5847 48
5848 22
5849 7
5850 20
5851 10
5852 15
5853 36
5854 10
5855 47
5856 4
5857 37
5858 6
5859 19
5860 38
5861 34
5862 9
5863 9
5864 15
5865 12
5866 15
5867 5
5868 50
5869 9
5870 4
5871 1
5872 15
5873 20
5874 21
5875 19
5876 29
5877 7
5878 36
5879 25
5880 8
5881 41
5882 36
5883 32
5884 4
5885 50
5886 47
5887 67
5888 25
5889 5
5890 53
5891 0
5892 6
5893 32
5894 47
5895 20
5896 17
5897 57
5898 7
5899 6
5900 17
5901 4
5902 42
5903 45
5904 8
5905 10
5906 29
5907 17
5908 7
5909 64
5910 18
5911 32
5912 5
5913 15
5914 16
5915 4
5916 39
5917 25
5918 34
5919 15
5920 18
5921 8
5922 21
5923 44
5924 9
5925 18
5926 55
5927 5
5928 48
5929 5
5930 25
5931 38
5932 21
5933 3
5934 4
5935 0
5936 34
5937 1
5938 43
5939 2
5940 20
5941 20
5942 30
5943 11
5944 6
5945 50
5946 32
5947 38
5948 7
5949 66
5950 16
5951 35
5952 4
5953 14
5954 7
5955 38
5956 20
5957 21
5958 44
5959 17
5960 6
5961 19
5962 33
5963 9
5964 17
5965 29
5966 25
5967 17
5968 42
5969 58
5970 10
5971 14
5972 56
5973 33
5974 7
5975 32
5976 19
5977 8
5978 37
5979 21
5980 24
5981 4
5982 5
5983 9
5984 4
5985 4
5986 12
5987 53
5988 21
5989 5
5990 21
5991 48
5992 9
5993 15
5994 17
5995 36
5996 9
5997 18
5998 20
5999 39
6000 27
6001 21
6002 7
6003 14
6004 57
6005 4
6006 21
6007 18
6008 20
6009 38
6010 7
6011 37
6012 48
6013 8
6014 10
6015 57
6016 8
6017 65
6018 5
6019 34
6020 8
6021 2
6022 34
6023 19
6024 33
6025 21
6026 36
6027 28
6028 6
6029 6
6030 5
6031 37
6032 34
6033 5
6034 20
6035 27
6036 16
6037 38
6038 21
6039 7
6040 16
6041 14
6042 40
6043 19
6044 33
6045 5
6046 34
6047 21
6048 2
6049 33
6050 5
6051 33
6052 29
6053 8
6054 18
6055 8
6056 33
6057 22
6058 10
6059 33
6060 55
6061 2
6062 57
6063 33
6064 10
6065 16
6066 3
6067 49
6068 6
6069 15
6070 67
6071 45
6072 21
6073 64
6074 37
6075 50
6076 4
6077 14
6078 29
6079 29
6080 17
6081 22
6082 15
6083 50
6084 15
6085 42
6086 9
6087 10
6088 33
6089 2
6090 9
6091 64
6092 41
6093 33
6094 8
6095 57
6096 10
6097 41
6098 33
6099 7
6100 18
6101 12
6102 44
6103 36
6104 23
6105 4
6106 17
6107 20
6108 19
6109 41
6110 34
6111 57
6112 15
6113 18
6114 47
6115 44
6116 9
6117 25
6118 53
6119 2
6120 13
6121 21
6122 18
6123 12
6124 5
6125 26
6126 17
6127 57
6128 10
6129 20
6130 5
6131 7
6132 3
6133 4
6134 59
6135 37
6136 62
6137 16
6138 20
6139 4
6140 21
6141 24
6142 15
6143 15
6144 2
6145 15
6146 3
6147 54
6148 9
6149 2
6150 44
6151 5
6152 17
6153 64
6154 23
6155 15
6156 3
6157 5
6158 34
6159 6
6160 8
6161 36
6162 25
6163 6
6164 2
6165 4
6166 6
6167 50
6168 34
6169 40
6170 8
6171 18
6172 21
6173 28
6174 0
6175 62
6176 6
6177 3
6178 44
6179 6
6180 2
6181 56
6182 18
6183 8
6184 25
6185 22
6186 9
6187 11
6188 4
6189 4
6190 25
6191 18
6192 25
6193 17
6194 33
6195 61
6196 28
6197 21
6198 40
6199 21
6200 43
6201 22
6202 12
6203 8
6204 9
6205 36
6206 4
6207 21
6208 50
6209 50
6210 34
6211 9
6212 20
6213 17
6214 31
6215 5
6216 2
6217 57
6218 7
6219 44
6220 10
6221 29
6222 33
6223 2
6224 54
6225 0
6226 37
6227 25
6228 22
6229 9
6230 4
6231 11
6232 25
6233 27
6234 4
6235 25
6236 58
6237 29
6238 15
6239 44
6240 56
6241 21
6242 3
6243 14
6244 9
6245 31
6246 33
6247 33
6248 49
6249 26
6250 8
6251 21
6252 8
6253 53
6254 31
6255 9
6256 35
6257 32
6258 15
6259 6
6260 48
6261 0
6262 8
6263 21
6264 9
6265 8
6266 15
6267 55
6268 17
6269 18
6270 41
6271 15
6272 54
6273 15
6274 27
6275 49
6276 11
6277 7
6278 22
6279 9
6280 49
6281 5
6282 64
6283 16
6284 8
6285 19
6286 21
6287 14
6288 19
6289 9
6290 3
6291 6
6292 62
6293 8
6294 6
6295 28
6296 21
6297 62
6298 40
6299 39
6300 7
6301 9
6302 36
6303 21
6304 6
6305 29
6306 36
6307 7
6308 50
6309 11
6310 20
6311 18
6312 10
6313 4
6314 25
6315 3
6316 14
6317 21
6318 5
6319 64
6320 19
6321 7
6322 38
6323 20
6324 20
6325 7
6326 38
6327 20
6328 7
6329 9
6330 4
6331 12
6332 7
6333 8
6334 48
6335 21
6336 66
6337 8
6338 50
6339 48
6340 47
6341 17
6342 6
6343 9
6344 6
6345 15
6346 22
6347 41
6348 36
6349 12
6350 13
6351 16
6352 15
6353 9
6354 19
6355 36
6356 41
6357 7
6358 21
6359 29
6360 5
6361 43
6362 21
6363 7
6364 48
6365 25
6366 0
6367 30
6368 54
6369 34
6370 2
6371 25
6372 5
6373 33
6374 9
6375 24
6376 8
6377 51
6378 7
6379 20
6380 59
6381 19
6382 40
6383 34
6384 29
6385 5
6386 39
6387 18
6388 41
6389 6
6390 1
6391 12
6392 42
6393 54
6394 38
6395 5
6396 44
6397 38
6398 17
6399 32
6400 28
6401 4
6402 21
6403 32
6404 33
6405 24
6406 29
6407 38
6408 14
6409 21
6410 17
6411 21
6412 21
6413 33
6414 53
6415 27
6416 51
6417 6
6418 7
6419 49
6420 8
6421 25
6422 24
6423 18
6424 32
6425 21
6426 39
6427 2
6428 46
6429 36
6430 15
6431 33
6432 64
6433 14
6434 9
6435 5
6436 38
6437 50
6438 2
6439 57
6440 60
6441 8
6442 10
6443 5
6444 4
6445 25
6446 9
6447 50
6448 23
6449 52
6450 8
6451 5
6452 21
6453 32
6454 23
6455 10
6456 15
6457 38
6458 6
6459 38
6460 43
6461 4
6462 19
6463 18
6464 14
6465 34
6466 40
6467 6
6468 0
6469 61
6470 37
6471 45
6472 15
6473 6
6474 60
6475 18
6476 29
6477 4
6478 18
6479 19
6480 31
6481 40
6482 21
6483 16
6484 15
6485 26
6486 53
6487 5
6488 22
6489 62
6490 8
6491 38
6492 60
6493 56
6494 18
6495 6
6496 64
6497 12
6498 25
6499 25
6500 20
6501 17
6502 9
6503 6
6504 9
6505 37
6506 64
6507 13
6508 6
6509 10
6510 14
6511 3
6512 42
6513 6
6514 40
6515 53
6516 38
6517 3
6518 20
6519 26
6520 6
6521 17
6522 36
6523 19
6524 36
6525 20
6526 22
6527 47
6528 25
6529 9
6530 2
6531 20
6532 32
6533 11
6534 20
6535 22
6536 46
6537 0
6538 22
6539 64
6540 13
6541 20
6542 34
6543 33
6544 2
6545 17
6546 19
6547 22
6548 7
6549 32
6550 14
6551 17
6552 50
6553 34
6554 22
6555 20
6556 8
6557 38
6558 6
6559 32
6560 55
6561 53
6562 19
6563 14
6564 21
6565 3
6566 64
6567 15
6568 10
6569 18
6570 19
6571 19
6572 36
6573 7
6574 21
6575 44
6576 4
6577 7
6578 15
6579 22
6580 7
6581 28
6582 54
6583 32
6584 11
6585 6
6586 3
6587 16
6588 41
6589 45
6590 33
6591 4
6592 18
6593 25
6594 22
6595 58
6596 6
6597 3
6598 10
6599 33
6600 13
6601 2
6602 44
6603 18
6604 4
6605 38
6606 16
6607 47
6608 4
6609 36
6610 61
6611 29
6612 33
6613 15
6614 45
6615 6
6616 47
6617 22
6618 43
6619 4
6620 14
6621 12
6622 54
6623 7
6624 4
6625 55
6626 21
6627 38
6628 12
6629 15
6630 8
6631 25
6632 5
6633 4
6634 21
6635 10
6636 4
6637 17
6638 34
6639 57
6640 31
6641 16
6642 8
6643 2
6644 38
6645 7
6646 33
6647 17
6648 47
6649 17
6650 0
6651 17
6652 61
6653 8
6654 3
6655 9
6656 38
6657 40
6658 4
6659 25
6660 33
6661 19
6662 38
6663 17
6664 19
6665 62
6666 25
6667 28
6668 47
6669 15
6670 36
6671 9
6672 5
6673 16
6674 15
6675 33
6676 25
6677 47
6678 25
6679 3
6680 18
6681 8
6682 6
6683 21
6684 31
6685 20
6686 31
6687 4
6688 48
6689 59
6690 4
6691 20
6692 10
6693 10
6694 15
6695 19
6696 4
6697 38
6698 5
6699 12
6700 41
6701 29
6702 10
6703 1
6704 4
6705 31
6706 3
6707 21
6708 15
6709 15
6710 9
6711 41
6712 19
6713 18
6714 22
6715 4
6716 33
6717 29
6718 41
6719 18
6720 48
6721 4
6722 41
6723 36
6724 21
6725 17
6726 20
6727 10
6728 9
6729 4
6730 17
6731 6
6732 9
6733 38
6734 34
6735 27
6736 10
6737 7
6738 15
6739 64
6740 2
6741 52
6742 5
6743 60
6744 15
6745 7
6746 49
6747 26
6748 32
6749 32
6750 17
6751 4
6752 8
6753 8
6754 41
6755 0
6756 7
6757 38
6758 66
6759 22
6760 11
6761 7
6762 20
6763 36
6764 14
6765 19
6766 18
6767 4
6768 8
6769 6
6770 28
6771 32
6772 16
6773 40
6774 29
6775 25
6776 20
6777 41
6778 6
6779 47
6780 17
6781 25
6782 28
6783 4
6784 12
6785 40
6786 15
6787 16
6788 36
6789 3
6790 42
6791 3
6792 29
6793 16
6794 22
6795 29
6796 14
6797 67
6798 17
6799 16
6800 10
6801 10
6802 6
6803 42
6804 15
6805 36
6806 53
6807 33
6808 40
6809 15
6810 19
6811 18
6812 32
6813 25
6814 18
6815 11
6816 21
6817 4
6818 45
6819 7
6820 34
6821 25
6822 30
6823 25
6824 52
6825 33
6826 46
6827 19
6828 17
6829 54
6830 22
6831 20
6832 8
6833 32
6834 18
6835 7
6836 6
6837 16
6838 3
6839 20
6840 41
6841 10
6842 4
6843 36
6844 36
6845 22
6846 5
6847 34
6848 16
6849 29
6850 9
6851 32
6852 6
6853 54
6854 32
6855 8
6856 10
6857 15
6858 40
6859 33
6860 41
6861 6
6862 38
6863 37
6864 6
6865 57
6866 15
6867 60
6868 0
6869 7
6870 9
6871 19
6872 38
6873 15
6874 15
6875 6
6876 15
6877 33
6878 14
6879 26
6880 15
6881 7
6882 22
6883 20
6884 6
6885 20
6886 40
6887 22
6888 21
6889 21
6890 33
6891 20
6892 33
6893 40
6894 53
6895 4
6896 23
6897 20
6898 58
6899 29
6900 45
6901 44
6902 20
6903 50
6904 8
6905 7
6906 29
6907 29
6908 20
6909 3
6910 9
6911 20
6912 10
6913 62
6914 8
6915 25
6916 33
6917 9
6918 19
6919 8
6920 38
6921 60
6922 64
6923 8
6924 13
6925 43
6926 30
6927 34
6928 54
6929 9
6930 31
6931 22
6932 16
6933 7
6934 29
6935 20
6936 14
6937 9
6938 10
6939 18
6940 38
6941 9
6942 17
6943 18
6944 4
6945 50
6946 17
6947 41
6948 6
6949 4
6950 61
6951 37
6952 9
6953 21
6954 36
6955 7
6956 62
6957 27
6958 38
6959 6
6960 12
6961 56
6962 28
6963 8
6964 19
6965 7
6966 21
6967 6
6968 55
6969 32
6970 20
6971 4
6972 9
6973 50
6974 20
6975 32
6976 33
6977 3
6978 9
6979 1
6980 17
6981 37
6982 3
6983 12
6984 36
6985 8
6986 5
6987 4
6988 67
6989 18
6990 32
6991 20
6992 12
6993 5
6994 32
6995 41
6996 27
6997 32
6998 4
6999 9
7000 4
7001 47
7002 53
7003 47
7004 40
7005 7
7006 12
7007 44
7008 20
7009 6
7010 9
7011 4
7012 35
7013 22
7014 31
7015 33
7016 61
7017 29
7018 2
7019 14
7020 9
7021 17
7022 7
7023 17
7024 18
7025 18
7026 61
7027 20
7028 53
7029 20
7030 33
7031 19
7032 15
7033 58
7034 14
7035 18
7036 11
7037 40
7038 3
7039 51
7040 60
7041 5
7042 49
7043 15
7044 11
7045 22
7046 8
7047 15
7048 39
7049 8
7050 8
7051 0
7052 5
7053 9
7054 29
7055 47
7056 14
7057 17
7058 17
7059 15
7060 28
7061 18
7062 4
7063 9
7064 32
7065 38
7066 54
7067 15
7068 57
7069 5
7070 4
7071 33
7072 20
7073 18
7074 4
7075 25
7076 26
7077 42
7078 34
7079 40
7080 37
7081 44
7082 9
7083 38
7084 20
7085 57
7086 11
7087 18
7088 12
7089 20
7090 9
7091 15
7092 31
7093 51
7094 56
7095 44
7096 15
7097 45
7098 38
7099 8
7100 47
7101 15
7102 17
7103 9
7104 19
7105 5
7106 4
7107 19
7108 7
7109 21
7110 10
7111 29
7112 34
7113 5
7114 32
7115 20
7116 33
7117 37
7118 4
7119 14
7120 29
7121 41
7122 37
7123 22
7124 50
7125 34
7126 4
7127 22
7128 15
7129 65
7130 3
7131 54
7132 50
7133 2
7134 62
7135 9
7136 8
7137 10
7138 8
7139 34
7140 19
7141 15
7142 0
7143 49
7144 12
7145 28
7146 16
7147 17
7148 47
7149 38
7150 17
7151 22
7152 44
7153 33
7154 45
7155 40
7156 34
7157 33
7158 12
7159 6
7160 4
7161 38
7162 22
7163 3
7164 20
7165 20
7166 36
7167 62
7168 20
7169 37
7170 52
7171 0
7172 42
7173 6
7174 56
7175 4
7176 46
7177 44
7178 19
7179 7
7180 40
7181 56
7182 23
7183 57
7184 38
7185 39
7186 25
7187 10
7188 1
7189 16
7190 12
7191 13
7192 19
7193 46
7194 53
7195 42
7196 10
7197 6
7198 54
7199 6
7200 22
7201 22
7202 3
7203 20
7204 17
7205 17
7206 63
7207 20
7208 0
7209 20
7210 55
7211 21
7212 51
7213 20
7214 20
7215 9
7216 27
7217 8
7218 20
7219 21
7220 18
7221 21
7222 4
7223 38
7224 47
7225 5
7226 11
7227 41
7228 62
7229 33
7230 15
7231 39
7232 42
7233 5
7234 6
7235 44
7236 6
7237 5
7238 54
7239 32
7240 59
7241 28
7242 46
7243 17
7244 10
7245 54
7246 18
7247 6
7248 19
7249 15
7250 8
7251 9
7252 6
7253 47
7254 21
7255 7
7256 19
7257 22
7258 63
7259 34
7260 25
7261 15
7262 49
7263 44
7264 17
7265 15
7266 41
7267 9
7268 62
7269 14
7270 9
7271 34
7272 43
7273 31
7274 19
7275 20
7276 7
7277 7
7278 25
7279 5
7280 8
7281 32
7282 21
7283 42
7284 12
7285 38
7286 29
7287 32
7288 33
7289 21
7290 50
7291 7
7292 20
7293 4
7294 48
7295 20
7296 27
7297 57
7298 9
7299 44
7300 50
7301 65
7302 36
7303 8
7304 38
7305 15
7306 22
7307 40
7308 10
7309 7
7310 33
7311 15
7312 31
7313 6
7314 19
7315 44
7316 20
7317 39
7318 66
7319 28
7320 14
7321 9
7322 10
7323 20
7324 26
7325 6
7326 36
7327 9
7328 44
7329 7
7330 40
7331 9
7332 0
7333 31
7334 4
7335 19
7336 37
7337 62
7338 6
7339 20
7340 49
7341 3
7342 63
7343 41
7344 54
7345 29
7346 39
7347 4
7348 22
7349 20
7350 4
7351 19
7352 64
7353 7
7354 36
7355 59
7356 7
7357 7
7358 20
7359 0
7360 6
7361 5
7362 21
7363 16
7364 7
7365 29
7366 9
7367 39
7368 21
7369 4
7370 51
7371 48
7372 61
7373 7
7374 49
7375 21
7376 8
7377 21
7378 10
7379 17
7380 37
7381 4
7382 34
7383 61
7384 48
7385 7
7386 44
7387 8
7388 19
7389 4
7390 5
7391 12
7392 19
7393 20
7394 0
7395 9
7396 1
7397 15
7398 33
7399 38
7400 0
7401 32
7402 25
7403 38
7404 1
7405 36
7406 6
7407 7
7408 6
7409 21
7410 8
7411 19
7412 5
7413 37
7414 33
7415 9
7416 9
7417 44
7418 45
7419 34
7420 4
7421 20
7422 33
7423 20
7424 41
7425 15
7426 18
7427 16
7428 12
7429 21
7430 20
7431 15
7432 30
7433 17
7434 45
7435 62
7436 36
7437 14
7438 38
7439 3
7440 40
7441 5
7442 9
7443 25
7444 9
7445 16
7446 15
7447 31
7448 33
7449 15
7450 22
7451 29
7452 44
7453 14
7454 16
7455 20
7456 20
7457 0
7458 25
7459 37
7460 44
7461 38
7462 62
7463 10
7464 8
7465 44
7466 4
7467 20
7468 22
7469 10
7470 19
7471 32
7472 18
7473 56
7474 0
7475 8
7476 33
7477 24
7478 17
7479 21
7480 39
7481 7
7482 31
7483 7
7484 58
7485 30
7486 17
7487 36
7488 36
7489 36
7490 16
7491 17
7492 16
7493 10
7494 38
7495 33
7496 7
7497 12
7498 15
7499 23
7500 8
7501 6
7502 14
7503 63
7504 34
7505 6
7506 1
7507 21
7508 31
7509 27
7510 33
7511 54
7512 53
7513 12
7514 62
7515 6
7516 29
7517 4
7518 12
7519 7
7520 8
7521 16
7522 8
7523 60
7524 17
7525 55
7526 21
7527 8
7528 61
7529 5
7530 6
7531 3
7532 2
7533 5
7534 4
7535 15
7536 31
7537 9
7538 7
7539 55
7540 17
7541 2
7542 20
7543 16
7544 9
7545 4
7546 25
7547 42
7548 22
7549 19
7550 39
7551 29
7552 14
7553 40
7554 14
7555 3
7556 15
7557 60
7558 0
7559 7
7560 27
7561 16
7562 34
7563 34
7564 15
7565 8
7566 58
7567 14
7568 57
7569 31
7570 19
7571 38
7572 11
7573 38
7574 67
7575 5
7576 8
7577 16
7578 66
7579 22
7580 37
7581 29
7582 20
7583 29
7584 4
7585 9
7586 33
7587 26
7588 9
7589 27
7590 20
7591 31
7592 19
7593 7
7594 36
7595 5
7596 5
7597 8
7598 4
7599 20
7600 49
7601 10
7602 60
7603 26
7604 36
7605 39
7606 33
7607 35
7608 33
7609 5
7610 38
7611 17
7612 29
7613 16
7614 41
7615 53
7616 54
7617 9
7618 38
7619 40
7620 31
7621 21
7622 37
7623 33
7624 49
7625 11
7626 47
7627 23
7628 62
7629 17
7630 38
7631 21
7632 32
7633 6
7634 6
7635 61
7636 33
7637 4
7638 18
7639 17
7640 2
7641 25
7642 20
7643 10
7644 20
7645 38
7646 20
7647 5
7648 34
7649 6
7650 17
7651 36
7652 21
7653 20
7654 30
7655 22
7656 20
7657 6
7658 28
7659 21
7660 0
7661 22
7662 0
7663 17
7664 3
7665 12
7666 30
7667 38
7668 8
7669 7
7670 9
7671 26
7672 33
7673 7
7674 57
7675 36
7676 58
7677 17
7678 6
7679 15
7680 33
7681 22
7682 7
7683 7
7684 21
7685 5
7686 36
7687 15
7688 28
7689 42
7690 19
7691 63
7692 67
7693 8
7694 34
7695 34
7696 44
7697 47
7698 8
7699 16
7700 20
7701 38
7702 10
7703 44
7704 36
7705 18
7706 17
7707 36
7708 6
7709 19
7710 64
7711 3
7712 30
7713 41
7714 44
7715 44
7716 59
7717 42
7718 8
7719 62
7720 0
7721 19
7722 66
7723 33
7724 57
7725 38
7726 8
7727 29
7728 15
7729 29
7730 48
7731 4
7732 64
7733 0
7734 7
7735 33
7736 4
7737 14
7738 56
7739 39
7740 7
7741 17
7742 17
7743 33
7744 31
7745 19
7746 58
7747 18
7748 21
7749 11
7750 22
7751 5
7752 15
7753 9
7754 7
7755 20
7756 21
7757 6
7758 10
7759 8
7760 42
7761 17
7762 12
7763 45
7764 21
7765 60
7766 29
7767 15
7768 57
7769 16
7770 9
7771 52
7772 24
7773 25
7774 14
7775 9
7776 31
7777 40
7778 3
7779 6
7780 33
7781 5
7782 33
7783 65
7784 57
7785 67
7786 14
7787 60
7788 22
7789 20
7790 29
7791 20
7792 20
7793 8
7794 47
7795 36
7796 16
7797 33
7798 0
7799 18
7800 3
7801 25
7802 17
7803 2
7804 33
7805 8
7806 29
7807 3
7808 20
7809 19
7810 29
7811 9
7812 11
7813 19
7814 6
7815 19
7816 38
7817 14
7818 12
7819 6
7820 48
7821 9
7822 1
7823 4
7824 4
7825 41
7826 32
7827 3
7828 11
7829 21
7830 9
7831 5
7832 25
7833 6
7834 7
7835 40
7836 12
7837 26
7838 66
7839 32
7840 2
7841 53
7842 11
7843 21
7844 8
7845 21
7846 38
7847 50
7848 3
7849 22
7850 32
7851 25
7852 9
7853 44
7854 8
7855 15
7856 15
7857 16
7858 6
7859 62
7860 17
7861 21
7862 12
7863 10
7864 5
7865 2
7866 66
7867 21
7868 15
7869 6
7870 42
7871 45
7872 9
7873 44
7874 25
7875 32
7876 6
7877 26
7878 1
7879 21
7880 63
7881 14
7882 22
7883 17
7884 48
7885 7
7886 53
7887 8
7888 21
7889 40
7890 7
7891 30
7892 17
7893 44
7894 48
7895 15
7896 21
7897 9
7898 18
7899 21
7900 20
7901 62
7902 40
7903 15
7904 6
7905 6
7906 57
7907 21
7908 32
7909 47
7910 50
7911 21
7912 21
7913 0
7914 64
7915 47
7916 8
7917 17
7918 19
7919 29
7920 16
7921 16
7922 13
7923 25
7924 22
7925 25
7926 52
7927 63
7928 32
7929 10
7930 6
7931 21
7932 49
7933 14
7934 49
7935 36
7936 44
7937 18
7938 12
7939 20
7940 38
7941 40
7942 20
7943 29
7944 37
7945 17
7946 24
7947 29
7948 7
7949 10
7950 44
7951 31
7952 29
7953 56
7954 33
7955 67
7956 10
7957 16
7958 39
7959 20
7960 60
7961 3
7962 30
7963 31
7964 31
7965 24
7966 20
7967 61
7968 38
7969 16
7970 40
7971 14
7972 64
7973 3
7974 24
7975 8
7976 1
7977 56
7978 4
7979 57
7980 9
7981 20
7982 18
7983 25
7984 41
7985 15
7986 7
7987 33
7988 25
7989 4
7990 19
7991 29
7992 64
7993 16
7994 6
7995 6
7996 36
7997 20
7998 54
7999 18
8000 8
8001 29
8002 22
8003 25
8004 8
8005 15
8006 16
8007 38
8008 29
8009 5
8010 64
8011 35
8012 16
8013 15
8014 51
8015 16
8016 43
8017 7
8018 54
8019 14
8020 14
8021 19
8022 36
8023 15
8024 32
8025 4
8026 9
8027 21
8028 12
8029 5
8030 22
8031 8
8032 29
8033 46
8034 34
8035 7
8036 7
8037 62
8038 61
8039 6
8040 15
8041 40
8042 8
8043 31
8044 40
8045 54
8046 38
8047 4
8048 9
8049 21
8050 6
8051 49
8052 9
8053 38
8054 18
8055 27
8056 3
8057 8
8058 29
8059 40
8060 21
8061 21
8062 18
8063 33
8064 21
8065 20
8066 10
8067 13
8068 28
8069 41
8070 33
8071 7
8072 9
8073 18
8074 44
8075 44
8076 47
8077 8
8078 9
8079 14
8080 57
8081 3
8082 59
8083 15
8084 19
8085 36
8086 3
8087 57
8088 22
8089 15
8090 17
8091 19
8092 62
8093 55
8094 17
8095 25
8096 15
8097 22
8098 47
8099 41
8100 3
8101 15
8102 7
8103 20
8104 59
8105 43
8106 9
8107 32
8108 38
8109 25
8110 6
8111 21
8112 15
8113 14
8114 55
8115 7
8116 26
8117 17
8118 7
8119 36
8120 38
8121 6
8122 44
8123 44
8124 9
8125 9
8126 29
8127 15
8128 9
8129 4
8130 56
8131 6
8132 16
8133 7
8134 20
8135 20
8136 49
8137 16
8138 15
8139 57
8140 33
8141 36
8142 8
8143 44
8144 37
8145 22
8146 11
8147 11
8148 20
8149 17
8150 34
8151 21
8152 3
8153 60
8154 19
8155 3
8156 3
8157 12
8158 15
8159 22
8160 8
8161 20
8162 2
8163 33
8164 4
8165 48
8166 29
8167 25
8168 20
8169 17
8170 18
8171 9
8172 17
8173 38
8174 7
8175 22
8176 21
8177 43
8178 61
8179 15
8180 35
8181 9
8182 19
8183 4
8184 37
8185 5
8186 10
8187 8
8188 18
8189 40
8190 2
8191 6
8192 10
8193 9
8194 7
8195 51
8196 25
8197 6
8198 36
8199 8
8200 19
8201 21
8202 3
8203 4
8204 51
8205 25
8206 6
8207 21
8208 19
8209 12
8210 8
8211 9
8212 31
8213 4
8214 37
8215 36
8216 4
8217 36
8218 19
8219 19
8220 54
8221 50
8222 3
8223 58
8224 2
8225 4
8226 9
8227 40
8228 33
8229 10
8230 22
8231 10
8232 9
8233 20
8234 6
8235 20
8236 19
8237 9
8238 28
8239 4
8240 16
8241 44
8242 14
8243 23
8244 4
8245 9
8246 39
8247 21
8248 7
8249 44
8250 15
8251 38
8252 4
8253 8
8254 31
8255 9
8256 36
8257 32
8258 42
8259 42
8260 18
8261 4
8262 40
8263 3
8264 4
8265 4
8266 9
8267 13
8268 19
8269 15
8270 53
8271 38
8272 6
8273 29
8274 51
8275 40
8276 36
8277 20
8278 20
8279 6
8280 6
8281 8
8282 55
8283 42
8284 40
8285 37
8286 38
8287 60
8288 5
8289 14
8290 40
8291 18
8292 19
8293 36
8294 15
8295 38
8296 21
8297 3
8298 15
8299 17
8300 38
8301 10
8302 33
8303 39
8304 34
8305 8
8306 29
8307 29
8308 9
8309 32
8310 14
8311 4
8312 9
8313 12
8314 17
8315 16
8316 16
8317 25
8318 57
8319 38
8320 63
8321 21
8322 48
8323 49
8324 20
8325 38
8326 36
8327 10
8328 38
8329 41
8330 8
8331 33
8332 4
8333 9
8334 42
8335 48
8336 25
8337 33
8338 34
8339 44
8340 10
8341 7
8342 20
8343 33
8344 31
8345 19
8346 32
8347 28
8348 63
8349 44
8350 9
8351 6
8352 7
8353 5
8354 20
8355 3
8356 42
8357 50
8358 2
8359 22
8360 16
8361 14
8362 44
8363 7
8364 18
8365 40
8366 21
8367 40
8368 55
8369 44
8370 33
8371 12
8372 57
8373 53
8374 15
8375 20
8376 20
8377 20
8378 5
8379 7
8380 18
8381 40
8382 40
8383 14
8384 9
8385 50
8386 1
8387 14
8388 53
8389 14
8390 44
8391 5
8392 38
8393 43
8394 38
8395 65
8396 3
8397 4
8398 38
8399 21
8400 2
8401 36
8402 9
8403 25
8404 16
8405 16
8406 21
8407 15
8408 19
8409 2
8410 6
8411 14
8412 48
8413 3
8414 16
8415 14
8416 54
8417 36
8418 20
8419 4
8420 41
8421 44
8422 18
8423 14
8424 45
8425 38
8426 22
8427 29
8428 19
8429 29
8430 8
8431 12
8432 17
8433 21
8434 53
8435 4
8436 13
8437 16
8438 22
8439 9
8440 16
8441 13
8442 34
8443 26
8444 5
8445 4
8446 10
8447 2
8448 36
8449 14
8450 4
8451 2
8452 25
8453 25
8454 9
8455 12
8456 14
8457 48
8458 21
8459 9
8460 39
8461 64
8462 16
8463 5
8464 18
8465 3
8466 15
8467 7
8468 33
8469 15
8470 40
8471 16
8472 5
8473 10
8474 11
8475 31
8476 44
8477 9
8478 12
8479 17
8480 28
8481 47
8482 7
8483 21
8484 15
8485 39
8486 10
8487 35
8488 9
8489 14
8490 16
8491 19
8492 31
8493 40
8494 3
8495 40
8496 29
8497 49
8498 11
8499 31
8500 63
8501 14
8502 42
8503 42
8504 19
8505 11
8506 19
8507 22
8508 33
8509 50
8510 65
8511 8
8512 44
8513 44
8514 32
8515 15
8516 38
8517 5
8518 6
8519 51
8520 32
8521 32
8522 62
8523 25
8524 34
8525 4
8526 0
8527 3
8528 4
8529 54
8530 7
8531 4
8532 9
8533 36
8534 15
8535 6
8536 38
8537 10
8538 25
8539 8
8540 7
8541 5
8542 54
8543 16
8544 25
8545 12
8546 9
8547 3
8548 9
8549 56
8550 12
8551 4
8552 20
8553 36
8554 65
8555 28
8556 2
8557 8
8558 22
8559 5
8560 62
8561 22
8562 53
8563 17
8564 48
8565 7
8566 23
8567 20
8568 7
8569 19
8570 25
8571 12
8572 22
8573 3
8574 24
8575 30
8576 16
8577 4
8578 19
8579 14
8580 31
8581 12
8582 9
8583 8
8584 36
8585 25
8586 6
8587 20
8588 36
8589 16
8590 51
8591 22
8592 8
8593 5
8594 20
8595 3
8596 4
8597 2
8598 14
8599 45
8600 44
8601 0
8602 4
8603 32
8604 21
8605 33
8606 17
8607 23
8608 33
8609 9
8610 54
8611 14
8612 18
8613 64
8614 14
8615 29
8616 9
8617 44
8618 9
8619 33
8620 33
8621 10
8622 45
8623 6
8624 42
8625 11
8626 9
8627 8
8628 33
8629 17
8630 16
8631 57
8632 3
8633 8
8634 5
8635 29
8636 21
8637 8
8638 4
8639 49
8640 19
8641 33
8642 34
8643 10
8644 55
8645 2
8646 10
8647 6
8648 46
8649 36
8650 14
8651 33
8652 37
8653 34
8654 5
8655 44
8656 17
8657 19
8658 43
8659 13
8660 21
8661 44
8662 62
8663 9
8664 43
8665 9
8666 3
8667 9
8668 3
8669 26
8670 64
8671 16
8672 38
8673 63
8674 2
8675 38
8676 50
8677 36
8678 9
8679 20
8680 22
8681 49
8682 4
8683 50
8684 31
8685 38
8686 57
8687 18
8688 21
8689 40
8690 21
8691 44
8692 19
8693 47
8694 20
8695 19
8696 16
8697 56
8698 4
8699 7
8700 19
8701 6
8702 19
8703 14
8704 6
8705 33
8706 12
8707 20
8708 37
8709 64
8710 40
8711 46
8712 20
8713 11
8714 11
8715 11
8716 49
8717 50
8718 24
8719 17
8720 36
8721 25
8722 29
8723 15
8724 21
8725 8
8726 14
8727 13
8728 16
8729 7
8730 38
8731 34
8732 9
8733 10
8734 15
8735 41
8736 48
8737 18
8738 5
8739 38
8740 29
8741 22
8742 16
8743 15
8744 32
8745 59
8746 55
8747 1
8748 11
8749 54
8750 55
8751 55
8752 57
8753 15
8754 17
8755 52
8756 18
8757 48
8758 57
8759 4
8760 15
8761 32
8762 8
8763 19
8764 55
8765 33
8766 58
8767 35
8768 52
8769 2
8770 28
8771 16
8772 42
8773 36
8774 15
8775 47
8776 57
8777 22
8778 14
8779 6
8780 63
8781 16
8782 6
8783 16
8784 13
8785 8
8786 4
8787 9
8788 36
8789 45
8790 55
8791 48
8792 9
8793 33
8794 17
8795 37
8796 10
8797 15
8798 6
8799 24
8800 9
8801 8
8802 8
8803 61
8804 12
8805 19
8806 18
8807 3
8808 32
8809 19
8810 9
8811 2
8812 7
8813 52
8814 8
8815 56
8816 32
8817 33
8818 4
8819 19
8820 20
8821 29
8822 57
8823 8
8824 9
8825 15
8826 41
8827 9
8828 5
8829 7
8830 8
8831 61
8832 43
8833 38
8834 25
8835 11
8836 23
8837 17
8838 18
8839 56
8840 19
8841 19
8842 33
8843 21
8844 19
8845 4
8846 49
8847 16
8848 10
8849 7
8850 20
8851 22
8852 62
8853 4
8854 4
8855 22
8856 29
8857 4
8858 6
8859 31
8860 36
8861 21
8862 33
8863 22
8864 63
8865 8
8866 47
8867 28
8868 24
8869 8
8870 42
8871 25
8872 10
8873 45
8874 59
8875 41
8876 4
8877 20
8878 12
8879 39
8880 18
8881 55
8882 12
8883 48
8884 64
8885 19
8886 19
8887 8
8888 45
8889 4
8890 15
8891 32
8892 59
8893 21
8894 67
8895 38
8896 16
8897 7
8898 9
8899 21
8900 49
8901 44
8902 33
8903 8
8904 52
8905 38
8906 21
8907 9
8908 7
8909 44
8910 10
8911 4
8912 9
8913 20
8914 6
8915 2
8916 14
8917 6
8918 55
8919 4
8920 21
8921 32
8922 16
8923 8
8924 19
8925 33
8926 20
8927 10
8928 38
8929 21
8930 19
8931 3
8932 4
8933 9
8934 61
8935 21
8936 33
8937 5
8938 44
8939 37
8940 28
8941 20
8942 25
8943 34
8944 9
8945 38
8946 2
8947 22
8948 29
8949 21
8950 10
8951 49
8952 41
8953 21
8954 9
8955 2
8956 44
8957 9
8958 61
8959 3
8960 9
8961 17
8962 14
8963 4
8964 38
8965 21
8966 20
8967 40
8968 8
8969 11
8970 49
8971 23
8972 15
8973 31
8974 25
8975 44
8976 41
8977 16
8978 14
8979 17
8980 9
8981 7
8982 38
8983 36
8984 5
8985 4
8986 10
8987 49
8988 4
8989 10
8990 8
8991 13
8992 20
8993 57
8994 8
8995 6
8996 56
8997 11
8998 0
8999 5
9000 17
9001 56
9002 56
9003 21
9004 0
9005 54
9006 21
9007 42
9008 37
9009 14
9010 34
9011 41
9012 20
9013 66
9014 31
9015 54
9016 61
9017 18
9018 14
9019 41
9020 16
9021 6
9022 57
9023 12
9024 19
9025 14
9026 6
9027 9
9028 32
9029 58
9030 3
9031 6
9032 45
9033 33
9034 15
9035 56
9036 19
9037 25
9038 38
9039 3
9040 19
9041 3
9042 25
9043 25
9044 67
9045 18
9046 22
9047 21
9048 15
9049 21
9050 17
9051 19
9052 8
9053 48
9054 31
9055 41
9056 25
9057 10
9058 53
9059 17
9060 20
9061 8
9062 9
9063 4
9064 22
9065 25
9066 15
9067 31
9068 19
9069 8
9070 36
9071 54
9072 18
9073 14
9074 19
9075 25
9076 29
9077 4
9078 47
9079 31
9080 17
9081 48
9082 53
9083 22
9084 48
9085 25
9086 9
9087 19
9088 33
9089 17
9090 44
9091 3
9092 51
9093 49
9094 12
9095 6
9096 8
9097 7
9098 64
9099 16
9100 14
9101 9
9102 36
9103 29
9104 15
9105 40
9106 23
9107 15
9108 8
9109 22
9110 58
9111 62
9112 6
9113 45
9114 22
9115 9
9116 33
9117 34
9118 29
9119 9
9120 21
9121 31
9122 13
9123 15
9124 4
9125 19
9126 18
9127 33
9128 34
9129 7
9130 20
9131 18
9132 66
9133 59
9134 51
9135 34
9136 7
9137 7
9138 8
9139 15
9140 14
9141 5
9142 20
9143 43
9144 21
9145 16
9146 4
9147 33
9148 19
9149 19
9150 28
9151 22
9152 20
9153 2
9154 21
9155 16
9156 32
9157 65
9158 8
9159 19
9160 11
9161 17
9162 11
9163 43
9164 6
9165 37
9166 51
9167 8
9168 17
9169 54
9170 22
9171 15
9172 38
9173 33
9174 18
9175 29
9176 66
9177 7
9178 10
9179 42
9180 22
9181 6
9182 38
9183 54
9184 29
9185 22
9186 15
9187 15
9188 8
9189 40
9190 33
9191 33
9192 26
9193 10
9194 16
9195 58
9196 1
9197 9
9198 49
9199 50
9200 20
9201 2
9202 19
9203 6
9204 18
9205 10
9206 33
9207 42
9208 17
9209 51
9210 33
9211 12
9212 32
9213 64
9214 24
9215 3
9216 10
9217 41
9218 21
9219 15
9220 6
9221 11
9222 51
9223 29
9224 21
9225 14
9226 66
9227 8
9228 29
9229 33
9230 46
9231 20
9232 31
9233 45
9234 32
9235 9
9236 62
9237 0
9238 19
9239 6
9240 15
9241 41
9242 32
9243 17
9244 9
9245 6
9246 4
9247 50
9248 4
9249 33
9250 20
9251 22
9252 28
9253 21
9254 32
9255 31
9256 59
9257 44
9258 19
9259 15
9260 25
9261 4
9262 2
9263 3
9264 22
9265 4
9266 3
9267 5
9268 34
9269 17
9270 8
9271 23
9272 6
9273 28
9274 12
9275 16
9276 33
9277 16
9278 3
9279 4
9280 2
9281 55
9282 15
9283 8
9284 5
9285 7
9286 6
9287 8
9288 36
9289 28
9290 0
9291 17
9292 6
9293 38
9294 36
9295 7
9296 65
9297 12
9298 50
9299 0
9300 19
9301 29
9302 16
9303 32
9304 1
9305 21
9306 16
9307 33
9308 44
9309 15
9310 5
9311 21
9312 27
9313 42
9314 36
9315 14
9316 43
9317 19
9318 9
9319 33
9320 40
9321 36
9322 64
9323 4
9324 7
9325 18
9326 3
9327 45
9328 4
9329 4
9330 22
9331 7
9332 25
9333 15
9334 5
9335 46
9336 9
9337 14
9338 5
9339 25
9340 34
9341 15
9342 36
9343 8
9344 22
9345 29
9346 44
9347 49
9348 15
9349 21
9350 22
9351 21
9352 36
9353 11
9354 7
9355 32
9356 5
9357 47
9358 12
9359 34
9360 22
9361 7
9362 16
9363 41
9364 22
9365 17
9366 47
9367 8
9368 32
9369 37
9370 61
9371 36
9372 41
9373 8
9374 17
9375 10
9376 50
9377 2
9378 7
9379 25
9380 20
9381 38
9382 7
9383 4
9384 33
9385 9
9386 37
9387 18
9388 15
9389 57
9390 11
9391 36
9392 39
9393 7
9394 40
9395 9
9396 0
9397 38
9398 51
9399 25
9400 8
9401 52
9402 25
9403 5
9404 40
9405 21
9406 21
9407 17
9408 44
9409 7
9410 9
9411 58
9412 29
9413 29
9414 8
9415 38
9416 20
9417 14
9418 60
9419 42
9420 24
9421 23
9422 21
9423 20
9424 40
9425 58
9426 36
9427 7
9428 37
9429 25
9430 9
9431 20
9432 37
9433 19
9434 21
9435 53
9436 44
9437 19
9438 4
9439 22
9440 22
9441 17
9442 38
9443 11
9444 37
9445 29
9446 7
9447 54
9448 52
9449 62
9450 16
9451 2
9452 53
9453 42
9454 8
9455 9
9456 19
9457 63
9458 20
9459 20
9460 19
9461 32
9462 27
9463 19
9464 4
9465 59
9466 8
9467 12
9468 23
9469 60
9470 17
9471 44
9472 10
9473 54
9474 12
9475 19
9476 48
9477 6
9478 39
9479 7
9480 28
9481 14
9482 16
9483 48
9484 42
9485 62
9486 9
9487 43
9488 37
9489 21
9490 22
9491 20
9492 21
9493 3
9494 47
9495 20
9496 17
9497 8
9498 2
9499 41
9500 33
9501 20
9502 5
9503 43
9504 11
9505 9
9506 36
9507 26
9508 15
9509 21
9510 29
9511 53
9512 40
9513 15
9514 15
9515 34
9516 18
9517 4
9518 38
9519 21
9520 49
9521 7
9522 4
9523 7
9524 15
9525 10
9526 4
9527 55
9528 32
9529 12
9530 34
9531 7
9532 10
9533 17
9534 3
9535 1
9536 20
9537 15
9538 19
9539 0
9540 36
9541 14
9542 21
9543 19
9544 9
9545 47
9546 55
9547 62
9548 32
9549 21
9550 29
9551 18
9552 5
9553 8
9554 12
9555 8
9556 34
9557 47
9558 24
9559 38
9560 2
9561 47
9562 45
9563 23
9564 29
9565 15
9566 18
9567 15
9568 7
9569 5
9570 60
9571 0
9572 36
9573 21
9574 29
9575 15
9576 33
9577 10
9578 20
9579 0
9580 18
9581 8
9582 8
9583 10
9584 22
9585 16
9586 30
9587 38
9588 5
9589 8
9590 16
9591 10
9592 55
9593 0
9594 14
9595 61
9596 40
9597 31
9598 33
9599 57
9600 20
9601 18
9602 40
9603 11
9604 4
9605 36
9606 6
9607 36
9608 18
9609 7
9610 9
9611 9
9612 6
9613 20
9614 21
9615 26
9616 6
9617 9
9618 64
9619 52
9620 14
9621 3
9622 1
9623 14
9624 4
9625 42
9626 64
9627 36
9628 59
9629 53
9630 36
9631 38
9632 50
9633 33
9634 36
9635 22
9636 16
9637 19
9638 19
9639 17
9640 3
9641 18
9642 21
9643 17
9644 6
9645 17
9646 5
9647 5
9648 20
9649 6
9650 15
9651 9
9652 11
9653 15
9654 29
9655 26
9656 17
9657 35
9658 3
9659 49
9660 28
9661 11
9662 4
9663 3
9664 25
9665 4
9666 41
9667 9
9668 32
9669 41
9670 8
9671 44
9672 19
9673 32
9674 25
9675 10
9676 8
9677 21
9678 11
9679 9
9680 19
9681 16
9682 0
9683 14
9684 27
9685 21
9686 20
9687 36
9688 10
9689 0
9690 16
9691 45
9692 3
9693 36
9694 8
9695 36
9696 29
9697 6
9698 2
9699 40
9700 35
9701 37
9702 65
9703 57
9704 17
9705 26
9706 4
9707 39
9708 15
9709 29
9710 9
9711 20
9712 7
9713 32
9714 3
9715 8
9716 21
9717 20
9718 57
9719 20
9720 56
9721 19
9722 6
9723 10
9724 40
9725 46
9726 15
9727 41
9728 15
9729 10
9730 6
9731 24
9732 31
9733 33
9734 44
9735 11
9736 31
9737 19
9738 19
9739 20
9740 43
9741 38
9742 47
9743 9
9744 6
9745 45
9746 29
9747 11
9748 16
9749 44
9750 50
9751 17
9752 4
9753 33
9754 38
9755 49
9756 4
9757 7
9758 9
9759 14
9760 27
9761 60
9762 55
9763 22
9764 21
9765 23
9766 7
9767 6
9768 59
9769 26
9770 31
9771 25
9772 14
9773 9
9774 42
9775 9
9776 49
9777 18
9778 34
9779 21
9780 8
9781 8
9782 0
9783 33
9784 52
9785 7
9786 6
9787 10
9788 8
9789 15
9790 9
9791 19
9792 22
9793 36
9794 16
9795 20
9796 20
9797 54
9798 3
9799 38
9800 18
9801 29
9802 15
9803 9
9804 48
9805 5
9806 44
9807 32
9808 26
9809 56
9810 38
9811 38
9812 16
9813 9
9814 25
9815 16
9816 41
9817 6
9818 47
9819 8
9820 20
9821 7
9822 51
9823 18
9824 9
9825 48
9826 45
9827 15
9828 52
9829 2
9830 4
9831 4
9832 4
9833 9
9834 21
9835 17
9836 50
9837 10
9838 19
9839 49
9840 36
9841 15
9842 15
9843 36
9844 40
9845 7
9846 0
9847 22
9848 10
9849 6
9850 56
9851 28
9852 2
9853 49
9854 10
9855 19
9856 13
9857 24
9858 36
9859 29
9860 18
9861 57
9862 9
9863 15
9864 51
9865 37
9866 57
9867 35
9868 3
9869 1
9870 22
9871 11
9872 44
9873 15
9874 15
9875 8
9876 20
9877 57
9878 15
9879 8
9880 38
9881 19
9882 57
9883 21
9884 40
9885 36
9886 33
9887 42
9888 12
9889 36
9890 24
9891 0
9892 7
9893 6
9894 8
9895 37
9896 20
9897 9
9898 22
9899 7
9900 14
9901 6
9902 44
9903 33
9904 5
9905 25
9906 7
9907 6
9908 33
9909 16
9910 41
9911 60
9912 7
9913 62
9914 34
9915 27
9916 41
9917 2
9918 9
9919 44
9920 18
9921 25
9922 9
9923 11
9924 5
9925 51
9926 8
9927 10
9928 16
9929 45
9930 10
9931 2
9932 44
9933 15
9934 36
9935 16
9936 21
9937 15
9938 63
9939 33
9940 34
9941 3
9942 53
9943 34
9944 4
9945 4
9946 33
9947 17
9948 33
9949 14
9950 46
9951 14
9952 40
9953 48
9954 8
9955 18
9956 18
9957 21
9958 41
9959 17
9960 6
9961 39
9962 29
9963 33
9964 19
9965 19
9966 9
9967 41
9968 56
9969 10
9970 16
9971 15
9972 46
9973 8
9974 20
9975 7
9976 20
9977 7
9978 42
9979 6
9980 35
9981 19
9982 22
9983 43
9984 36
9985 21
9986 10
9987 6
9988 9
9989 57
9990 18
9991 7
9992 41
9993 38
9994 4
9995 32
9996 41
9997 9
9998 40
9999 33
10000 24
10001 4
10002 36
10003 0
10004 20
10005 14
10006 19
10007 1
10008 7
10009 25
10010 9
10011 25
10012 4
10013 32
10014 32
10015 15
10016 10
10017 15
10018 32
10019 33
10020 36
10021 5
10022 29
10023 18
10024 44
10025 4
10026 29
10027 7
10028 18
10029 0
10030 21
10031 21
10032 20
10033 42
10034 7
10035 15
10036 24
10037 6
10038 16
10039 7
10040 20
10041 6
10042 4
10043 5
10044 10
10045 14
10046 15
10047 22
10048 20
10049 9
10050 15
10051 29
10052 20
10053 41
10054 16
10055 38
10056 45
10057 15
10058 17
10059 29
10060 47
10061 5
10062 38
10063 7
10064 15
10065 17
10066 14
10067 6
10068 37
10069 6
10070 4
10071 14
10072 4
10073 9
10074 25
10075 10
10076 5
10077 21
10078 5
10079 34
10080 16
10081 25
10082 37
10083 13
10084 22
10085 25
10086 61
10087 8
10088 51
10089 15
10090 44
10091 20
10092 44
10093 20
10094 16
10095 7
10096 7
10097 8
10098 17
10099 29
10100 3
10101 33
10102 32
10103 20
10104 40
10105 32
10106 4
10107 15
10108 38
10109 33
10110 16
10111 17
10112 11
10113 24
10114 26
10115 37
10116 12
10117 31
10118 48
10119 44
10120 14
10121 36
10122 21
10123 40
10124 7
10125 17
10126 32
10127 15
10128 61
10129 14
10130 25
10131 0
10132 10
10133 29
10134 7
10135 20
10136 50
10137 21
10138 17
10139 2
10140 57
10141 55
10142 12
10143 44
10144 25
10145 20
10146 7
10147 20
10148 34
10149 17
10150 29
10151 11
10152 8
10153 28
10154 0
10155 9
10156 4
10157 11
10158 36
10159 46
10160 0
10161 34
10162 18
10163 8
10164 45
10165 41
10166 19
10167 22
10168 10
10169 4
10170 38
10171 3
10172 55
10173 36
10174 19
10175 3
10176 48
10177 15
10178 18
10179 67
10180 8
10181 17
10182 15
10183 41
10184 3
10185 22
10186 25
10187 19
10188 42
10189 43
10190 6
10191 10
10192 49
10193 25
10194 15
10195 41
10196 9
10197 7
10198 18
10199 17
10200 21
10201 6
10202 9
10203 17
10204 4
10205 62
10206 3
10207 4
10208 29
10209 17
10210 9
10211 5
10212 62
10213 17
10214 33
10215 60
10216 5
10217 38
10218 14
10219 9
10220 33
10221 29
10222 21
10223 21
10224 14
10225 6
10226 19
10227 63
10228 14
10229 41
10230 8
10231 31
10232 22
10233 26
10234 2
10235 19
10236 34
10237 44
10238 25
10239 32
10240 3
10241 4
10242 20
10243 7
10244 57
10245 45
10246 32
10247 7
10248 47
10249 57
10250 20
10251 14
10252 18
10253 7
10254 12
10255 16
10256 32
10257 18
10258 4
10259 16
10260 15
10261 12
10262 57
10263 48
10264 15
10265 14
10266 21
10267 19
10268 41
10269 41
10270 59
10271 33
10272 21
10273 10
10274 9
10275 7
10276 16
10277 11
10278 33
10279 3
10280 6
10281 16
10282 6
10283 9
10284 30
10285 22
10286 1
10287 1
10288 66
10289 19
10290 10
10291 4
10292 33
10293 18
10294 31
10295 34
10296 32
10297 4
10298 7
10299 21
10300 5
10301 3
10302 38
10303 4
10304 25
10305 15
10306 16
10307 37
10308 39
10309 5
10310 5
10311 33
10312 8
10313 8
10314 4
10315 2
10316 33
10317 25
10318 20
10319 29
10320 18
10321 4
10322 3
10323 15
10324 4
10325 29
10326 1
10327 33
10328 0
10329 33
10330 4
10331 47
10332 8
10333 38
10334 36
10335 63
10336 22
10337 7
10338 33
10339 19
10340 15
10341 32
10342 16
10343 0
10344 4
10345 6
10346 7
10347 20
10348 17
10349 35
10350 15
10351 40
10352 22
10353 12
10354 18
10355 30
10356 6
10357 9
10358 8
10359 6
10360 41
10361 38
10362 16
10363 37
10364 12
10365 66
10366 20
10367 29
10368 29
10369 7
10370 8
10371 49
10372 9
10373 10
10374 20
10375 25
10376 15
10377 7
10378 17
10379 62
10380 20
10381 10
10382 37
10383 11
10384 53
10385 4
10386 10
10387 5
10388 25
10389 54
10390 21
10391 12
10392 36
10393 32
10394 52
10395 4
10396 6
10397 15
10398 33
10399 53
10400 33
10401 33
10402 10
10403 61
10404 43
10405 41
10406 34
10407 53
10408 22
10409 35
10410 14
10411 4
10412 9
10413 20
10414 37
10415 15
10416 22
10417 44
10418 64
10419 9
10420 22
10421 33
10422 20
10423 12
10424 1
10425 22
10426 33
10427 4
10428 38
10429 50
10430 10
10431 19
10432 33
10433 22
10434 7
10435 7
10436 21
10437 33
10438 10
10439 21
10440 21
10441 38
10442 24
10443 37
10444 4
10445 0
10446 31
10447 24
10448 8
10449 5
10450 15
10451 17
10452 18
10453 16
10454 25
10455 7
10456 12
10457 14
10458 44
10459 8
10460 21
10461 8
10462 15
10463 16
10464 7
10465 40
10466 3
10467 64
10468 8
10469 40
10470 32
10471 19
10472 4
10473 53
10474 22
10475 45
10476 9
10477 39
10478 42
10479 30
10480 34
10481 9
10482 59
10483 15
10484 43
10485 38
10486 15
10487 5
10488 9
10489 5
10490 43
10491 10
10492 49
10493 19
10494 36
10495 61
10496 18
10497 4
10498 32
10499 21
10500 4
10501 10
10502 63
10503 4
10504 8
10505 34
10506 29
10507 8
10508 5
10509 23
10510 18
10511 4
10512 10
10513 44
10514 9
10515 21
10516 10
10517 62
10518 21
10519 55
10520 21
10521 9
10522 37
10523 20
10524 4
10525 6
10526 39
10527 11
10528 37
10529 38
10530 41
10531 8
10532 36
10533 29
10534 29
10535 2
10536 67
10537 11
10538 60
10539 42
10540 35
10541 19
10542 43
10543 6
10544 45
10545 37
10546 44
10547 9
10548 36
10549 55
10550 38
10551 22
10552 40
10553 36
10554 14
10555 51
10556 26
10557 9
10558 44
10559 4
10560 9
10561 15
10562 17
10563 42
10564 6
10565 66
10566 2
10567 42
10568 50
10569 33
10570 9
10571 20
10572 0
10573 48
10574 49
10575 4
10576 39
10577 8
10578 9
10579 53
10580 15
10581 57
10582 15
10583 40
10584 5
10585 7
10586 52
10587 4
10588 21
10589 5
10590 36
10591 6
10592 8
10593 4
10594 14
10595 61
10596 22
10597 17
10598 17
10599 50
10600 3
10601 28
10602 3
10603 7
10604 22
10605 15
10606 37
10607 14
10608 7
10609 14
10610 10
10611 17
10612 20
10613 57
10614 19
10615 20
10616 30
10617 47
10618 48
10619 24
10620 7
10621 41
10622 12
10623 63
10624 9
10625 7
10626 56
10627 4
10628 17
10629 3
10630 18
10631 9
10632 53
10633 12
10634 16
10635 39
10636 28
10637 22
10638 5
10639 22
10640 22
10641 38
10642 9
10643 62
10644 26
10645 29
10646 64
10647 25
10648 32
10649 21
10650 14
10651 64
10652 6
10653 14
10654 17
10655 54
10656 32
10657 38
10658 16
10659 17
10660 22
10661 19
10662 24
10663 21
10664 10
10665 25
10666 24
10667 9
10668 44
10669 8
10670 33
10671 8
10672 20
10673 12
10674 29
10675 33
10676 8
10677 22
10678 42
10679 10
10680 9
10681 4
10682 16
10683 14
10684 32
10685 16
10686 5
10687 29
10688 37
10689 7
10690 17
10691 9
10692 9
10693 28
10694 0
10695 20
10696 37
10697 64
10698 19
10699 64
10700 8
10701 15
10702 3
10703 6
10704 38
10705 5
10706 22
10707 48
10708 49
10709 22
10710 21
10711 20
10712 8
10713 2
10714 32
10715 8
10716 4
10717 21
10718 2
10719 18
10720 44
10721 31
10722 32
10723 19
10724 24
10725 60
10726 2
10727 25
10728 19
10729 32
10730 61
10731 15
10732 38
10733 5
10734 38
10735 14
10736 16
10737 4
10738 8
10739 42
10740 1
10741 15
10742 16
10743 33
10744 7
10745 15
10746 36
10747 11
10748 63
10749 20
10750 20
10751 34
10752 36
10753 14
10754 7
10755 49
10756 17
10757 20
10758 22
10759 41
10760 29
10761 7
10762 22
10763 33
10764 8
10765 19
10766 6
10767 12
10768 32
10769 50
10770 37
10771 21
10772 1
10773 7
10774 4
10775 44
10776 18
10777 50
10778 19
10779 37
10780 7
10781 63
10782 12
10783 25
10784 34
10785 33
10786 7
10787 4
10788 12
10789 9
10790 29
10791 19
10792 25
10793 44
10794 34
10795 2
10796 17
10797 18
10798 29
10799 59
10800 67
10801 34
10802 9
10803 20
10804 24
10805 2
10806 19
10807 30
10808 11
10809 15
10810 9
10811 34
10812 26
10813 9
10814 4
10815 11
10816 45
10817 20
10818 21
10819 17
10820 51
10821 18
10822 8
10823 31
10824 20
10825 44
10826 34
10827 15
10828 4
10829 33
10830 19
10831 14
10832 37
10833 15
10834 9
10835 25
10836 36
10837 34
10838 25
10839 36
10840 4
10841 8
10842 8
10843 54
10844 64
10845 31
10846 4
10847 10
10848 26
10849 8
10850 52
10851 3
10852 36
10853 28
10854 38
10855 45
10856 66
10857 47
10858 3
10859 20
10860 43
10861 21
10862 45
10863 59
10864 9
10865 10
10866 16
10867 7
10868 30
10869 52
10870 0
10871 8
10872 10
10873 14
10874 13
10875 21
10876 0
10877 60
10878 26
10879 28
10880 21
10881 0
10882 25
10883 52
10884 42
10885 19
10886 0
10887 19
10888 23
10889 21
10890 12
10891 5
10892 49
10893 0
10894 5
10895 37
10896 4
10897 21
10898 8
10899 18
10900 19
10901 17
10902 5
10903 3
10904 21
10905 18
10906 19
10907 53
10908 32
10909 49
10910 25
10911 7
10912 30
10913 50
10914 3
10915 63
10916 49
10917 47
10918 64
10919 36
10920 15
10921 4
10922 43
10923 7
10924 20
10925 56
10926 46
10927 58
10928 38
10929 14
10930 6
10931 19
10932 58
10933 12
10934 9
10935 19
10936 3
10937 57
10938 64
10939 11
10940 11
10941 44
10942 45
10943 15
10944 51
10945 49
10946 6
10947 20
10948 21
10949 16
10950 34
10951 6
10952 33
10953 36
10954 36
10955 12
10956 0
10957 17
10958 45
10959 50
10960 55
10961 40
10962 57
10963 9
10964 6
10965 33
10966 3
10967 0
10968 20
10969 0
10970 17
10971 22
10972 25
10973 10
10974 12
10975 45
10976 17
10977 38
10978 12
10979 18
10980 38
10981 10
10982 3
10983 23
10984 25
10985 38
10986 21
10987 15
10988 30
10989 31
10990 12
10991 6
10992 41
10993 17
10994 4
10995 20
10996 50
10997 2
10998 31
10999 10
11000 4
11001 42
11002 32
11003 4
11004 32
11005 58
11006 39
11007 29
11008 33
11009 19
11010 57
11011 17
11012 33
11013 27
11014 33
11015 49
11016 6
11017 64
11018 9
11019 15
11020 9
11021 29
11022 18
11023 4
11024 40
11025 7
11026 2
11027 49
11028 36
11029 30
11030 30
11031 7
11032 2
11033 4
11034 14
11035 15
11036 35
11037 36
11038 52
11039 20
11040 45
11041 4
11042 20
11043 16
11044 4
11045 3
11046 24
11047 10
11048 5
11049 14
11050 40
11051 10
11052 12
11053 20
11054 6
11055 55
11056 9
11057 17
11058 19
11059 8
11060 4
11061 36
11062 62
11063 25
11064 25
11065 15
11066 22
11067 8
11068 20
11069 29
11070 15
11071 32
11072 38
11073 33
11074 31
11075 7
11076 7
11077 2
11078 54
11079 15
11080 7
11081 38
11082 31
11083 18
11084 15
11085 4
11086 64
11087 51
11088 7
11089 18
11090 29
11091 22
11092 4
11093 5
11094 9
11095 9
11096 38
11097 20
11098 36
11099 36
11100 22
11101 19
11102 64
11103 19
11104 29
11105 21
11106 9
11107 56
11108 21
11109 17
11110 15
11111 6
11112 15
11113 7
11114 66
11115 15
11116 19
11117 17
11118 19
11119 41
11120 7
11121 51
11122 26
11123 18
11124 14
11125 8
11126 3
11127 33
11128 31
11129 19
11130 38
11131 55
11132 40
11133 7
11134 22
11135 25
11136 7
11137 14
11138 15
11139 7
11140 14
11141 3
11142 20
11143 54
11144 3
11145 20
11146 53
11147 17
11148 55
11149 48
11150 6
11151 2
11152 36
11153 6
11154 2
11155 21
11156 59
11157 54
11158 7
11159 15
11160 15
11161 9
11162 13
11163 34
11164 9
11165 3
11166 20
11167 13
11168 53
11169 44
11170 18
11171 12
11172 12
11173 19
11174 61
11175 24
11176 24
11177 4
11178 54
11179 66
11180 7
11181 50
11182 38
11183 38
11184 20
11185 62
11186 15
11187 35
11188 9
11189 54
11190 18
11191 32
11192 16
11193 5
11194 22
11195 4
11196 44
11197 31
11198 8
11199 4
11200 4
11201 44
11202 3
11203 33
11204 55
11205 29
11206 2
11207 42
11208 25
11209 9
11210 20
11211 38
11212 57
11213 22
11214 7
11215 19
11216 37
11217 17
11218 7
11219 7
11220 17
11221 6
11222 18
11223 3
11224 44
11225 17
11226 55
11227 26
11228 45
11229 61
11230 4
11231 9
11232 44
11233 53
11234 44
11235 8
11236 29
11237 9
11238 6
11239 3
11240 27
11241 15
11242 10
11243 15
11244 20
11245 12
11246 51
11247 16
11248 33
11249 32
11250 64
11251 44
11252 8
11253 4
11254 36
11255 20
11256 4
11257 21
11258 4
11259 15
11260 21
11261 20
11262 20
11263 58
11264 39
11265 6
11266 9
11267 41
11268 9
11269 62
11270 17
11271 10
11272 38
11273 27
11274 6
11275 11
11276 5
11277 4
11278 7
11279 19
11280 19
11281 22
11282 29
11283 25
11284 20
11285 8
11286 6
11287 21
11288 29
11289 24
11290 34
11291 9
11292 46
11293 50
11294 32
11295 5
11296 2
11297 15
11298 48
11299 15
11300 18
11301 21
11302 8
11303 5
11304 63
11305 21
11306 17
11307 41
11308 19
11309 21
11310 22
11311 38
11312 15
11313 39
11314 20
11315 17
11316 38
11317 10
11318 29
11319 47
11320 46
11321 63
11322 44
11323 10
11324 64
11325 29
11326 31
11327 10
11328 22
11329 44
11330 8
11331 16
11332 58
11333 47
11334 8
11335 60
11336 43
11337 0
11338 4
11339 12
11340 40
11341 20
11342 16
11343 54
11344 0
11345 11
11346 15
11347 7
11348 22
11349 2
11350 12
11351 61
11352 1
11353 19
11354 57
11355 4
11356 28
11357 34
11358 9
11359 8
11360 13
11361 36
11362 38
11363 62
11364 36
11365 7
11366 21
11367 29
11368 8
11369 6
11370 10
11371 38
11372 18
11373 11
11374 33
11375 20
11376 8
11377 20
11378 28
11379 49
11380 11
11381 61
11382 2
11383 21
11384 21
11385 22
11386 18
11387 31
11388 2
11389 9
11390 32
11391 15
11392 40
11393 18
11394 19
11395 14
11396 7
11397 11
11398 4
11399 38
11400 5
11401 0
11402 6
11403 4
11404 47
11405 7
11406 7
11407 17
11408 57
11409 10
11410 10
11411 9
11412 48
11413 7
11414 48
11415 6
11416 34
11417 8
11418 37
11419 12
11420 9
11421 51
11422 17
11423 62
11424 9
11425 58
11426 29
11427 4
11428 57
11429 19
11430 36
11431 18
11432 0
11433 11
11434 1
11435 8
11436 42
11437 61
11438 57
11439 29
11440 7
11441 17
11442 66
11443 32
11444 38
11445 38
11446 5
11447 21
11448 53
11449 30
11450 6
11451 3
11452 61
11453 59
11454 4
11455 18
11456 38
11457 55
11458 8
11459 40
11460 44
11461 36
11462 13
11463 4
11464 30
11465 7
11466 32
11467 58
11468 21
11469 25
11470 4
11471 64
11472 62
11473 8
11474 50
11475 5
11476 3
11477 25
11478 18
11479 22
11480 24
11481 18
11482 10
11483 56
11484 18
11485 10
11486 4
11487 34
11488 18
11489 7
11490 16
11491 10
11492 8
11493 9
11494 62
11495 21
11496 17
11497 4
11498 21
11499 14
11500 29
11501 62
11502 5
11503 33
11504 26
11505 10
11506 25
11507 8
11508 62
11509 7
11510 21
11511 7
11512 14
11513 11
11514 22
11515 21
11516 9
11517 20
11518 42
11519 6
11520 10
11521 25
11522 29
11523 25
11524 4
11525 39
11526 8
11527 25
11528 4
11529 31
11530 19
11531 36
11532 5
11533 64
11534 25
11535 19
11536 8
11537 44
11538 6
11539 44
11540 17
11541 9
11542 36
11543 53
11544 31
11545 17
11546 20
11547 32
11548 21
11549 57
11550 15
11551 32
11552 45
11553 18
11554 55
11555 19
11556 22
11557 58
11558 42
11559 66
11560 39
11561 53
11562 2
11563 35
11564 1
11565 8
11566 20
11567 0
11568 20
11569 50
11570 12
11571 62
11572 10
11573 21
11574 8
11575 7
11576 39
11577 0
11578 51
11579 19
11580 29
11581 50
11582 29
11583 20
11584 4
11585 8
11586 8
11587 3
11588 8
11589 52
11590 8
11591 44
11592 8
11593 49
11594 17
11595 15
11596 38
11597 47
11598 12
11599 29
11600 9
11601 16
11602 1
11603 61
11604 38
11605 9
11606 27
11607 33
11608 5
11609 63
11610 65
11611 4
11612 14
11613 7
11614 28
11615 4
11616 49
11617 54
11618 25
11619 38
11620 15
11621 37
11622 9
11623 9
11624 20
11625 8
11626 4
11627 3
11628 21
11629 54
11630 47
11631 22
11632 61
11633 54
11634 15
11635 29
11636 9
11637 37
11638 43
11639 40
11640 44
11641 4
11642 22
11643 6
11644 39
11645 8
11646 40
11647 18
11648 41
11649 4
11650 29
11651 19
11652 32
11653 5
11654 5
11655 5
11656 5
11657 5
11658 21
11659 8
11660 4
11661 20
11662 29
11663 21
11664 6
11665 3
11666 60
11667 64
11668 2
11669 20
11670 5
11671 10
11672 5
11673 59
11674 20
11675 4
11676 21
11677 44
11678 19
11679 19
11680 7
11681 18
11682 5
11683 9
11684 9
11685 18
11686 33
11687 58
11688 36
11689 17
11690 8
11691 10
11692 48
11693 38
11694 15
11695 31
11696 5
11697 19
11698 14
11699 7
11700 10
11701 7
11702 14
11703 7
11704 33
11705 15
11706 51
11707 1
11708 17
11709 51
11710 15
11711 25
11712 12
11713 19
11714 44
11715 31
11716 4
11717 49
11718 18
11719 4
11720 15
11721 37
11722 38
11723 3
11724 50
11725 37
11726 43
11727 19
11728 4
11729 8
11730 5
11731 25
11732 8
11733 21
11734 11
11735 7
11736 16
11737 20
11738 10
11739 41
11740 19
11741 56
11742 4
11743 50
11744 21
11745 42
11746 15
11747 3
11748 14
11749 14
11750 0
11751 22
11752 27
11753 9
11754 0
11755 42
11756 20
11757 8
11758 11
11759 6
11760 25
11761 19
11762 38
11763 50
11764 7
11765 20
11766 7
11767 34
11768 11
11769 9
11770 3
11771 27
11772 20
11773 12
11774 21
11775 37
11776 6
11777 3
11778 32
11779 19
11780 33
11781 44
11782 1
11783 11
11784 4
11785 2
11786 20
11787 29
11788 5
11789 16
11790 28
11791 40
11792 9
11793 44
11794 54
11795 55
11796 0
11797 16
11798 42
11799 20
11800 3
11801 6
11802 22
11803 25
11804 29
11805 64
11806 55
11807 47
11808 4
11809 7
11810 23
11811 11
11812 62
11813 20
11814 4
11815 50
11816 16
11817 29
11818 28
11819 62
11820 38
11821 13
11822 8
11823 4
11824 15
11825 36
11826 12
11827 33
11828 10
11829 53
11830 9
11831 57
11832 57
11833 4
11834 9
11835 42
11836 17
11837 16
11838 35
11839 20
11840 24
11841 38
11842 9
11843 21
11844 27
11845 60
11846 38
11847 34
11848 67
11849 34
11850 14
11851 22
11852 10
11853 16
11854 1
11855 7
11856 25
11857 21
11858 32
11859 10
11860 15
11861 66
11862 6
11863 34
11864 2
11865 36
11866 29
11867 25
11868 42
11869 6
11870 7
11871 6
11872 29
11873 33
11874 37
11875 10
11876 47
11877 4
11878 20
11879 18
11880 63
11881 38
11882 19
11883 57
11884 39
11885 62
11886 10
11887 33
11888 40
11889 7
11890 12
11891 34
11892 7
11893 47
11894 21
11895 4
11896 6
11897 58
11898 38
11899 34
11900 19
11901 17
11902 7
11903 4
11904 20
11905 25
11906 16
11907 29
11908 33
11909 33
11910 7
11911 11
11912 6
11913 7
11914 19
11915 39
11916 54
11917 40
11918 21
11919 15
11920 8
11921 8
11922 31
11923 19
11924 33
11925 15
11926 21
11927 36
11928 25
11929 48
11930 18
11931 7
11932 36
11933 57
11934 21
11935 14
11936 7
11937 24
11938 50
11939 38
11940 5
11941 34
11942 13
11943 20
11944 61
11945 5
11946 15
11947 15
11948 7
11949 21
11950 15
11951 4
11952 2
11953 6
11954 10
11955 15
11956 40
11957 10
11958 27
11959 32
11960 37
11961 6
11962 58
11963 5
11964 55
11965 8
11966 7
11967 15
11968 27
11969 34
11970 45
11971 29
11972 8
11973 43
11974 43
11975 4
11976 19
11977 9
11978 31
11979 64
11980 17
11981 17
11982 7
11983 12
11984 17
11985 32
11986 34
11987 14
11988 22
11989 47
11990 54
11991 40
11992 2
11993 33
11994 40
11995 26
11996 15
11997 22
11998 14
11999 53
12000 8
12001 34
12002 16
12003 33
12004 7
12005 29
12006 25
12007 52
12008 44
12009 5
12010 8
12011 66
12012 33
12013 49
12014 7
12015 42
12016 6
12017 59
12018 44
12019 9
12020 19
12021 5
12022 12
12023 4
12024 40
12025 23
12026 19
12027 15
12028 11
12029 33
12030 17
12031 54
12032 31
12033 12
12034 13
12035 7
12036 45
12037 4
12038 33
12039 16
12040 53
12041 9
12042 10
12043 4
12044 47
12045 26
12046 6
12047 9
12048 20
12049 20
12050 7
12051 22
12052 3
12053 33
12054 20
12055 18
12056 20
12057 10
12058 57
12059 38
12060 50
12061 17
12062 2
12063 67
12064 4
12065 33
12066 4
12067 23
12068 7
12069 35
12070 6
12071 34
12072 15
12073 10
12074 12
12075 9
12076 33
12077 11
12078 25
12079 50
12080 20
12081 8
12082 8
12083 36
12084 15
12085 20
12086 31
12087 51
12088 60
12089 0
12090 24
12091 14
12092 5
12093 2
12094 21
12095 9
12096 4
12097 59
12098 40
12099 17
12100 12
12101 20
12102 21
12103 41
12104 62
12105 6
12106 7
12107 27
12108 9
12109 8
12110 31
12111 20
12112 5
12113 2
12114 43
12115 46
12116 20
12117 15
12118 15
12119 21
12120 25
12121 15
12122 15
12123 16
12124 29
12125 40
12126 12
12127 38
12128 23
12129 57
12130 32
12131 37
12132 8
12133 9
12134 28
12135 20
12136 35
12137 9
12138 38
12139 21
12140 38
12141 46
12142 41
12143 18
12144 4
12145 50
12146 31
12147 8
12148 9
12149 15
12150 58
12151 43
12152 36
12153 6
12154 20
12155 6
12156 6
12157 20
12158 44
12159 37
12160 9
12161 8
12162 40
12163 15
12164 7
12165 32
12166 56
12167 15
12168 8
12169 4
12170 4
12171 1
12172 19
12173 17
12174 57
12175 25
12176 7
12177 16
12178 50
12179 7
12180 51
12181 20
12182 19
12183 14
12184 39
12185 5
12186 33
12187 35
12188 12
12189 22
12190 5
12191 37
12192 36
12193 2
12194 29
12195 9
12196 60
12197 57
12198 63
12199 0
12200 7
12201 0
12202 0
12203 28
12204 25
12205 21
12206 15
12207 37
12208 9
12209 64
12210 22
12211 9
12212 20
12213 15
12214 54
12215 33
12216 48
12217 2
12218 33
12219 19
12220 28
12221 8
12222 6
12223 44
12224 7
12225 34
12226 38
12227 29
12228 20
12229 6
12230 9
12231 45
12232 21
12233 17
12234 4
12235 47
12236 54
12237 25
12238 17
12239 38
12240 20
12241 66
12242 11
12243 48
12244 4
12245 40
12246 21
12247 25
12248 22
12249 25
12250 32
12251 4
12252 15
12253 36
12254 33
12255 47
12256 20
12257 33
12258 20
12259 38
12260 14
12261 33
12262 3
12263 31
12264 0
12265 56
12266 20
12267 20
12268 1
12269 36
12270 9
12271 15
12272 6
12273 6
12274 27
12275 34
12276 8
12277 55
12278 25
12279 14
12280 49
12281 5
12282 8
12283 11
12284 15
12285 52
12286 22
12287 38
12288 34
12289 5
12290 12
12291 10
12292 3
12293 4
12294 20
12295 21
12296 10
12297 4
12298 44
12299 41
12300 25
12301 10
12302 15
12303 41
12304 41
12305 53
12306 10
12307 12
12308 40
12309 25
12310 5
12311 9
12312 37
12313 4
12314 63
12315 51
12316 39
12317 10
12318 21
12319 15
12320 38
12321 16
12322 33
12323 17
12324 44
12325 39
12326 11
12327 49
12328 40
12329 37
12330 17
12331 50
12332 20
12333 36
12334 14
12335 58
12336 6
12337 49
12338 20
12339 0
12340 16
12341 10
12342 19
12343 63
12344 6
12345 22
12346 20
12347 32
12348 10
12349 19
12350 9
12351 33
12352 21
12353 11
12354 34
12355 4
12356 18
12357 8
12358 8
12359 29
12360 4
12361 19
12362 8
12363 3
12364 12
12365 20
12366 14
12367 27
12368 0
12369 10
12370 20
12371 21
12372 52
12373 25
12374 57
12375 17
12376 5
12377 20
12378 2
12379 15
12380 31
12381 22
12382 45
12383 20
12384 41
12385 9
12386 38
12387 40
12388 18
12389 14
12390 33
12391 5
12392 17
12393 16
12394 4
12395 33
12396 11
12397 64
12398 14
12399 43
12400 10
12401 64
12402 16
12403 18
12404 64
12405 15
12406 49
12407 27
12408 25
12409 22
12410 34
12411 64
12412 9
12413 30
12414 17
12415 21
12416 5
12417 33
12418 7
12419 33
12420 22
12421 22
12422 64
12423 63
12424 33
12425 21
12426 8
12427 40
12428 25
12429 39
12430 18
12431 7
12432 18
12433 62
12434 17
12435 8
12436 25
12437 14
12438 0
12439 44
12440 38
12441 1
12442 21
12443 38
12444 8
12445 2
12446 14
12447 16
12448 8
12449 17
12450 15
12451 38
12452 19
12453 63
12454 20
12455 2
12456 62
12457 10
12458 44
12459 9
12460 3
12461 63
12462 11
12463 19
12464 20
12465 63
12466 34
12467 2
12468 33
12469 20
12470 14
12471 4
12472 15
12473 25
12474 20
12475 33
12476 4
12477 15
12478 37
12479 25
12480 14
12481 15
12482 38
12483 17
12484 2
12485 2
12486 10
12487 7
12488 9
12489 6
12490 19
12491 18
12492 17
12493 34
12494 7
12495 18
12496 59
12497 19
12498 15
12499 20
12500 10
12501 40
12502 3
12503 35
12504 18
12505 20
12506 4
12507 7
12508 43
12509 15
12510 6
12511 3
12512 6
12513 45
12514 20
12515 0
12516 24
12517 7
12518 10
12519 17
12520 12
12521 17
12522 30
12523 19
12524 36
12525 43
12526 33
12527 5
12528 9
12529 31
12530 64
12531 57
12532 19
12533 44
12534 6
12535 33
12536 9
12537 33
12538 8
12539 15
12540 8
12541 2
12542 29
12543 16
12544 10
12545 11
12546 24
12547 6
12548 25
12549 25
12550 22
12551 35
12552 61
12553 6
12554 48
12555 19
12556 7
12557 48
12558 23
12559 33
12560 14
12561 48
12562 40
12563 14
12564 22
12565 57
12566 28
12567 42
12568 21
12569 9
12570 16
12571 9
12572 21
12573 8
12574 34
12575 61
12576 15
12577 7
12578 16
12579 44
12580 38
12581 29
12582 7
12583 11
12584 1
12585 27
12586 9
12587 17
12588 10
12589 65
12590 10
12591 6
12592 58
12593 28
12594 29
12595 11
12596 9
12597 15
12598 13
12599 29
12600 5
12601 24
12602 36
12603 59
12604 20
12605 7
12606 9
12607 46
12608 7
12609 9
12610 20
12611 15
12612 34
12613 1
12614 15
12615 38
12616 20
12617 63
12618 4
12619 20
12620 3
12621 57
12622 20
12623 36
12624 17
12625 33
12626 5
12627 60
12628 36
12629 19
12630 21
12631 9
12632 11
12633 21
12634 8
12635 48
12636 12
12637 15
12638 20
12639 8
12640 33
12641 32
12642 9
12643 6
12644 38
12645 47
12646 25
12647 10
12648 38
12649 44
12650 49
12651 5
12652 25
12653 15
12654 57
12655 21
12656 9
12657 29
12658 8
12659 11
12660 29
12661 15
12662 16
12663 52
12664 13
12665 17
12666 18
12667 38
12668 37
12669 20
12670 19
12671 49
12672 38
12673 15
12674 9
12675 38
12676 21
12677 49
12678 38
12679 28
12680 17
12681 15
12682 25
12683 24
12684 12
12685 13
12686 49
12687 25
12688 21
12689 4
12690 51
12691 6
12692 15
12693 21
12694 59
12695 33
12696 64
12697 38
12698 37
12699 25
12700 9
12701 15
12702 44
12703 16
12704 33
12705 62
12706 1
12707 17
12708 9
12709 20
12710 7
12711 56
12712 28
12713 33
12714 66
12715 32
12716 9
12717 16
12718 7
12719 8
12720 29
12721 24
12722 7
12723 21
12724 8
12725 16
12726 37
12727 0
12728 45
12729 6
12730 15
12731 17
12732 19
12733 39
12734 21
12735 6
12736 45
12737 29
12738 9
12739 52
12740 12
12741 7
12742 8
12743 44
12744 2
12745 8
12746 26
12747 8
12748 15
12749 32
12750 22
12751 48
12752 5
12753 25
12754 20
12755 49
12756 17
12757 59
12758 60
12759 0
12760 45
12761 63
12762 29
12763 39
12764 38
12765 18
12766 41
12767 9
12768 5
12769 7
12770 62
12771 44
12772 20
12773 16
12774 19
12775 25
12776 58
12777 9
12778 38
12779 19
12780 34
12781 4
12782 64
12783 25
12784 22
12785 8
12786 25
12787 9
12788 46
12789 46
12790 10
12791 8
12792 33
12793 7
12794 12
12795 22
12796 0
12797 44
12798 4
12799 6
12800 52
12801 8
12802 54
12803 5
12804 21
12805 34
12806 59
12807 33
12808 50
12809 4
12810 33
12811 16
12812 1
12813 42
12814 29
12815 12
12816 14
12817 5
12818 33
12819 21
12820 46
12821 62
12822 34
12823 21
12824 18
12825 7
12826 13
12827 33
12828 36
12829 19
12830 4
12831 36
12832 14
12833 25
12834 8
12835 9
12836 4
12837 33
12838 8
12839 27
12840 6
12841 17
12842 54
12843 21
12844 19
12845 47
12846 36
12847 23
12848 34
12849 17
12850 15
12851 62
12852 29
12853 5
12854 19
12855 15
12856 36
12857 4
12858 20
12859 44
12860 38
12861 32
12862 54
12863 44
12864 35
12865 9
12866 22
12867 9
12868 18
12869 16
12870 7
12871 0
12872 7
12873 61
12874 6
12875 4
12876 44
12877 13
12878 48
12879 22
12880 2
12881 20
12882 31
12883 22
12884 18
12885 8
12886 55
12887 48
12888 4
12889 5
12890 6
12891 29
12892 4
12893 52
12894 54
12895 8
12896 46
12897 29
12898 13
12899 2
12900 51
12901 41
12902 67
12903 36
12904 3
12905 9
12906 49
12907 41
12908 40
12909 20
12910 53
12911 26
12912 18
12913 17
12914 8
12915 8
12916 12
12917 17
12918 29
12919 6
12920 15
12921 10
12922 8
12923 9
12924 3
12925 6
12926 8
12927 7
12928 37
12929 64
12930 9
12931 14
12932 7
12933 25
12934 29
12935 12
12936 36
12937 44
12938 33
12939 55
12940 17
12941 5
12942 7
12943 45
12944 22
12945 3
12946 7
12947 15
12948 31
12949 18
12950 20
12951 42
12952 48
12953 20
12954 18
12955 12
12956 7
12957 36
12958 7
12959 25
12960 25
12961 17
12962 4
12963 6
12964 20
12965 12
12966 19
12967 31
12968 32
12969 40
12970 15
12971 57
12972 40
12973 40
12974 21
12975 25
12976 9
12977 25
12978 2
12979 47
12980 30
12981 18
12982 9
12983 15
12984 38
12985 8
12986 9
12987 21
12988 12
12989 8
12990 32
12991 28
12992 38
12993 6
12994 20
12995 14
12996 6
12997 2
12998 8
12999 34
13000 29
13001 22
13002 20
13003 44
13004 35
13005 20
13006 38
13007 9
13008 12
13009 22
13010 24
13011 10
13012 6
13013 33
13014 8
13015 39
13016 3
13017 8
13018 40
13019 8
13020 15
13021 48
13022 32
13023 1
13024 9
13025 16
13026 15
13027 21
13028 58
13029 36
13030 33
13031 4
13032 4
13033 29
13034 4
13035 6
13036 48
13037 5
13038 6
13039 8
13040 31
13041 12
13042 35
13043 8
13044 57
13045 57
13046 43
13047 64
13048 40
13049 54
13050 18
13051 20
13052 15
13053 35
13054 19
13055 11
13056 11
13057 4
13058 8
13059 46
13060 19
13061 0
13062 26
13063 9
13064 22
13065 10
13066 3
13067 12
13068 4
13069 25
13070 49
13071 29
13072 4
13073 50
13074 67
13075 7
13076 38
13077 55
13078 45
13079 7
13080 44
13081 51
13082 19
13083 21
13084 13
13085 46
13086 17
13087 5
13088 12
13089 21
13090 38
13091 19
13092 65
13093 8
13094 21
13095 57
13096 5
13097 29
13098 8
13099 8
13100 2
13101 13
13102 5
13103 6
13104 7
13105 3
13106 42
13107 22
13108 15
13109 20
13110 38
13111 6
13112 53
13113 16
13114 12
13115 36
13116 55
13117 24
13118 15
13119 6
13120 31
13121 44
13122 20
13123 19
13124 43
13125 6
13126 21
13127 20
13128 40
13129 7
13130 36
13131 9
13132 3
13133 15
13134 54
13135 42
13136 22
13137 12
13138 7
13139 2
13140 36
13141 8
13142 32
13143 18
13144 20
13145 38
13146 17
13147 9
13148 20
13149 4
13150 27
13151 21
13152 4
13153 10
13154 29
13155 66
13156 3
13157 10
13158 12
13159 9
13160 11
13161 38
13162 21
13163 41
13164 15
13165 40
13166 9
13167 20
13168 38
13169 9
13170 13
13171 47
13172 9
13173 25
13174 12
13175 3
13176 6
13177 44
13178 22
13179 33
13180 8
13181 10
13182 4
13183 50
13184 9
13185 9
13186 17
13187 66
13188 57
13189 9
13190 16
13191 40
13192 14
13193 49
13194 0
13195 16
13196 7
13197 6
13198 18
13199 4
13200 16
13201 4
13202 61
13203 38
13204 17
13205 33
13206 16
13207 4
13208 30
13209 50
13210 5
13211 14
13212 17
13213 33
13214 31
13215 14
13216 4
13217 39
13218 9
13219 38
13220 62
13221 30
13222 47
13223 19
13224 41
13225 13
13226 6
13227 21
13228 62
13229 44
13230 36
13231 47
13232 57
13233 18
13234 0
13235 7
13236 8
13237 20
13238 11
13239 15
13240 34
13241 15
13242 38
13243 48
13244 4
13245 31
13246 7
13247 19
13248 22
13249 43
13250 32
13251 36
13252 4
13253 10
13254 20
13255 7
13256 34
13257 12
13258 18
13259 16
13260 67
13261 52
13262 5
13263 0
13264 48
13265 40
13266 32
13267 1
13268 24
13269 9
13270 4
13271 22
13272 20
13273 31
13274 25
13275 10
13276 25
13277 4
13278 9
13279 2
13280 36
13281 37
13282 20
13283 17
13284 20
13285 34
13286 64
13287 18
13288 57
13289 1
13290 4
13291 9
13292 25
13293 4
13294 17
13295 66
13296 5
13297 20
13298 12
13299 63
13300 18
13301 13
13302 17
13303 45
13304 3
13305 29
13306 16
13307 21
13308 26
13309 40
13310 9
13311 44
13312 32
13313 4
13314 32
13315 19
13316 36
13317 4
13318 4
13319 7
13320 34
13321 27
13322 33
13323 11
13324 18
13325 16
13326 25
13327 22
13328 8
13329 21
13330 44
13331 21
13332 20
13333 3
13334 36
13335 25
13336 36
13337 25
13338 31
13339 19
13340 21
13341 37
13342 19
13343 10
13344 26
13345 19
13346 18
13347 21
13348 9
13349 56
13350 20
13351 42
13352 7
13353 3
13354 49
13355 37
13356 25
13357 12
13358 17
13359 25
13360 50
13361 50
13362 41
13363 63
13364 10
13365 28
13366 3
13367 22
13368 21
13369 4
13370 44
13371 23
13372 8
13373 42
13374 43
13375 14
13376 3
13377 16
13378 25
13379 40
13380 40
13381 7
13382 62
13383 47
13384 12
13385 43
13386 16
13387 28
13388 20
13389 44
13390 25
13391 12
13392 19
13393 27
13394 9
13395 5
13396 22
13397 61
13398 8
13399 9
13400 25
13401 16
13402 5
13403 19
13404 61
13405 6
13406 8
13407 44
13408 16
13409 7
13410 9
13411 29
13412 53
13413 36
13414 64
13415 40
13416 25
13417 9
13418 28
13419 3
13420 23
13421 21
13422 45
13423 16
13424 30
13425 30
13426 12
13427 0
13428 38
13429 7
13430 2
13431 6
13432 55
13433 40
13434 2
13435 10
13436 47
13437 61
13438 8
13439 7
13440 20
13441 15
13442 53
13443 47
13444 51
13445 30
13446 6
13447 56
13448 29
13449 50
13450 14
13451 38
13452 58
13453 21
13454 10
13455 9
13456 6
13457 20
13458 42
13459 9
13460 15
13461 16
13462 21
13463 2
13464 7
13465 6
