0 0
1 1
2 2
3 3
4 3
5 4
6 5
7 6
8 7
9 8
10 9
11 10
12 10
13 0
14 1
15 3
16 11
17 3
18 12
19 6
20 11
21 12
22 11
23 1
24 11
25 0
26 13
27 1
28 14
29 3
30 10
31 11
32 15
33 5
34 1
35 11
36 7
37 13
38 11
39 10
40 16
41 3
42 11
43 17
44 13
45 0
46 18
47 18
48 6
49 0
50 19
51 12
52 15
53 1
54 20
55 21
56 3
57 13
58 9
59 12
60 18
61 10
62 22
63 6
64 12
65 6
66 23
67 24
68 11
69 12
70 22
71 1
72 3
73 12
74 19
75 25
76 12
77 24
78 10
79 6
80 5
81 1
82 2
83 26
84 6
85 0
86 1
87 6
88 27
89 12
90 1
91 3
92 24
93 15
94 0
95 11
96 3
97 0
98 24
99 6
100 1
101 1
102 28
103 26
104 1
105 8
106 24
107 11
108 26
109 13
110 12
111 0
112 20
113 1
114 29
115 3
116 12
117 10
118 14
119 6
120 21
121 30
122 6
123 3
124 31
125 1
126 12
127 32
128 19
129 18
130 33
131 24
132 34
133 34
134 13
135 3
136 1
137 10
138 6
139 35
140 3
141 1
142 6
143 10
144 3
145 10
146 12
147 6
148 12
149 24
150 0
151 24
152 36
153 19
154 23
155 24
156 24
157 12
158 1
159 0
160 3
161 0
162 24
163 12
164 11
165 24
166 6
167 33
168 6
169 6
170 10
171 1
172 15
173 6
174 12
175 12
176 34
177 37
178 13
179 32
180 24
181 6
182 18
183 37
184 22
185 22
186 15
187 1
188 6
189 25
190 19
191 38
192 17
193 19
194 11
195 1
196 33
197 11
198 12
199 15
200 37
201 13
202 33
203 12
204 6
205 5
206 36
207 34
208 18
209 3
210 3
211 7
212 39
213 1
214 1
215 0
216 26
217 33
218 18
219 3
220 3
221 23
222 30
223 1
224 24
225 6
226 24
227 3
228 1
229 40
230 1
231 11
232 8
233 32
234 10
235 27
236 14
237 19
238 6
239 3
240 24
241 12
242 6
243 1
244 5
245 3
246 0
247 18
248 24
249 5
250 1
251 13
252 29
253 41
254 11
255 15
256 20
257 0
258 11
259 12
260 6
261 16
262 1
263 6
264 30
265 42
266 3
267 6
268 12
269 1
270 3
271 6
272 24
273 3
274 18
275 1
276 1
277 3
278 11
279 6
280 11
281 12
282 14
283 27
284 43
285 18
286 6
287 12
288 12
289 7
290 6
291 13
292 24
293 42
294 1
295 10
296 1
297 6
298 3
299 6
300 6
301 44
302 1
303 1
304 23
305 18
306 4
307 10
308 11
309 1
310 11
311 3
312 0
313 6
314 12
315 3
316 24
317 6
318 27
319 3
320 6
321 6
322 6
323 12
324 24
325 18
326 3
327 10
328 11
329 1
330 18
331 11
332 13
333 0
334 1
335 21
336 1
337 11
338 19
339 45
340 12
341 3
342 11
343 10
344 11
345 13
346 5
347 10
348 13
349 10
350 46
351 7
352 3
353 3
354 10
355 6
356 22
357 11
358 1
359 10
360 12
361 12
362 11
363 3
364 3
365 42
366 11
367 6
368 10
369 3
370 11
371 6
372 6
373 17
374 11
375 6
376 3
377 24
378 5
379 1
380 47
381 3
382 24
383 24
384 36
385 3
386 18
387 12
388 46
389 26
390 1
391 6
392 11
393 21
394 1
395 33
396 13
397 11
398 6
399 1
400 24
401 11
402 12
403 41
404 34
405 24
406 6
407 12
408 3
409 30
410 23
411 15
412 6
413 3
414 45
415 5
416 11
417 3
418 6
419 3
420 11
421 10
422 1
423 6
424 37
425 24
426 5
427 5
428 10
429 0
430 0
431 11
432 30
433 30
434 12
435 1
436 3
437 43
438 11
439 10
440 33
441 19
442 6
443 6
444 3
445 3
446 26
447 28
448 3
449 3
450 6
451 11
452 1
453 22
454 5
455 13
456 3
457 7
458 7
459 12
460 5
461 6
462 2
463 3
464 7
465 11
466 10
467 3
468 11
469 3
470 1
471 3
472 34
473 21
474 0
475 1
476 11
477 0
478 0
479 11
480 3
481 2
482 11
483 13
484 12
485 15
486 8
487 47
488 1
489 11
490 26
491 18
492 15
493 3
494 18
495 12
496 0
497 11
498 6
499 7
500 36
501 6
502 12
503 11
504 11
505 0
506 1
507 3
508 6
509 10
510 22
511 0
512 6
513 6
514 10
515 1
516 38
517 24
518 24
519 1
520 46
521 27
522 3
523 21
524 1
525 16
526 6
527 6
528 1
529 3
530 1
531 6
532 30
533 0
534 18
535 46
536 6
537 6
538 3
539 1
540 1
541 35
542 6
543 0
544 15
545 2
546 1
547 6
548 1
549 47
550 1
551 0
552 3
553 3
554 13
555 12
556 18
557 11
558 11
559 1
560 1
561 1
562 46
563 1
564 11
565 3
566 12
567 11
568 3
569 6
570 24
571 29
572 13
573 24
574 36
575 18
576 12
577 11
578 1
579 5
580 40
581 12
582 6
583 24
584 24
585 7
586 23
587 3
588 30
589 11
590 1
591 6
592 10
593 11
594 7
595 15
596 3
597 12
598 1
599 24
600 7
601 18
602 16
603 18
604 1
605 26
606 6
607 18
608 11
609 18
610 37
611 11
612 7
613 32
614 1
615 1
616 45
617 1
618 10
619 18
620 19
621 6
622 6
623 6
624 1
625 10
626 1
627 1
628 48
629 1
630 24
631 3
632 6
633 1
634 19
635 30
636 33
637 1
638 11
639 24
640 11
641 10
642 34
643 18
644 1
645 24
646 5
647 19
648 3
649 13
650 11
651 18
652 12
653 12
654 47
655 22
656 3
657 47
658 11
659 6
660 11
661 11
662 18
663 49
664 25
665 11
666 4
667 31
668 12
669 1
670 39
671 1
672 0
673 18
674 21
675 18
676 1
677 11
678 6
679 11
680 1
681 24
682 13
683 37
684 11
685 0
686 11
687 9
688 12
689 3
690 31
691 16
692 23
693 6
694 25
695 5
696 24
697 9
698 11
699 17
700 14
701 11
702 11
703 1
704 17
705 27
706 1
707 1
708 12
709 47
710 32
711 11
712 12
713 5
714 11
715 13
716 24
717 11
718 3
719 3
720 0
721 0
722 19
723 18
724 10
725 1
726 1
727 13
728 14
729 1
730 11
731 11
732 11
733 1
734 13
735 7
736 12
737 1
738 32
739 1
740 18
741 7
742 3
743 3
744 3
745 3
746 18
747 1
748 1
749 13
750 13
751 0
752 22
753 24
754 40
755 7
756 0
757 12
758 11
759 11
760 33
761 22
762 3
763 12
764 3
765 0
766 3
767 1
768 6
769 12
770 1
771 1
772 32
773 25
774 24
775 11
776 11
777 24
778 6
779 11
780 47
781 11
782 6
783 3
784 6
785 6
786 18
787 13
788 24
789 1
790 9
791 39
792 3
793 14
794 1
795 0
796 1
797 10
798 10
799 18
800 12
801 10
802 3
803 15
804 1
805 3
806 24
807 6
808 46
809 24
810 3
811 19
812 11
813 37
814 35
815 13
816 7
817 11
818 19
819 26
820 6
821 18
822 47
823 6
824 34
825 12
826 3
827 15
828 11
829 1
830 11
831 13
832 0
833 6
834 32
835 10
836 1
837 11
838 32
839 34
840 42
841 0
842 6
843 12
844 47
845 42
846 13
847 3
848 1
849 1
850 3
851 6
852 43
853 33
854 18
855 12
856 1
857 37
858 18
859 1
860 1
861 24
862 32
863 6
864 1
865 11
866 3
867 20
868 50
869 1
870 35
871 26
872 3
873 3
874 12
875 14
876 3
877 31
878 12
879 33
880 0
881 3
882 19
883 1
884 24
885 31
886 11
887 11
888 31
889 13
890 6
891 25
892 24
893 11
894 0
895 24
896 45
897 18
898 32
899 12
900 3
901 11
902 17
903 1
904 5
905 6
906 42
907 12
908 1
909 5
910 6
911 11
912 1
913 1
914 11
915 6
916 0
917 12
918 30
919 24
920 12
921 1
922 6
923 6
924 12
925 1
926 14
927 0
928 1
929 49
930 12
931 33
932 41
933 0
934 3
935 6
936 0
937 18
938 24
939 15
940 1
941 19
942 6
943 10
944 0
945 1
946 42
947 13
948 43
949 48
950 3
951 3
952 11
953 18
954 16
955 6
956 51
957 1
958 6
959 6
960 1
961 1
962 15
963 7
964 6
965 15
966 1
967 10
968 6
969 45
970 11
971 11
972 24
973 1
974 27
975 0
976 3
977 1
978 12
979 11
980 6
981 0
982 13
983 15
984 1
985 42
986 20
987 47
988 18
989 40
990 6
991 27
992 19
993 13
994 15
995 0
996 3
997 9
998 1
999 12
1000 11
1001 9
1002 6
1003 12
1004 12
1005 17
1006 1
1007 3
1008 3
1009 23
1010 6
1011 10
1012 11
1013 11
1014 24
1015 1
1016 23
1017 0
1018 12
1019 44
1020 7
1021 1
1022 14
1023 10
1024 24
1025 37
1026 7
1027 11
1028 1
1029 34
1030 24
1031 24
1032 31
1033 24
1034 36
1035 0
1036 0
1037 52
1038 14
1039 19
1040 43
1041 43
1042 6
1043 45
1044 41
1045 13
1046 10
1047 42
1048 1
1049 24
1050 3
1051 18
1052 0
1053 0
1054 19
1055 1
1056 1
1057 13
1058 1
1059 14
1060 13
1061 26
1062 7
1063 1
1064 10
1065 1
1066 6
1067 6
1068 1
1069 1
1070 6
1071 30
1072 3
1073 24
1074 3
1075 12
1076 15
1077 3
1078 6
1079 11
1080 11
1081 13
1082 5
1083 12
1084 6
1085 0
1086 1
1087 15
1088 11
1089 0
1090 18
1091 1
1092 40
1093 3
1094 32
1095 19
1096 24
1097 11
1098 18
1099 0
1100 18
1101 12
1102 1
1103 24
1104 37
1105 19
1106 32
1107 3
1108 23
1109 24
1110 11
1111 10
1112 24
1113 1
1114 1
1115 11
1116 31
1117 12
1118 3
1119 6
1120 42
1121 13
1122 18
1123 24
1124 41
1125 0
1126 6
1127 46
1128 11
1129 6
1130 19
1131 27
1132 41
1133 27
1134 0
1135 0
1136 11
1137 6
1138 11
1139 15
1140 6
1141 13
1142 27
1143 3
1144 1
1145 3
1146 11
1147 1
1148 0
1149 45
1150 39
1151 10
1152 0
1153 1
1154 6
1155 6
1156 24
1157 1
1158 6
1159 28
1160 12
1161 3
1162 3
1163 12
1164 48
1165 19
1166 24
1167 12
1168 0
1169 5
1170 1
1171 3
1172 3
1173 1
1174 32
1175 18
1176 11
1177 14
1178 43
1179 1
1180 11
1181 25
1182 51
1183 10
1184 24
1185 11
1186 1
1187 6
1188 13
1189 18
1190 1
1191 11
1192 31
1193 3
1194 10
1195 3
1196 18
1197 24
1198 2
1199 1
1200 27
1201 10
1202 13
1203 11
1204 11
1205 0
1206 19
1207 1
1208 1
1209 0
1210 6
1211 11
1212 34
1213 1
1214 0
1215 1
1216 23
1217 19
1218 1
1219 45
1220 1
1221 1
1222 11
1223 20
1224 10
1225 24
1226 7
1227 6
1228 31
1229 0
1230 13
1231 3
1232 23
1233 3
1234 18
1235 36
1236 32
1237 1
1238 24
1239 2
1240 3
1241 1
1242 6
1243 1
1244 1
1245 3
1246 6
1247 41
1248 12
1249 41
1250 12
1251 15
1252 15
1253 24
1254 19
1255 19
1256 12
1257 24
1258 12
1259 14
1260 24
1261 3
1262 12
1263 6
1264 1
1265 13
1266 11
1267 34
1268 12
1269 32
1270 12
1271 24
1272 1
1273 6
1274 0
1275 3
1276 13
1277 0
1278 11
1279 24
1280 13
1281 0
1282 11
1283 12
1284 11
1285 18
1286 30
1287 21
1288 6
1289 0
1290 3
1291 6
1292 3
1293 1
1294 19
1295 1
1296 3
1297 0
1298 11
1299 3
1300 18
1301 11
1302 11
1303 23
1304 0
1305 46
1306 13
1307 11
1308 19
1309 11
1310 6
1311 24
1312 3
1313 3
1314 0
1315 42
1316 27
1317 14
1318 6
1319 39
1320 11
1321 26
1322 3
1323 3
1324 12
1325 12
1326 18
1327 49
1328 18
1329 15
1330 9
1331 2
1332 7
1333 26
1334 24
1335 12
1336 1
1337 11
1338 0
1339 6
1340 6
1341 11
1342 24
1343 0
1344 1
1345 13
1346 0
1347 18
1348 0
1349 10
1350 12
1351 17
1352 1
1353 1
1354 6
1355 11
1356 11
1357 52
1358 24
1359 13
1360 6
1361 0
1362 24
1363 11
1364 2
1365 24
1366 11
1367 7
1368 1
1369 12
1370 23
1371 13
1372 14
1373 10
1374 24
1375 15
1376 42
1377 21
1378 7
1379 15
1380 13
1381 1
1382 0
1383 24
1384 18
1385 0
1386 33
1387 30
1388 12
1389 42
1390 24
1391 11
1392 3
1393 11
1394 18
1395 6
1396 9
1397 0
1398 36
1399 36
1400 30
1401 11
1402 3
1403 44
1404 1
1405 12
1406 1
1407 3
1408 3
1409 4
1410 41
1411 6
1412 13
1413 11
1414 12
1415 6
1416 11
1417 13
1418 11
1419 6
1420 10
1421 1
1422 6
1423 6
1424 15
1425 3
1426 6
1427 45
1428 11
1429 12
1430 11
1431 13
1432 24
1433 11
1434 6
1435 3
1436 15
1437 36
1438 24
1439 3
1440 13
1441 10
1442 0
1443 23
1444 24
1445 6
1446 11
1447 21
1448 11
1449 28
1450 6
1451 6
1452 12
1453 3
1454 30
1455 43
1456 1
1457 3
1458 6
1459 24
1460 1
1461 31
1462 7
1463 19
1464 30
1465 45
1466 11
1467 18
1468 45
1469 14
1470 16
1471 1
1472 24
1473 20
1474 6
1475 1
1476 11
1477 18
1478 22
1479 19
1480 12
1481 1
1482 12
1483 12
1484 11
1485 46
1486 6
1487 1
1488 24
1489 13
1490 1
1491 11
1492 42
1493 40
1494 10
1495 13
1496 6
1497 11
1498 18
1499 28
1500 10
1501 6
1502 24
1503 0
1504 26
1505 11
1506 24
1507 31
1508 0
1509 18
1510 6
1511 1
1512 6
1513 24
1514 11
1515 0
1516 10
1517 24
1518 6
1519 12
1520 1
1521 24
1522 15
1523 13
1524 1
1525 23
1526 1
1527 12
1528 6
1529 3
1530 7
1531 1
1532 11
1533 3
1534 3
1535 7
1536 12
1537 1
1538 24
1539 44
1540 41
1541 0
1542 0
1543 12
1544 3
1545 11
1546 3
1547 16
1548 18
1549 18
1550 0
1551 3
1552 1
1553 13
1554 11
1555 24
1556 15
1557 24
1558 11
1559 1
1560 11
1561 12
1562 50
1563 42
1564 3
1565 6
1566 11
1567 11
1568 0
1569 24
1570 27
1571 1
1572 1
1573 6
1574 11
1575 3
1576 1
1577 1
1578 3
1579 6
1580 14
1581 3
1582 6
1583 3
1584 15
1585 11
1586 11
1587 40
1588 24
1589 42
1590 27
1591 11
1592 12
1593 11
1594 23
1595 1
1596 46
1597 3
1598 9
1599 38
1600 40
1601 24
1602 1
1603 11
1604 14
1605 12
1606 41
1607 1
1608 6
1609 12
1610 18
1611 24
1612 11
1613 3
1614 15
1615 6
1616 8
1617 43
1618 13
1619 10
1620 45
1621 1
1622 18
1623 0
1624 13
1625 12
1626 30
1627 11
1628 6
1629 7
1630 1
1631 3
1632 1
1633 11
1634 24
1635 1
1636 37
1637 11
1638 24
1639 6
1640 11
1641 1
1642 31
1643 11
1644 19
1645 12
1646 6
1647 36
1648 12
1649 34
1650 11
1651 13
1652 6
1653 11
1654 0
1655 3
1656 12
1657 1
1658 13
1659 6
1660 1
1661 6
1662 12
1663 3
1664 13
1665 33
1666 20
1667 30
1668 3
1669 13
1670 6
1671 6
1672 21
1673 33
1674 1
1675 6
1676 47
1677 9
1678 11
1679 2
1680 11
1681 3
1682 6
1683 13
1684 2
1685 30
1686 12
1687 6
1688 1
1689 32
1690 6
1691 11
1692 41
1693 11
1694 1
1695 36
1696 21
1697 9
1698 13
1699 19
1700 11
1701 49
1702 1
1703 1
1704 0
1705 4
1706 11
1707 0
1708 11
1709 6
1710 26
1711 52
1712 11
1713 19
1714 11
1715 13
1716 34
1717 1
1718 3
1719 11
1720 13
1721 30
1722 11
1723 3
1724 13
1725 12
1726 18
1727 11
1728 14
1729 17
1730 1
1731 38
1732 1
1733 11
1734 33
1735 10
1736 11
1737 24
1738 12
1739 18
1740 24
1741 11
1742 15
1743 13
1744 19
1745 0
1746 30
1747 11
1748 18
1749 7
1750 12
1751 6
1752 12
1753 3
1754 11
1755 1
1756 12
1757 16
1758 0
1759 13
1760 27
1761 19
1762 19
1763 10
1764 1
1765 19
1766 1
1767 1
1768 6
1769 11
1770 36
1771 6
1772 11
1773 21
1774 30
1775 3
1776 1
1777 1
1778 12
1779 6
1780 1
1781 1
1782 24
1783 10
1784 19
1785 11
1786 30
1787 3
1788 24
1789 48
1790 24
1791 13
1792 38
1793 11
1794 3
1795 3
1796 6
1797 24
1798 30
1799 1
1800 1
1801 10
1802 0
1803 3
1804 46
1805 18
1806 16
1807 17
1808 6
1809 31
1810 5
1811 24
1812 37
1813 1
1814 0
1815 1
1816 2
1817 10
1818 5
1819 40
1820 1
1821 3
1822 6
1823 1
1824 12
1825 30
1826 6
1827 1
1828 14
1829 46
1830 13
1831 36
1832 3
1833 1
1834 6
1835 6
1836 6
1837 12
1838 10
1839 11
1840 41
1841 20
1842 24
1843 6
1844 0
1845 6
1846 9
1847 33
1848 11
1849 24
1850 6
1851 1
1852 1
1853 0
1854 1
1855 1
1856 3
1857 3
1858 1
1859 4
1860 34
1861 1
1862 39
1863 11
1864 18
1865 3
1866 6
1867 10
1868 11
1869 5
1870 11
1871 3
1872 22
1873 10
1874 10
1875 8
1876 41
1877 11
1878 39
1879 6
1880 6
1881 1
1882 1
1883 1
1884 11
1885 1
1886 11
1887 11
1888 22
1889 0
1890 11
1891 11
1892 3
1893 34
1894 6
1895 15
1896 1
1897 7
1898 20
1899 0
1900 10
1901 41
1902 6
1903 13
1904 11
1905 10
1906 24
1907 26
1908 11
1909 3
1910 0
1911 42
1912 3
1913 3
1914 15
1915 2
1916 0
1917 3
1918 1
1919 24
1920 19
1921 1
1922 18
1923 6
1924 12
1925 6
1926 0
1927 0
1928 1
1929 5
1930 0
1931 6
1932 1
1933 13
1934 37
1935 19
1936 1
1937 12
1938 23
1939 20
1940 22
1941 18
1942 6
1943 13
1944 11
1945 23
1946 0
1947 47
1948 10
1949 42
1950 13
1951 18
1952 18
1953 10
1954 10
1955 26
1956 5
1957 18
1958 6
1959 6
1960 27
1961 29
1962 38
1963 6
1964 10
1965 13
1966 24
1967 27
1968 19
1969 1
1970 12
1971 12
1972 45
1973 14
1974 24
1975 3
1976 14
1977 11
1978 6
1979 22
1980 11
1981 1
1982 23
1983 1
1984 1
1985 11
1986 14
1987 1
1988 39
1989 1
1990 12
1991 11
1992 0
1993 1
1994 46
1995 13
1996 6
1997 32
1998 12
1999 11
2000 1
2001 3
2002 1
2003 37
2004 9
2005 16
2006 6
2007 18
2008 24
2009 5
2010 0
2011 11
2012 14
2013 1
2014 49
2015 12
2016 1
2017 6
2018 3
2019 1
2020 15
2021 30
2022 18
2023 24
2024 11
2025 7
2026 46
2027 12
2028 12
2029 34
2030 3
2031 26
2032 1
2033 3
2034 18
2035 3
2036 3
2037 12
2038 1
2039 42
2040 34
2041 30
2042 45
2043 11
2044 11
2045 11
2046 15
2047 24
2048 40
2049 0
2050 1
2051 3
2052 11
2053 6
2054 6
2055 11
2056 37
2057 6
2058 3
2059 24
2060 12
2061 1
2062 12
2063 40
2064 3
2065 10
2066 3
2067 6
2068 15
2069 12
2070 0
2071 6
2072 15
2073 11
2074 1
2075 3
2076 6
2077 41
2078 15
2079 12
2080 13
2081 3
2082 12
2083 0
2084 1
2085 31
2086 3
2087 1
2088 24
2089 11
2090 22
2091 12
2092 27
2093 6
2094 1
2095 24
2096 53
2097 6
2098 13
2099 13
2100 1
2101 27
2102 0
2103 6
2104 24
2105 2
2106 1
2107 1
2108 5
2109 39
2110 5
2111 7
2112 18
2113 3
2114 11
2115 46
2116 10
2117 17
2118 10
2119 24
2120 50
2121 15
2122 12
2123 3
2124 12
2125 23
2126 18
2127 3
2128 15
2129 14
2130 11
2131 14
2132 1
2133 3
2134 6
2135 6
2136 41
2137 12
2138 24
2139 18
2140 1
2141 13
2142 12
2143 16
2144 1
2145 30
2146 24
2147 10
2148 47
2149 40
2150 53
2151 11
2152 11
2153 3
2154 24
2155 22
2156 18
2157 6
2158 25
2159 19
2160 11
2161 19
2162 12
2163 3
2164 28
2165 0
2166 18
2167 11
2168 5
2169 19
2170 12
2171 30
2172 10
2173 6
2174 4
2175 24
2176 24
2177 1
2178 2
2179 43
2180 12
2181 24
2182 1
2183 1
2184 11
2185 34
2186 3
2187 24
2188 11
2189 6
2190 44
2191 6
2192 6
2193 11
2194 3
2195 1
2196 11
2197 37
2198 6
2199 3
2200 15
2201 0
2202 0
2203 14
2204 3
2205 18
2206 12
2207 3
2208 1
2209 16
2210 0
2211 41
2212 3
2213 0
2214 6
2215 6
2216 1
2217 13
2218 12
2219 11
2220 12
2221 1
2222 5
2223 6
2224 11
2225 1
2226 15
2227 3
2228 0
2229 30
2230 12
2231 38
2232 6
2233 47
2234 1
2235 10
2236 5
2237 27
2238 6
2239 4
2240 0
2241 11
2242 11
2243 11
2244 24
2245 0
2246 1
2247 6
2248 10
2249 15
2250 16
2251 22
2252 5
2253 50
2254 5
2255 24
2256 3
2257 42
2258 24
2259 0
2260 11
2261 12
2262 11
2263 12
2264 23
2265 1
2266 46
2267 3
2268 19
2269 5
2270 13
2271 24
2272 3
2273 47
2274 5
2275 3
2276 30
2277 13
2278 12
2279 1
2280 18
2281 18
2282 18
2283 15
2284 14
2285 6
2286 6
2287 18
2288 24
2289 1
2290 1
2291 23
2292 10
2293 5
2294 6
2295 0
2296 10
2297 11
2298 12
2299 33
2300 1
2301 27
2302 6
2303 3
2304 1
2305 3
2306 34
2307 1
2308 25
2309 24
2310 27
2311 19
2312 52
2313 1
2314 0
2315 0
2316 5
2317 1
2318 5
2319 6
2320 11
2321 3
2322 3
2323 0
2324 1
2325 9
2326 1
2327 3
2328 31
2329 1
2330 12
2331 10
2332 3
2333 6
2334 13
2335 26
2336 3
2337 34
2338 43
2339 1
2340 1
2341 12
2342 12
2343 11
2344 3
2345 11
2346 6
2347 3
2348 15
2349 6
2350 3
2351 18
2352 13
2353 12
2354 3
2355 1
2356 7
2357 32
2358 10
2359 16
2360 18
2361 6
2362 17
2363 12
2364 11
2365 11
2366 10
2367 45
2368 11
2369 1
2370 40
2371 1
2372 15
2373 12
2374 24
2375 3
2376 15
2377 19
2378 18
2379 12
2380 6
2381 1
2382 18
2383 18
2384 0
2385 6
2386 6
2387 19
2388 30
2389 46
2390 1
2391 6
2392 24
2393 24
2394 37
2395 24
2396 6
2397 34
2398 6
2399 33
2400 7
2401 7
2402 1
2403 7
2404 18
2405 6
2406 19
2407 12
2408 14
2409 24
2410 23
2411 3
2412 11
2413 11
2414 0
2415 51
2416 15
2417 13
2418 6
2419 24
2420 3
2421 24
2422 12
2423 0
2424 13
2425 3
2426 3
2427 50
2428 38
2429 6
2430 6
2431 24
2432 0
2433 20
2434 15
2435 3
2436 2
2437 12
2438 23
2439 4
2440 3
2441 1
2442 11
2443 27
2444 12
2445 13
2446 15
2447 3
2448 52
2449 11
2450 0
2451 36
2452 10
2453 6
2454 1
2455 18
2456 26
2457 26
2458 1
2459 1
2460 11
2461 1
2462 24
2463 11
2464 0
2465 11
2466 13
2467 11
2468 3
2469 43
2470 6
2471 12
2472 13
2473 3
2474 6
2475 12
2476 10
2477 6
2478 3
2479 30
2480 34
2481 37
2482 18
2483 24
2484 20
2485 30
2486 10
2487 1
2488 1
2489 13
2490 3
2491 3
2492 1
2493 23
2494 0
2495 11
2496 10
2497 18
2498 3
2499 14
2500 12
2501 6
2502 18
2503 3
2504 11
2505 43
2506 3
2507 11
2508 6
2509 28
2510 1
2511 13
2512 3
2513 11
2514 1
2515 10
2516 37
2517 11
2518 11
2519 10
2520 3
2521 41
2522 24
2523 11
2524 6
2525 6
2526 11
2527 11
2528 12
2529 3
2530 40
2531 12
2532 30
2533 41
2534 52
2535 11
2536 13
2537 6
2538 3
2539 49
2540 18
2541 12
2542 1
2543 30
2544 33
2545 6
2546 18
2547 24
2548 3
2549 34
2550 38
2551 37
2552 24
2553 18
2554 10
2555 1
2556 4
2557 17
2558 19
2559 6
2560 1
2561 37
2562 1
2563 24
2564 30
2565 1
2566 45
2567 7
2568 12
2569 5
2570 11
2571 12
2572 6
2573 47
2574 3
2575 18
2576 39
2577 28
2578 12
2579 10
2580 3
2581 1
2582 9
2583 1
2584 15
2585 11
2586 11
2587 52
2588 7
2589 0
2590 0
2591 1
2592 2
2593 1
2594 6
2595 13
2596 6
2597 10
2598 6
2599 14
2600 11
2601 11
2602 12
2603 18
2604 7
2605 4
2606 6
2607 1
2608 24
2609 12
2610 1
2611 6
2612 1
2613 11
2614 12
2615 3
2616 45
2617 3
2618 6
2619 10
2620 30
2621 24
2622 15
2623 25
2624 45
2625 1
2626 10
2627 1
2628 11
2629 44
2630 0
2631 11
2632 11
2633 3
2634 1
2635 11
2636 1
2637 11
2638 0
2639 6
2640 1
2641 3
2642 13
2643 29
2644 15
2645 16
2646 11
2647 12
2648 1
2649 13
2650 7
2651 15
2652 18
2653 13
2654 1
2655 10
2656 1
2657 1
2658 13
2659 11
2660 3
2661 51
2662 18
2663 13
2664 11
2665 34
2666 12
2667 24
2668 12
2669 12
2670 3
2671 42
2672 37
2673 31
2674 1
2675 24
2676 6
2677 11
2678 3
2679 3
2680 22
2681 1
2682 6
2683 10
2684 6
2685 33
2686 0
2687 13
2688 46
2689 36
2690 1
2691 0
2692 27
2693 0
2694 1
2695 1
2696 18
2697 3
2698 2
2699 33
2700 13
2701 34
2702 1
2703 5
2704 1
2705 24
2706 26
2707 3
2708 6
2709 2
2710 3
2711 11
2712 4
2713 11
2714 11
2715 33
2716 6
2717 0
2718 24
2719 40
2720 24
2721 37
2722 11
2723 1
2724 6
2725 3
2726 37
2727 3
2728 12
2729 6
2730 3
2731 6
2732 12
2733 3
2734 3
2735 12
2736 12
2737 47
2738 24
2739 27
2740 0
2741 18
2742 5
2743 3
2744 27
2745 33
2746 5
2747 10
2748 11
2749 13
2750 13
2751 19
2752 10
2753 5
2754 18
2755 13
2756 1
2757 30
2758 6
2759 3
2760 11
2761 13
2762 16
2763 1
2764 3
2765 45
2766 24
2767 3
2768 25
2769 0
2770 0
2771 1
2772 31
2773 1
2774 6
2775 6
2776 11
2777 11
2778 1
2779 1
2780 11
2781 11
2782 45
2783 1
2784 29
2785 24
2786 10
2787 1
2788 3
2789 11
2790 45
2791 1
2792 17
2793 24
2794 1
2795 12
2796 3
2797 10
2798 11
2799 12
2800 7
2801 1
2802 34
2803 6
2804 41
2805 0
2806 11
2807 11
2808 11
2809 0
2810 39
2811 12
2812 14
2813 10
2814 24
2815 32
2816 12
2817 19
2818 3
2819 12
2820 15
2821 24
2822 7
2823 1
2824 3
2825 0
2826 11
2827 3
2828 12
2829 5
2830 15
2831 11
2832 34
2833 0
2834 11
2835 18
2836 3
2837 0
2838 19
2839 3
2840 24
2841 6
2842 6
2843 11
2844 24
2845 1
2846 3
2847 6
2848 3
2849 7
2850 10
2851 11
2852 12
2853 26
2854 0
2855 18
2856 1
2857 24
2858 0
2859 36
2860 27
2861 10
2862 11
2863 0
2864 15
2865 6
2866 1
2867 0
2868 14
2869 3
2870 1
2871 19
2872 24
2873 3
2874 11
2875 41
2876 6
2877 1
2878 6
2879 7
2880 6
2881 0
2882 24
2883 24
2884 11
2885 15
2886 0
2887 12
2888 3
2889 11
2890 1
2891 10
2892 19
2893 11
2894 1
2895 11
2896 1
2897 0
2898 5
2899 10
2900 24
2901 0
2902 43
2903 14
2904 24
2905 11
2906 23
2907 13
2908 12
2909 42
2910 30
2911 0
2912 12
2913 3
2914 0
2915 0
2916 7
2917 43
2918 10
2919 22
2920 7
2921 12
2922 12
2923 1
2924 18
2925 47
2926 11
2927 7
2928 24
2929 11
2930 6
2931 18
2932 3
2933 40
2934 3
2935 11
2936 24
2937 1
2938 26
2939 3
2940 3
2941 1
2942 45
2943 1
2944 3
2945 1
2946 3
2947 12
2948 3
2949 10
2950 1
2951 30
2952 3
2953 6
2954 6
2955 6
2956 6
2957 45
2958 30
2959 1
2960 6
2961 24
2962 1
2963 1
2964 18
2965 13
2966 1
2967 6
2968 10
2969 1
2970 1
2971 3
2972 27
2973 6
2974 1
2975 23
2976 12
2977 1
2978 3
2979 37
2980 19
2981 12
2982 19
2983 15
2984 11
2985 11
2986 24
2987 12
2988 1
2989 10
2990 1
2991 41
2992 12
2993 10
2994 12
2995 24
2996 1
2997 12
2998 11
2999 24
3000 18
3001 6
3002 45
3003 11
3004 1
3005 30
3006 25
3007 19
3008 0
3009 11
3010 1
3011 15
3012 1
3013 1
3014 10
3015 13
3016 1
3017 42
3018 12
3019 0
3020 24
3021 0
3022 11
3023 6
3024 11
3025 6
3026 12
3027 44
3028 6
3029 6
3030 5
3031 10
3032 26
3033 10
3034 11
3035 6
3036 10
3037 45
3038 10
3039 6
3040 28
3041 24
3042 11
3043 23
3044 3
3045 12
3046 47
3047 33
3048 6
3049 0
3050 31
3051 0
3052 15
3053 24
3054 18
3055 23
3056 1
3057 12
3058 18
3059 0
3060 1
3061 10
3062 12
3063 8
3064 11
3065 18
3066 14
3067 13
3068 1
3069 14
3070 10
3071 6
3072 24
3073 19
3074 10
3075 24
3076 6
3077 15
3078 1
3079 10
3080 6
3081 6
3082 3
3083 3
3084 11
3085 17
3086 6
3087 0
3088 24
3089 18
3090 6
3091 10
3092 3
3093 43
3094 15
3095 3
3096 6
3097 11
3098 46
3099 10
3100 45
3101 0
3102 1
3103 1
3104 1
3105 12
3106 0
3107 3
3108 0
3109 30
3110 6
3111 0
3112 6
3113 1
3114 3
3115 6
3116 1
3117 40
3118 3
3119 10
3120 11
3121 6
3122 40
3123 10
3124 3
3125 11
3126 33
3127 39
3128 3
3129 43
3130 14
3131 18
3132 11
3133 10
3134 10
3135 6
3136 10
3137 1
3138 9
3139 10
3140 1
3141 24
3142 6
3143 3
3144 0
3145 38
3146 45
3147 10
3148 20
3149 17
3150 18
3151 1
3152 7
3153 47
3154 6
3155 12
3156 24
3157 3
3158 19
3159 28
3160 37
3161 12
3162 18
3163 13
3164 11
3165 19
3166 12
3167 24
3168 12
3169 12
3170 13
3171 3
3172 19
3173 17
3174 30
3175 5
3176 13
3177 1
3178 12
3179 12
3180 1
3181 24
3182 1
3183 29
3184 1
3185 20
3186 11
3187 1
3188 32
3189 1
3190 24
3191 12
3192 3
3193 34
3194 3
3195 6
3196 24
3197 6
3198 24
3199 1
3200 1
3201 1
3202 6
3203 43
3204 19
3205 1
3206 0
3207 10
3208 24
3209 24
3210 0
3211 27
3212 18
3213 1
3214 6
3215 11
3216 40
3217 34
3218 7
3219 4
3220 30
3221 41
3222 10
3223 3
3224 3
3225 34
3226 24
3227 10
3228 10
3229 12
3230 6
3231 11
3232 0
3233 11
3234 3
3235 11
3236 11
3237 12
3238 43
3239 11
3240 18
3241 24
3242 11
3243 1
3244 14
3245 13
3246 1
3247 12
3248 10
3249 1
3250 1
3251 1
3252 1
3253 1
3254 24
3255 18
3256 6
3257 6
3258 16
3259 6
3260 10
3261 16
3262 1
3263 13
3264 0
3265 12
3266 24
3267 19
3268 6
3269 3
3270 1
3271 0
3272 43
3273 26
3274 6
3275 15
3276 12
3277 10
3278 6
3279 49
3280 6
3281 10
3282 6
3283 1
3284 3
3285 15
3286 28
3287 5
3288 3
3289 30
3290 5
3291 24
3292 12
3293 12
3294 0
3295 45
3296 1
3297 12
3298 12
3299 0
3300 11
3301 12
3302 29
3303 12
3304 0
3305 11
3306 6
3307 1
3308 24
3309 10
3310 41
3311 12
3312 37
3313 12
3314 11
3315 11
3316 25
3317 10
3318 10
3319 24
3320 45
3321 3
3322 13
3323 24
3324 11
3325 3
3326 11
3327 10
3328 6
3329 16
3330 28
3331 19
3332 1
3333 6
3334 32
3335 6
3336 0
3337 18
3338 11
3339 14
3340 19
3341 1
3342 24
3343 3
3344 10
3345 1
3346 3
3347 1
3348 1
3349 12
3350 6
3351 11
3352 30
3353 13
3354 18
3355 1
3356 1
3357 32
3358 13
3359 3
3360 12
3361 10
3362 26
3363 11
3364 27
3365 11
3366 1
3367 11
3368 11
3369 11
3370 12
3371 1
3372 13
3373 34
3374 3
3375 30
3376 2
3377 1
3378 1
3379 24
3380 0
3381 24
3382 24
3383 42
3384 6
3385 27
3386 10
3387 21
3388 27
3389 12
3390 37
3391 8
3392 6
3393 33
3394 17
3395 1
3396 11
3397 12
3398 6
3399 3
3400 24
3401 3
3402 0
3403 3
3404 11
3405 1
3406 6
3407 10
3408 0
3409 13
3410 5
3411 15
3412 11
3413 11
3414 11
3415 24
3416 11
3417 10
3418 26
3419 19
3420 24
3421 13
3422 6
3423 7
3424 11
3425 40
3426 11
3427 12
3428 14
3429 1
3430 1
3431 12
3432 7
3433 10
3434 53
3435 3
3436 0
3437 1
3438 45
3439 12
3440 12
3441 14
3442 1
3443 1
3444 3
3445 12
3446 1
3447 6
3448 1
3449 3
3450 18
3451 7
3452 7
3453 23
3454 24
3455 1
3456 3
3457 0
3458 0
3459 3
3460 3
3461 12
3462 10
3463 27
3464 6
3465 1
3466 28
3467 12
3468 6
3469 7
3470 52
3471 30
3472 37
3473 6
3474 13
3475 6
3476 6
3477 19
3478 11
3479 11
3480 40
3481 12
3482 1
3483 6
3484 47
3485 27
3486 3
3487 3
3488 12
3489 0
3490 12
3491 1
3492 12
3493 24
3494 1
3495 15
3496 5
3497 11
3498 12
3499 1
3500 6
3501 12
3502 6
3503 3
3504 12
3505 11
3506 1
3507 18
3508 1
3509 24
3510 6
3511 1
3512 24
3513 11
3514 6
3515 6
3516 6
3517 32
3518 1
3519 28
3520 13
3521 11
3522 27
3523 14
3524 24
3525 0
3526 11
3527 19
3528 26
3529 11
3530 27
3531 11
3532 3
3533 31
3534 11
3535 12
3536 1
3537 0
3538 42
3539 10
3540 43
3541 28
3542 12
3543 47
3544 19
3545 5
3546 6
3547 6
3548 13
3549 0
3550 3
3551 11
3552 6
3553 12
3554 6
3555 10
3556 12
3557 6
3558 6
3559 11
3560 53
3561 13
3562 5
3563 42
3564 2
3565 3
3566 19
3567 11
3568 43
3569 17
3570 3
3571 0
3572 9
3573 1
3574 11
3575 21
3576 23
3577 1
3578 9
3579 12
3580 12
3581 10
3582 24
3583 46
3584 10
3585 23
3586 11
3587 11
3588 6
3589 35
3590 10
3591 6
3592 0
3593 31
3594 12
3595 10
3596 14
3597 11
3598 1
3599 11
3600 41
3601 22
3602 24
3603 51
3604 11
3605 7
3606 12
3607 13
3608 11
3609 13
3610 11
3611 18
3612 3
3613 11
3614 11
3615 11
3616 0
3617 6
3618 13
3619 24
3620 12
3621 43
3622 7
3623 11
3624 18
3625 12
3626 19
3627 30
3628 18
3629 12
3630 10
3631 11
3632 13
3633 16
3634 3
3635 13
3636 11
3637 1
3638 8
3639 12
3640 18
3641 11
3642 32
3643 28
3644 11
3645 13
3646 1
3647 11
3648 10
3649 13
3650 6
3651 6
3652 27
3653 3
3654 48
3655 11
3656 3
3657 27
3658 27
3659 9
3660 12
3661 1
3662 6
3663 4
3664 18
3665 1
3666 17
3667 11
3668 12
3669 1
3670 1
3671 2
3672 11
3673 30
3674 7
3675 13
3676 23
3677 1
3678 22
3679 5
3680 17
3681 11
3682 1
3683 11
3684 10
3685 11
3686 15
3687 11
3688 9
3689 0
3690 35
3691 51
3692 11
3693 1
3694 24
3695 3
3696 22
3697 3
3698 11
3699 11
3700 20
3701 1
3702 1
3703 21
3704 45
3705 1
3706 12
3707 1
3708 10
3709 26
3710 27
3711 11
3712 27
3713 29
3714 29
3715 3
3716 14
3717 10
3718 1
3719 6
3720 6
3721 24
3722 0
3723 18
3724 6
3725 10
3726 14
3727 6
3728 6
3729 13
3730 3
3731 18
3732 43
3733 6
3734 11
3735 6
3736 18
3737 18
3738 13
3739 1
3740 33
3741 24
3742 1
3743 15
3744 12
3745 1
3746 10
3747 10
3748 10
3749 6
3750 3
3751 18
3752 23
3753 1
3754 1
3755 3
3756 11
3757 9
3758 3
3759 18
3760 36
3761 11
3762 29
3763 1
3764 27
3765 7
3766 6
3767 3
3768 10
3769 24
3770 12
3771 12
3772 11
3773 0
3774 13
3775 39
3776 11
3777 0
3778 6
3779 5
3780 0
3781 13
3782 12
3783 11
3784 1
3785 12
3786 6
3787 5
3788 1
3789 20
3790 1
3791 10
3792 6
3793 3
3794 15
3795 42
3796 26
3797 24
3798 3
3799 11
3800 6
3801 6
3802 1
3803 19
3804 11
3805 11
3806 14
3807 1
3808 30
3809 1
3810 11
3811 6
3812 23
3813 11
3814 43
3815 1
3816 24
3817 2
3818 2
3819 24
3820 19
3821 11
3822 1
3823 23
3824 15
3825 23
3826 3
3827 1
3828 3
3829 18
3830 10
3831 27
3832 10
3833 1
3834 3
3835 3
3836 12
3837 41
3838 1
3839 0
3840 34
3841 1
3842 15
3843 3
3844 39
3845 24
3846 11
3847 12
3848 13
3849 28
3850 1
3851 7
3852 23
3853 18
3854 11
3855 0
3856 37
3857 11
3858 6
3859 3
3860 3
3861 18
3862 11
3863 12
3864 13
3865 11
3866 6
3867 6
3868 11
3869 6
3870 1
3871 3
3872 3
3873 14
3874 6
3875 11
3876 17
3877 13
3878 13
3879 24
3880 24
3881 0
3882 10
3883 1
3884 10
3885 13
3886 34
3887 1
3888 11
3889 6
3890 18
3891 19
3892 3
3893 12
3894 1
3895 10
3896 18
3897 1
3898 14
3899 11
3900 11
3901 12
3902 29
3903 35
3904 18
3905 1
3906 11
3907 11
3908 30
3909 7
3910 3
3911 13
3912 24
3913 2
3914 6
3915 11
3916 1
3917 1
3918 3
3919 1
3920 1
3921 12
3922 1
3923 12
3924 11
3925 19
3926 12
3927 6
3928 6
3929 9
3930 3
3931 14
3932 6
3933 11
3934 11
3935 24
3936 12
3937 7
3938 13
3939 1
3940 1
3941 5
3942 16
3943 19
3944 1
3945 11
3946 6
3947 1
3948 1
3949 11
3950 18
3951 1
3952 6
3953 1
3954 12
3955 1
3956 12
3957 2
3958 1
3959 6
3960 24
3961 11
3962 1
3963 14
3964 21
3965 11
3966 3
3967 5
3968 10
3969 12
3970 14
3971 30
3972 1
3973 11
3974 0
3975 24
3976 11
3977 11
3978 15
3979 1
3980 21
3981 3
3982 42
3983 24
3984 11
3985 8
3986 0
3987 11
3988 5
3989 18
3990 19
3991 6
3992 3
3993 13
3994 14
3995 10
3996 12
3997 12
3998 16
3999 46
4000 18
4001 9
4002 6
4003 3
4004 3
4005 12
4006 10
4007 46
4008 3
4009 32
4010 1
4011 13
4012 1
4013 18
4014 18
4015 18
4016 1
4017 3
4018 3
4019 12
4020 5
4021 3
4022 42
4023 1
4024 11
4025 19
4026 11
4027 11
4028 18
4029 18
4030 3
4031 12
4032 14
4033 6
4034 22
4035 24
4036 43
4037 13
4038 11
4039 1
4040 9
4041 15
4042 15
4043 11
4044 11
4045 3
4046 11
4047 11
4048 2
4049 12
4050 1
4051 6
4052 11
4053 1
4054 6
4055 27
4056 14
4057 41
4058 12
4059 4
4060 5
4061 41
4062 13
4063 1
4064 50
4065 3
4066 0
4067 1
4068 11
4069 18
4070 11
4071 6
4072 10
4073 6
4074 7
4075 1
4076 11
4077 15
4078 11
4079 6
4080 0
4081 3
4082 11
4083 11
4084 11
4085 3
4086 19
4087 46
4088 30
4089 10
4090 7
4091 6
4092 1
4093 13
4094 0
4095 6
4096 15
4097 18
4098 36
4099 1
4100 24
4101 12
4102 29
4103 39
4104 6
4105 1
4106 34
4107 41
4108 10
4109 46
4110 3
4111 24
4112 1
4113 26
4114 11
4115 19
4116 19
4117 11
4118 0
4119 20
4120 18
4121 1
4122 24
4123 37
4124 3
4125 1
4126 11
4127 11
4128 11
4129 10
4130 12
4131 6
4132 18
4133 50
4134 30
4135 3
4136 13
4137 1
4138 30
4139 29
4140 0
4141 1
4142 6
4143 1
4144 13
4145 1
4146 1
4147 0
4148 3
4149 25
4150 0
4151 39
4152 10
4153 27
4154 11
4155 7
4156 7
4157 30
4158 5
4159 12
4160 13
4161 17
4162 1
4163 11
4164 0
4165 12
4166 0
4167 14
4168 3
4169 1
4170 1
4171 1
4172 11
4173 37
4174 0
4175 1
4176 42
4177 20
4178 24
4179 12
4180 15
4181 0
4182 11
4183 18
4184 0
4185 11
4186 13
4187 5
4188 0
4189 34
4190 11
4191 5
4192 24
4193 11
4194 2
4195 13
4196 14
4197 11
4198 6
4199 11
4200 3
4201 6
4202 3
4203 1
4204 1
4205 11
4206 21
4207 46
4208 7
4209 5
4210 44
4211 11
4212 18
4213 11
4214 37
4215 24
4216 0
4217 10
4218 43
4219 0
4220 9
4221 11
4222 10
4223 6
4224 0
4225 4
4226 32
4227 10
4228 27
4229 10
4230 6
4231 6
4232 12
4233 20
4234 39
4235 24
4236 1
4237 34
4238 42
4239 0
4240 2
4241 6
4242 0
4243 33
4244 42
4245 12
4246 1
4247 18
4248 20
4249 24
4250 18
4251 17
4252 24
4253 13
4254 3
4255 0
4256 6
4257 11
4258 0
4259 23
4260 10
4261 24
4262 1
4263 23
4264 1
4265 24
4266 18
4267 3
4268 1
4269 6
4270 18
4271 11
4272 6
4273 3
4274 8
4275 0
4276 1
4277 3
4278 12
4279 9
4280 24
4281 15
4282 11
4283 18
4284 36
4285 6
4286 1
4287 6
4288 1
4289 34
4290 5
4291 12
4292 24
4293 11
4294 1
4295 52
4296 12
4297 3
4298 6
4299 14
4300 11
4301 19
4302 1
4303 29
4304 1
4305 42
4306 6
4307 10
4308 13
4309 15
4310 1
4311 10
4312 19
4313 10
4314 18
4315 3
4316 7
4317 1
4318 11
4319 23
4320 10
4321 6
4322 0
4323 42
4324 52
4325 1
4326 1
4327 1
4328 6
4329 24
4330 6
4331 24
4332 27
4333 29
4334 0
4335 12
4336 18
4337 24
4338 1
4339 6
4340 11
4341 11
4342 12
4343 24
4344 3
4345 1
4346 12
4347 1
4348 12
4349 41
4350 12
4351 12
4352 6
4353 42
4354 6
4355 15
4356 30
4357 24
4358 13
4359 12
4360 1
4361 45
4362 12
4363 25
4364 6
4365 12
4366 24
4367 0
4368 3
4369 1
4370 42
4371 11
4372 11
4373 18
4374 38
4375 7
4376 12
4377 10
4378 3
4379 18
4380 14
4381 27
4382 3
4383 1
4384 12
4385 25
4386 6
4387 26
4388 1
4389 3
4390 11
4391 11
4392 36
4393 18
4394 11
4395 6
4396 24
4397 10
4398 1
4399 5
4400 6
4401 13
4402 10
4403 40
4404 0
4405 3
4406 6
4407 10
4408 6
4409 5
4410 15
4411 33
4412 10
4413 3
4414 41
4415 6
4416 50
4417 43
4418 50
4419 11
4420 1
4421 24
4422 24
4423 1
4424 27
4425 19
4426 2
4427 3
4428 27
4429 12
4430 11
4431 13
4432 12
4433 53
4434 24
4435 6
4436 11
4437 30
4438 6
4439 25
4440 12
4441 12
4442 1
4443 11
4444 5
4445 16
4446 19
4447 3
4448 11
4449 6
4450 10
4451 11
4452 21
4453 1
4454 11
4455 6
4456 1
4457 47
4458 1
4459 37
4460 11
4461 3
4462 0
4463 12
4464 13
4465 23
4466 12
4467 34
4468 11
4469 18
4470 1
4471 3
4472 31
4473 13
4474 6
4475 6
4476 3
4477 6
4478 6
4479 3
4480 1
4481 4
4482 36
4483 11
4484 2
4485 3
4486 32
4487 18
4488 53
4489 3
4490 1
4491 3
4492 7
4493 1
4494 0
4495 1
4496 14
4497 11
4498 0
4499 41
4500 30
4501 11
4502 24
4503 0
4504 6
4505 23
4506 11
4507 18
4508 25
4509 13
4510 10
4511 46
4512 34
4513 43
4514 5
4515 7
4516 1
4517 10
4518 11
4519 12
4520 11
4521 6
4522 10
4523 29
4524 4
4525 12
4526 6
4527 13
4528 34
4529 12
4530 6
4531 47
4532 11
4533 11
4534 10
4535 11
4536 1
4537 21
4538 0
4539 11
4540 10
4541 35
4542 11
4543 15
4544 3
4545 1
4546 37
4547 6
4548 3
4549 24
4550 14
4551 21
4552 11
4553 3
4554 26
4555 1
4556 24
4557 1
4558 1
4559 12
4560 12
4561 1
4562 6
4563 6
4564 16
4565 3
4566 12
4567 18
4568 24
4569 13
4570 1
4571 35
4572 1
4573 10
4574 11
4575 13
4576 3
4577 3
4578 3
4579 24
4580 18
4581 1
4582 15
4583 33
4584 1
4585 23
4586 3
4587 24
4588 41
4589 3
4590 34
4591 41
4592 21
4593 10
4594 24
4595 19
4596 32
4597 0
4598 1
4599 1
4600 1
4601 45
4602 10
4603 10
4604 1
4605 3
4606 1
4607 24
4608 39
4609 1
4610 11
4611 1
4612 17
4613 11
4614 18
4615 4
4616 6
4617 20
4618 1
4619 6
4620 11
4621 1
4622 0
4623 11
4624 13
4625 1
4626 27
4627 30
4628 3
4629 3
4630 10
4631 11
4632 11
4633 33
4634 3
4635 0
4636 6
4637 11
4638 3
4639 12
4640 6
4641 13
4642 15
4643 0
4644 11
4645 0
4646 12
4647 15
4648 1
4649 8
4650 12
4651 7
4652 6
4653 0
4654 27
4655 9
4656 24
4657 3
4658 3
4659 11
4660 0
4661 6
4662 32
4663 18
4664 20
4665 1
4666 10
4667 1
4668 18
4669 14
4670 15
4671 3
4672 4
4673 3
4674 10
4675 35
4676 24
4677 27
4678 44
4679 33
4680 10
4681 19
4682 6
4683 3
4684 16
4685 6
4686 19
4687 3
4688 1
4689 15
4690 21
4691 19
4692 42
4693 44
4694 30
4695 0
4696 17
4697 41
4698 1
4699 3
4700 27
4701 11
4702 24
4703 4
4704 1
4705 10
4706 47
4707 12
4708 6
4709 0
4710 14
4711 41
4712 18
4713 6
4714 37
4715 21
4716 28
4717 0
4718 50
4719 24
4720 1
4721 5
4722 11
4723 17
4724 11
4725 13
4726 3
4727 50
4728 12
4729 2
4730 43
4731 23
4732 1
4733 11
4734 1
4735 19
4736 40
4737 13
4738 7
4739 1
4740 14
4741 3
4742 30
4743 1
4744 3
4745 3
4746 14
4747 6
4748 1
4749 1
4750 11
4751 28
4752 6
4753 41
4754 1
4755 11
4756 0
4757 11
4758 12
4759 50
4760 12
4761 3
4762 37
4763 6
4764 18
4765 24
4766 12
4767 10
4768 3
4769 0
4770 3
4771 11
4772 6
4773 1
4774 45
4775 11
4776 7
4777 38
4778 18
4779 11
4780 32
4781 0
4782 14
4783 24
4784 6
4785 18
4786 11
4787 0
4788 1
4789 24
4790 1
4791 2
4792 30
4793 4
4794 10
4795 30
4796 30
4797 11
4798 28
4799 14
4800 32
4801 6
4802 43
4803 3
4804 12
4805 1
4806 24
4807 19
4808 11
4809 1
4810 5
4811 11
4812 24
4813 3
4814 11
4815 6
4816 11
4817 6
4818 10
4819 1
4820 10
4821 3
4822 13
4823 6
4824 3
4825 24
4826 6
4827 1
4828 24
4829 12
4830 10
4831 6
4832 18
4833 24
4834 11
4835 12
4836 3
4837 1
4838 11
4839 1
4840 13
4841 10
4842 3
4843 18
4844 1
4845 11
4846 0
4847 45
4848 1
4849 19
4850 6
4851 3
4852 16
4853 12
4854 6
4855 1
4856 6
4857 12
4858 15
4859 24
4860 11
4861 12
4862 1
4863 11
4864 1
4865 1
4866 6
4867 3
4868 6
4869 1
4870 1
4871 3
4872 1
4873 3
4874 10
4875 17
4876 10
4877 3
4878 10
4879 32
4880 0
4881 6
4882 14
4883 11
4884 6
4885 33
4886 18
4887 18
4888 36
4889 43
4890 10
4891 24
4892 8
4893 11
4894 11
4895 19
4896 1
4897 10
4898 31
4899 6
4900 41
4901 12
4902 11
4903 30
4904 1
4905 1
4906 6
4907 12
4908 27
4909 36
4910 24
4911 14
4912 24
4913 6
4914 41
4915 12
4916 10
4917 23
4918 11
4919 1
4920 26
4921 16
4922 41
4923 16
4924 12
4925 5
4926 1
4927 0
4928 3
4929 31
4930 32
4931 50
4932 11
4933 6
4934 1
4935 24
4936 11
4937 6
4938 18
4939 18
4940 3
4941 10
4942 3
4943 33
4944 24
4945 11
4946 22
4947 18
4948 24
4949 6
4950 44
4951 3
4952 11
4953 1
4954 3
4955 24
4956 3
4957 33
4958 19
4959 13
4960 1
4961 0
4962 12
4963 0
4964 1
4965 6
4966 1
4967 42
4968 3
4969 1
4970 1
4971 7
4972 3
4973 10
4974 0
4975 3
4976 24
4977 26
4978 11
4979 10
4980 1
4981 30
4982 11
4983 1
4984 11
4985 1
4986 1
4987 3
4988 0
4989 3
4990 3
4991 3
4992 24
4993 3
4994 11
4995 6
4996 0
4997 11
4998 24
4999 33
5000 24
5001 0
5002 14
5003 37
5004 31
5005 1
5006 1
5007 1
5008 41
5009 23
5010 12
5011 24
5012 30
5013 5
5014 2
5015 11
5016 6
5017 12
5018 10
5019 26
5020 6
5021 6
5022 10
5023 3
5024 18
5025 4
5026 3
5027 12
5028 3
5029 12
5030 3
5031 18
5032 10
5033 3
5034 11
5035 18
5036 24
5037 1
5038 1
5039 11
5040 24
5041 18
5042 6
5043 18
5044 50
5045 17
5046 15
5047 35
5048 5
5049 8
5050 31
5051 17
5052 22
5053 21
5054 6
5055 11
5056 11
5057 24
5058 13
5059 5
5060 0
5061 21
5062 34
5063 5
5064 11
5065 46
5066 1
5067 25
5068 0
5069 1
5070 18
5071 1
5072 11
5073 45
5074 3
5075 6
5076 43
5077 24
5078 0
5079 3
5080 27
5081 34
5082 24
5083 24
5084 21
5085 11
5086 15
5087 31
5088 18
5089 11
5090 49
5091 12
5092 3
5093 6
5094 24
5095 19
5096 3
5097 1
5098 13
5099 11
5100 47
5101 24
5102 6
5103 19
5104 6
5105 12
5106 34
5107 14
5108 3
5109 12
5110 21
5111 12
5112 6
5113 3
5114 3
5115 16
5116 12
5117 18
5118 11
5119 11
5120 3
5121 3
5122 14
5123 12
5124 0
5125 32
5126 18
5127 13
5128 0
5129 6
5130 11
5131 11
5132 6
5133 19
5134 30
5135 7
5136 12
5137 21
5138 6
5139 23
5140 13
5141 3
5142 3
5143 0
5144 1
5145 6
5146 19
5147 53
5148 26
5149 13
5150 53
5151 27
5152 1
5153 6
5154 11
5155 6
5156 3
5157 13
5158 31
5159 3
5160 42
5161 0
5162 6
5163 12
5164 1
5165 12
5166 12
5167 3
5168 37
5169 15
5170 1
5171 24
5172 24
5173 11
5174 1
5175 0
5176 6
5177 23
5178 0
5179 0
5180 6
5181 12
5182 10
5183 3
5184 0
5185 3
5186 25
5187 12
5188 43
5189 11
5190 39
5191 11
5192 1
5193 6
5194 6
5195 0
5196 10
5197 12
5198 11
5199 27
5200 1
5201 6
5202 6
5203 11
5204 12
5205 1
5206 14
5207 0
5208 1
5209 18
5210 10
5211 26
5212 38
5213 13
5214 3
5215 10
5216 18
5217 34
5218 12
5219 11
5220 19
5221 1
5222 23
5223 6
5224 19
5225 6
5226 15
5227 24
5228 47
5229 3
5230 12
5231 1
5232 1
5233 1
5234 24
5235 51
5236 2
5237 14
5238 3
5239 21
5240 11
5241 12
5242 29
5243 3
5244 3
5245 24
5246 2
5247 1
5248 1
5249 3
5250 32
5251 23
5252 17
5253 21
5254 6
5255 3
5256 11
5257 9
5258 11
5259 27
5260 18
5261 12
5262 13
5263 23
5264 34
5265 0
5266 50
5267 45
5268 12
5269 5
5270 6
5271 1
5272 18
5273 3
5274 24
5275 6
5276 10
5277 18
5278 0
5279 26
5280 12
5281 12
5282 3
5283 50
5284 30
5285 11
5286 3
5287 1
5288 3
5289 16
5290 12
5291 16
5292 11
5293 1
5294 30
5295 1
5296 0
5297 12
5298 6
5299 0
5300 1
5301 5
5302 12
5303 27
5304 34
5305 3
5306 7
5307 15
5308 0
5309 3
5310 30
5311 0
5312 2
5313 6
5314 1
5315 12
5316 33
5317 13
5318 5
5319 0
5320 11
5321 19
5322 1
5323 11
5324 2
5325 3
5326 6
5327 7
5328 3
5329 11
5330 1
5331 7
5332 14
5333 1
5334 6
5335 18
5336 11
5337 27
5338 12
5339 15
5340 46
5341 12
5342 3
5343 40
5344 46
5345 1
5346 41
5347 1
5348 6
5349 10
5350 32
5351 10
5352 12
5353 30
5354 13
5355 6
5356 3
5357 0
5358 6
5359 6
5360 14
5361 1
5362 11
5363 12
5364 1
5365 20
5366 11
5367 6
5368 13
5369 3
5370 1
5371 13
5372 11
5373 36
5374 0
5375 9
5376 6
5377 12
5378 24
5379 1
5380 0
5381 1
5382 46
5383 28
5384 1
5385 1
5386 10
5387 1
5388 4
5389 30
5390 24
5391 3
5392 10
5393 0
5394 30
5395 3
5396 2
5397 3
5398 1
5399 47
5400 6
5401 6
5402 18
5403 7
5404 6
5405 6
5406 12
5407 1
5408 24
5409 6
5410 3
5411 18
5412 37
5413 12
5414 6
5415 6
5416 11
5417 13
5418 0
5419 47
5420 11
5421 6
5422 18
5423 12
5424 53
5425 17
5426 3
5427 1
5428 18
5429 34
5430 24
5431 0
5432 0
5433 30
5434 32
5435 6
5436 32
5437 19
5438 23
5439 1
5440 24
5441 18
5442 19
5443 50
5444 12
5445 12
5446 11
5447 3
5448 30
5449 6
5450 19
5451 3
5452 43
5453 11
5454 43
5455 27
5456 3
5457 10
5458 1
5459 14
5460 3
5461 0
5462 6
5463 1
5464 32
5465 49
5466 13
5467 6
5468 24
5469 18
5470 1
5471 12
5472 27
5473 10
5474 0
5475 3
5476 41
5477 24
5478 1
5479 32
5480 1
5481 18
5482 1
5483 11
5484 7
5485 37
5486 13
5487 0
5488 1
5489 1
5490 7
5491 20
5492 15
5493 22
5494 13
5495 13
5496 24
5497 26
5498 11
5499 3
5500 11
5501 20
5502 6
5503 23
5504 37
5505 24
5506 10
5507 3
5508 13
5509 11
5510 19
5511 24
5512 31
5513 12
5514 12
5515 11
5516 23
5517 24
5518 10
5519 0
5520 11
5521 17
5522 15
5523 6
5524 41
5525 7
5526 30
5527 18
5528 28
5529 12
5530 3
5531 1
5532 13
5533 42
5534 34
5535 6
5536 37
5537 1
5538 11
5539 17
5540 1
5541 42
5542 24
5543 11
5544 17
5545 1
5546 45
5547 1
5548 43
5549 42
5550 11
5551 7
5552 1
5553 11
5554 18
5555 38
5556 22
5557 1
5558 24
5559 12
5560 6
5561 13
5562 29
5563 30
5564 6
5565 3
5566 11
5567 18
5568 5
5569 12
5570 11
5571 3
5572 11
5573 18
5574 37
5575 6
5576 1
5577 1
5578 12
5579 2
5580 1
5581 3
5582 19
5583 0
5584 24
5585 6
5586 23
5587 0
5588 30
5589 19
5590 23
5591 45
5592 0
5593 12
5594 6
5595 6
5596 18
5597 18
5598 0
5599 3
5600 10
5601 6
5602 3
5603 46
5604 1
5605 6
5606 12
5607 12
5608 30
5609 11
5610 6
5611 1
5612 7
5613 0
5614 12
5615 3
5616 0
5617 7
5618 18
5619 27
5620 3
5621 0
5622 1
5623 19
5624 13
5625 13
5626 6
5627 42
5628 6
5629 39
5630 29
5631 12
5632 6
5633 12
5634 3
5635 18
5636 6
5637 12
5638 12
5639 3
5640 24
5641 12
5642 1
5643 1
5644 19
5645 3
5646 14
5647 18
5648 23
5649 30
5650 18
5651 1
5652 46
5653 12
5654 1
5655 23
5656 1
5657 11
5658 25
5659 12
5660 24
5661 13
5662 21
5663 10
5664 19
5665 6
5666 42
5667 19
5668 12
5669 24
5670 13
5671 11
5672 1
5673 14
5674 3
5675 9
5676 27
5677 14
5678 10
5679 6
5680 11
5681 1
5682 0
5683 6
5684 19
5685 1
5686 1
5687 9
5688 3
5689 20
5690 11
5691 11
5692 12
5693 1
5694 10
5695 18
5696 6
5697 24
5698 42
5699 12
5700 24
5701 11
5702 0
5703 3
5704 12
5705 24
5706 25
5707 11
5708 1
5709 3
5710 0
5711 0
5712 11
5713 11
5714 0
5715 16
5716 12
5717 19
5718 3
5719 12
5720 27
5721 12
5722 48
5723 17
5724 1
5725 39
5726 7
5727 6
5728 6
5729 12
5730 27
5731 1
5732 25
5733 11
5734 24
5735 12
5736 6
5737 1
5738 24
5739 10
5740 2
5741 53
5742 24
5743 49
5744 49
5745 5
5746 3
5747 21
5748 11
5749 1
5750 10
5751 18
5752 6
5753 24
5754 37
5755 7
5756 10
5757 6
5758 1
5759 6
5760 9
5761 24
5762 3
5763 11
5764 6
5765 11
5766 11
5767 21
5768 3
5769 6
5770 41
5771 41
5772 3
5773 0
5774 11
5775 12
5776 6
5777 15
5778 11
5779 7
5780 24
5781 12
5782 6
5783 5
5784 30
5785 6
5786 41
5787 19
5788 15
5789 18
5790 6
5791 1
5792 33
5793 0
5794 12
5795 6
5796 3
5797 12
5798 6
5799 6
5800 3
5801 10
5802 12
5803 40
5804 11
5805 1
5806 3
5807 1
5808 12
5809 6
5810 11
5811 1
5812 0
5813 3
5814 13
5815 1
5816 3
5817 20
5818 26
5819 10
5820 6
5821 3
5822 3
5823 1
5824 30
5825 24
5826 24
5827 1
5828 33
5829 3
5830 11
5831 33
5832 11
5833 10
5834 24
5835 1
5836 30
5837 11
5838 12
5839 3
5840 12
5841 11
5842 27
5843 3
5844 6
5845 11
5846 12
5847 12
5848 6
5849 10
5850 41
5851 1
5852 12
5853 1
5854 15
5855 5
5856 1
5857 1
5858 13
5859 15
5860 3
5861 32
5862 6
5863 11
5864 0
5865 1
5866 13
5867 42
5868 18
5869 6
5870 10
5871 18
5872 24
5873 12
5874 12
5875 18
5876 41
5877 10
5878 1
5879 3
5880 1
5881 1
5882 1
5883 12
5884 7
5885 6
5886 3
5887 23
5888 3
5889 33
5890 13
5891 24
5892 24
5893 10
5894 12
5895 0
5896 27
5897 13
5898 9
5899 19
5900 31
5901 32
5902 7
5903 6
5904 13
5905 12
5906 14
5907 1
5908 32
5909 6
5910 1
5911 46
5912 24
5913 20
5914 18
5915 7
5916 13
5917 11
5918 32
5919 10
5920 11
5921 23
5922 34
5923 1
5924 10
5925 18
5926 42
5927 6
5928 13
5929 3
5930 30
5931 16
5932 34
5933 12
5934 24
5935 1
5936 24
5937 1
5938 11
5939 7
5940 6
5941 11
5942 3
5943 24
5944 3
5945 1
5946 11
5947 20
5948 3
5949 15
5950 36
5951 33
5952 24
5953 40
5954 6
5955 43
5956 19
5957 40
5958 3
5959 24
5960 12
5961 12
5962 14
5963 18
5964 1
5965 12
5966 29
5967 11
5968 12
5969 12
5970 24
5971 10
5972 8
5973 13
5974 2
5975 18
5976 13
5977 52
5978 10
5979 6
5980 11
5981 11
5982 3
5983 0
5984 3
5985 24
5986 6
5987 47
5988 11
5989 1
5990 1
5991 12
5992 1
5993 3
5994 18
5995 15
5996 13
5997 3
5998 0
5999 13
6000 24
6001 41
6002 11
6003 42
6004 1
6005 1
6006 19
6007 0
6008 1
6009 6
6010 11
6011 0
6012 3
6013 11
6014 15
6015 11
6016 18
6017 12
6018 11
6019 3
6020 12
6021 6
6022 41
6023 30
6024 25
6025 30
6026 0
6027 45
6028 11
6029 0
6030 3
6031 6
6032 18
6033 24
6034 3
6035 17
6036 31
6037 18
6038 3
6039 16
6040 12
6041 11
6042 3
6043 1
6044 27
6045 11
6046 32
6047 11
6048 11
6049 11
6050 12
6051 37
6052 42
6053 24
6054 37
6055 30
6056 3
6057 2
6058 10
6059 0
6060 5
6061 12
6062 12
6063 6
6064 0
6065 1
6066 21
6067 7
6068 11
6069 19
6070 6
6071 11
6072 11
6073 10
6074 25
6075 13
6076 3
6077 15
6078 32
6079 12
6080 10
6081 7
6082 1
6083 21
6084 0
6085 1
6086 1
6087 0
6088 1
6089 18
6090 3
6091 24
6092 14
6093 3
6094 1
6095 6
6096 11
6097 17
6098 47
6099 1
6100 20
6101 13
6102 11
6103 1
6104 30
6105 0
6106 11
6107 3
6108 6
6109 19
6110 6
6111 7
6112 24
6113 6
6114 13
6115 15
6116 24
6117 1
6118 1
6119 1
6120 3
6121 32
6122 0
6123 11
6124 11
6125 11
6126 12
6127 32
6128 11
6129 1
6130 3
6131 41
6132 3
6133 16
6134 12
6135 3
6136 41
6137 28
6138 30
6139 12
6140 0
6141 0
6142 31
6143 23
6144 12
6145 6
6146 3
6147 1
6148 53
6149 15
6150 1
6151 3
6152 3
6153 6
6154 0
6155 24
6156 12
6157 30
6158 14
6159 10
6160 1
6161 10
6162 15
6163 24
6164 18
6165 39
6166 3
6167 3
6168 24
6169 3
6170 10
6171 1
6172 18
6173 11
6174 6
6175 12
6176 14
6177 24
6178 43
6179 28
6180 3
6181 0
6182 11
6183 13
6184 1
6185 12
6186 15
6187 2
6188 6
6189 12
6190 30
6191 0
6192 10
6193 6
6194 3
6195 1
6196 18
6197 18
6198 46
6199 24
6200 40
6201 42
6202 0
6203 12
6204 1
6205 1
6206 12
6207 3
6208 1
6209 18
6210 24
6211 24
6212 30
6213 17
6214 11
6215 12
6216 10
6217 27
6218 0
6219 6
6220 12
6221 1
6222 29
6223 7
6224 24
6225 0
6226 23
6227 6
6228 11
6229 11
6230 24
6231 11
6232 3
6233 6
6234 0
6235 27
6236 24
6237 1
6238 0
6239 10
6240 10
6241 27
6242 24
6243 0
6244 0
6245 3
6246 47
6247 6
6248 12
6249 11
6250 0
6251 1
6252 10
6253 1
6254 3
6255 46
6256 11
6257 7
6258 11
6259 11
6260 32
6261 41
6262 11
6263 3
6264 27
6265 11
6266 18
6267 11
6268 19
6269 6
6270 30
6271 12
6272 30
6273 6
6274 6
6275 19
6276 1
6277 3
6278 28
6279 3
6280 14
6281 1
6282 11
6283 6
6284 14
6285 3
6286 7
6287 33
6288 11
6289 30
6290 6
6291 3
6292 1
6293 11
6294 1
6295 1
6296 1
6297 1
6298 47
6299 1
6300 3
6301 32
6302 3
6303 24
6304 3
6305 24
6306 11
6307 11
6308 3
6309 12
6310 0
6311 42
6312 24
6313 18
6314 10
6315 45
6316 27
6317 11
6318 1
6319 1
6320 23
6321 13
6322 10
6323 11
6324 19
6325 11
6326 1
6327 18
6328 7
6329 39
6330 11
6331 11
6332 45
6333 18
6334 11
6335 1
6336 3
6337 27
6338 1
6339 11
6340 1
6341 27
6342 23
6343 11
6344 10
6345 38
6346 37
6347 23
6348 37
6349 25
6350 1
6351 21
6352 0
6353 22
6354 18
6355 24
6356 11
6357 30
6358 11
6359 5
6360 19
6361 5
6362 11
6363 17
6364 39
6365 1
6366 15
6367 18
6368 18
6369 26
6370 17
6371 10
6372 6
6373 3
6374 46
6375 1
6376 1
6377 18
6378 50
6379 13
6380 1
6381 12
6382 13
6383 12
6384 41
6385 12
6386 34
6387 3
6388 24
6389 12
6390 11
6391 1
6392 11
6393 18
6394 1
6395 26
6396 23
6397 1
6398 10
6399 11
6400 11
6401 1
6402 6
6403 0
6404 12
6405 6
6406 6
6407 1
6408 6
6409 11
6410 12
6411 1
6412 32
6413 6
6414 11
6415 15
6416 12
6417 2
6418 11
6419 11
6420 24
6421 11
6422 1
6423 3
6424 30
6425 1
6426 19
6427 11
6428 13
6429 3
6430 11
6431 12
6432 6
6433 22
6434 19
6435 42
6436 11
6437 14
6438 27
6439 6
6440 31
6441 3
6442 12
6443 52
6444 37
6445 1
6446 11
6447 10
6448 14
6449 28
6450 15
6451 10
6452 28
6453 6
6454 15
6455 12
6456 6
6457 1
6458 11
6459 6
6460 11
6461 1
6462 12
6463 6
6464 1
6465 12
6466 6
6467 3
6468 13
6469 11
6470 1
6471 27
6472 10
6473 21
6474 6
6475 11
6476 1
6477 3
6478 18
6479 1
6480 0
6481 19
6482 1
6483 2
6484 34
6485 31
6486 11
6487 14
6488 12
6489 6
6490 3
6491 24
6492 6
6493 1
6494 11
6495 0
6496 23
6497 12
6498 4
6499 19
6500 28
6501 41
6502 12
6503 12
6504 11
6505 42
6506 15
6507 1
6508 30
6509 47
6510 9
6511 44
6512 28
6513 45
6514 1
6515 1
6516 52
6517 6
6518 1
6519 19
6520 6
6521 3
6522 6
6523 6
6524 11
6525 49
6526 3
6527 10
6528 6
6529 6
6530 5
6531 11
6532 18
6533 3
6534 3
6535 1
6536 1
6537 3
6538 15
6539 11
6540 18
6541 13
6542 11
6543 2
6544 26
6545 11
6546 12
6547 13
6548 6
6549 0
6550 1
6551 24
6552 12
6553 11
6554 11
6555 13
6556 14
6557 24
6558 24
6559 34
6560 6
6561 19
6562 30
6563 18
6564 1
6565 24
6566 6
6567 15
6568 1
6569 12
6570 33
6571 19
6572 1
6573 45
6574 15
6575 11
6576 24
6577 12
6578 31
6579 3
6580 3
6581 11
6582 11
6583 46
6584 1
6585 3
6586 52
6587 12
6588 12
6589 23
6590 1
6591 1
6592 3
6593 14
6594 1
6595 40
6596 17
6597 21
6598 2
6599 18
6600 12
6601 0
6602 3
6603 1
6604 11
6605 6
6606 18
6607 12
6608 3
6609 24
6610 11
6611 9
6612 3
6613 18
6614 0
6615 1
6616 27
6617 37
6618 25
6619 12
6620 28
6621 11
6622 3
6623 0
6624 6
6625 11
6626 3
6627 0
6628 21
6629 6
6630 18
6631 12
6632 1
6633 3
6634 30
6635 21
6636 11
6637 12
6638 12
6639 18
6640 0
6641 13
6642 34
6643 6
6644 19
6645 11
6646 3
6647 11
6648 3
6649 12
6650 3
6651 10
6652 1
6653 24
6654 11
6655 26
6656 1
6657 1
6658 6
6659 6
6660 3
6661 0
6662 1
6663 15
6664 1
6665 27
6666 6
6667 11
6668 6
6669 24
6670 1
6671 1
6672 3
6673 11
6674 24
6675 24
6676 6
6677 16
6678 1
6679 14
6680 6
6681 1
6682 30
6683 1
6684 37
6685 21
6686 46
6687 0
6688 1
6689 33
6690 18
6691 10
6692 3
6693 6
6694 12
6695 18
6696 11
6697 52
6698 11
6699 1
6700 3
6701 12
6702 24
6703 1
6704 15
6705 24
6706 17
6707 19
6708 11
6709 24
6710 13
6711 1
6712 1
6713 3
6714 29
6715 6
6716 11
6717 3
6718 11
6719 24
6720 1
6721 11
6722 7
6723 6
6724 1
6725 12
6726 40
6727 16
6728 18
6729 18
6730 12
6731 46
6732 24
6733 33
6734 6
6735 1
6736 11
6737 1
6738 40
6739 0
6740 3
6741 11
6742 6
6743 31
6744 1
6745 12
6746 0
6747 36
6748 11
6749 1
6750 11
6751 0
6752 1
6753 10
6754 20
6755 19
6756 31
6757 32
6758 1
6759 0
6760 32
6761 0
6762 31
6763 35
6764 13
6765 1
6766 43
6767 1
6768 1
6769 1
6770 11
6771 3
6772 30
6773 6
6774 6
6775 3
6776 3
6777 6
6778 12
6779 6
6780 1
6781 0
6782 51
6783 12
6784 0
6785 0
6786 1
6787 12
6788 27
6789 12
6790 6
6791 1
6792 39
6793 10
6794 3
6795 12
6796 12
6797 49
6798 11
6799 3
6800 1
6801 38
6802 0
6803 1
6804 18
6805 7
6806 11
6807 3
6808 34
6809 1
6810 11
6811 3
6812 7
6813 3
6814 11
6815 0
6816 11
6817 1
6818 24
6819 6
6820 30
6821 23
6822 13
6823 24
6824 12
6825 1
6826 8
6827 34
6828 16
6829 1
6830 18
6831 13
6832 30
6833 12
6834 6
6835 11
6836 26
6837 41
6838 32
6839 12
6840 11
6841 11
6842 24
6843 11
6844 9
6845 18
6846 27
6847 36
6848 18
6849 37
6850 6
6851 12
6852 13
6853 24
6854 10
6855 6
6856 13
6857 12
6858 13
6859 6
6860 5
6861 1
6862 27
6863 24
6864 1
6865 3
6866 1
6867 34
6868 1
6869 35
6870 3
6871 53
6872 6
6873 46
6874 11
6875 34
6876 3
6877 39
6878 6
6879 5
6880 12
6881 0
6882 12
6883 18
6884 46
6885 6
6886 34
6887 34
6888 1
6889 10
6890 1
6891 14
6892 11
6893 39
6894 1
6895 13
6896 10
6897 18
6898 1
6899 1
6900 3
6901 1
6902 52
6903 1
6904 1
6905 0
6906 6
6907 11
6908 24
6909 3
6910 1
6911 0
6912 17
6913 1
6914 16
6915 17
6916 0
6917 13
6918 3
6919 11
6920 30
6921 14
6922 11
6923 12
6924 9
6925 12
6926 6
6927 6
6928 0
6929 1
6930 1
6931 11
6932 6
6933 6
6934 6
6935 12
6936 11
6937 1
6938 22
6939 24
6940 39
6941 24
6942 11
6943 18
6944 3
6945 7
6946 6
6947 0
6948 29
6949 11
6950 6
6951 37
6952 0
6953 9
6954 11
6955 19
6956 11
6957 24
6958 18
6959 39
6960 24
6961 21
6962 22
6963 18
6964 9
6965 1
6966 7
6967 6
6968 1
6969 46
6970 3
6971 6
6972 6
6973 12
6974 1
6975 1
6976 3
6977 1
6978 1
6979 1
6980 24
6981 33
6982 0
6983 27
6984 1
6985 26
6986 3
6987 3
6988 26
6989 1
6990 11
6991 3
6992 1
6993 15
6994 1
6995 1
6996 11
6997 24
6998 18
6999 11
7000 12
7001 12
7002 1
7003 14
7004 3
7005 18
7006 6
7007 27
7008 12
7009 3
7010 3
7011 6
7012 1
7013 24
7014 41
7015 11
7016 13
7017 12
7018 24
7019 41
7020 1
7021 3
7022 15
7023 9
7024 1
7025 3
7026 6
7027 6
7028 18
7029 18
7030 19
7031 24
7032 1
7033 2
7034 24
7035 36
7036 6
7037 0
7038 18
7039 18
7040 36
7041 11
7042 3
7043 16
7044 11
7045 11
7046 1
7047 0
7048 7
7049 3
7050 11
7051 45
7052 6
7053 0
7054 6
7055 12
7056 11
7057 10
7058 10
7059 1
7060 11
7061 12
7062 44
7063 38
7064 30
7065 11
7066 1
7067 12
7068 24
7069 28
7070 10
7071 13
7072 1
7073 11
7074 25
7075 10
7076 1
7077 0
7078 1
7079 24
7080 3
7081 6
7082 1
7083 11
7084 11
7085 14
7086 3
7087 3
7088 37
7089 12
7090 36
7091 0
7092 12
7093 3
7094 3
7095 1
7096 53
7097 27
7098 10
7099 6
7100 13
7101 11
7102 3
7103 19
7104 3
7105 14
7106 1
7107 42
7108 6
7109 3
7110 11
7111 33
7112 12
7113 40
7114 34
7115 11
7116 13
7117 45
7118 12
7119 11
7120 14
7121 43
7122 6
7123 11
7124 6
7125 3
7126 1
7127 3
7128 12
7129 3
7130 10
7131 40
7132 6
7133 0
7134 12
7135 11
7136 24
7137 11
7138 0
7139 1
7140 1
7141 33
7142 1
7143 52
7144 0
7145 19
7146 1
7147 21
7148 1
7149 12
7150 1
7151 11
7152 1
7153 11
7154 40
7155 38
7156 26
7157 11
7158 5
7159 18
7160 0
7161 3
7162 52
7163 10
7164 1
7165 19
7166 10
7167 13
7168 27
7169 12
7170 12
7171 3
7172 24
7173 11
7174 6
7175 10
7176 26
7177 1
7178 11
7179 11
7180 45
7181 18
7182 11
7183 34
7184 14
7185 3
7186 6
7187 6
7188 24
7189 40
7190 13
7191 0
7192 12
7193 11
7194 37
7195 11
7196 11
7197 24
7198 12
7199 30
7200 12
7201 0
7202 11
7203 11
7204 33
7205 3
7206 12
7207 16
7208 6
7209 1
7210 0
7211 24
7212 0
7213 12
7214 14
7215 18
7216 13
7217 3
7218 6
7219 29
7220 22
7221 6
7222 1
7223 19
7224 2
7225 19
7226 11
7227 6
7228 3
7229 6
7230 3
7231 18
7232 18
7233 3
7234 24
7235 5
7236 11
7237 47
7238 14
7239 6
7240 3
7241 3
7242 11
7243 33
7244 30
7245 10
7246 12
7247 0
7248 1
7249 24
7250 20
7251 12
7252 1
7253 17
7254 12
7255 6
7256 6
7257 10
7258 21
7259 42
7260 0
7261 31
7262 6
7263 11
7264 1
7265 0
7266 18
7267 1
7268 28
7269 10
7270 6
7271 11
7272 12
7273 0
7274 1
7275 18
7276 15
7277 28
7278 18
7279 42
7280 15
7281 13
7282 3
7283 6
7284 3
7285 47
7286 12
7287 1
7288 1
7289 1
7290 12
7291 0
7292 43
7293 11
7294 13
7295 24
7296 13
7297 12
7298 29
7299 15
7300 11
7301 6
7302 6
7303 3
7304 1
7305 33
7306 0
7307 18
7308 1
7309 6
7310 18
7311 0
7312 3
7313 1
7314 11
7315 3
7316 11
7317 41
7318 33
7319 3
7320 12
7321 32
7322 5
7323 10
7324 27
7325 3
7326 11
7327 3
7328 4
7329 9
7330 12
7331 24
7332 11
7333 13
7334 12
7335 6
7336 15
7337 0
7338 3
7339 32
7340 18
7341 32
7342 5
7343 11
7344 33
7345 15
7346 12
7347 7
7348 12
7349 3
7350 12
7351 27
7352 24
7353 46
7354 12
7355 1
7356 11
7357 1
7358 43
7359 1
7360 10
7361 3
7362 1
7363 13
7364 7
7365 26
7366 1
7367 34
7368 11
7369 3
7370 24
7371 11
7372 6
7373 1
7374 17
7375 6
7376 1
7377 12
7378 39
7379 1
7380 6
7381 47
7382 27
7383 0
7384 24
7385 14
7386 1
7387 13
7388 24
7389 11
7390 35
7391 12
7392 18
7393 6
7394 3
7395 24
7396 1
7397 7
7398 12
7399 3
7400 27
7401 18
7402 12
7403 24
7404 1
7405 36
7406 6
7407 10
7408 24
7409 11
7410 0
7411 31
7412 11
7413 14
7414 26
7415 0
7416 1
7417 11
7418 18
7419 1
7420 10
7421 5
7422 6
7423 12
7424 0
7425 1
7426 12
7427 19
7428 1
7429 14
7430 1
7431 18
7432 18
7433 11
7434 34
7435 1
7436 0
7437 9
7438 6
7439 1
7440 1
7441 26
7442 12
7443 13
7444 28
7445 24
7446 5
7447 38
7448 6
7449 0
7450 11
7451 1
7452 11
7453 6
7454 1
7455 11
7456 6
7457 6
7458 12
7459 1
7460 19
7461 3
7462 9
7463 46
7464 18
7465 0
7466 53
7467 11
7468 25
7469 5
7470 1
7471 23
7472 3
7473 0
7474 6
7475 31
7476 1
7477 35
7478 3
7479 24
7480 3
7481 24
7482 6
7483 11
7484 0
7485 1
7486 11
7487 3
7488 30
7489 3
7490 1
7491 11
7492 12
7493 0
7494 23
7495 1
7496 39
7497 11
7498 1
7499 3
7500 11
7501 11
7502 37
7503 1
7504 11
7505 29
7506 6
7507 10
7508 0
7509 11
7510 1
7511 33
7512 14
7513 11
7514 11
7515 12
7516 6
7517 18
7518 36
7519 1
7520 16
7521 37
7522 42
7523 3
7524 15
7525 1
7526 2
7527 16
7528 42
7529 6
7530 38
7531 6
7532 19
7533 24
7534 11
7535 3
7536 3
7537 11
7538 1
7539 0
7540 9
7541 46
7542 3
7543 11
7544 24
7545 10
7546 24
7547 12
7548 11
7549 19
7550 0
7551 27
7552 1
7553 11
7554 11
7555 13
7556 13
7557 5
7558 18
7559 43
7560 1
7561 6
7562 10
7563 11
7564 13
7565 9
7566 5
7567 1
7568 1
7569 5
7570 6
7571 16
7572 11
7573 21
7574 11
7575 12
7576 11
7577 9
7578 11
7579 11
7580 12
7581 5
7582 47
7583 18
7584 5
7585 13
7586 0
7587 11
7588 1
7589 3
7590 13
7591 6
7592 11
7593 24
7594 46
7595 6
7596 0
7597 11
7598 3
7599 33
7600 13
7601 40
7602 21
7603 1
7604 31
7605 24
7606 43
7607 10
7608 15
7609 9
7610 11
7611 1
7612 7
7613 45
7614 3
7615 44
7616 5
7617 34
7618 6
7619 39
7620 12
7621 3
7622 1
7623 1
7624 13
7625 12
7626 13
7627 1
7628 6
7629 34
7630 6
7631 1
7632 39
7633 1
7634 3
7635 7
7636 3
7637 1
7638 6
7639 10
7640 6
7641 41
7642 11
7643 12
7644 0
7645 15
7646 11
7647 6
7648 11
7649 13
7650 18
7651 10
7652 24
7653 28
7654 13
7655 6
7656 3
7657 24
7658 1
7659 18
7660 12
7661 11
7662 18
7663 1
7664 24
7665 1
7666 13
7667 12
7668 10
7669 45
7670 1
7671 11
7672 38
7673 13
7674 34
7675 6
7676 11
7677 1
7678 11
7679 39
7680 10
7681 22
7682 24
7683 30
7684 18
7685 1
7686 12
7687 13
7688 19
7689 1
7690 48
7691 6
7692 3
7693 3
7694 11
7695 12
7696 12
7697 26
7698 11
7699 12
7700 23
7701 0
7702 11
7703 4
7704 11
7705 18
7706 6
7707 46
7708 39
7709 12
7710 32
7711 0
7712 11
7713 11
7714 1
7715 49
7716 37
7717 5
7718 12
7719 11
7720 3
7721 11
7722 0
7723 19
7724 41
7725 18
7726 42
7727 11
7728 12
7729 1
7730 11
7731 6
7732 11
7733 24
7734 11
7735 1
7736 30
7737 18
7738 31
7739 13
7740 6
7741 3
7742 6
7743 6
7744 11
7745 0
7746 11
7747 22
7748 24
7749 0
7750 1
7751 3
7752 38
7753 0
7754 27
7755 11
7756 24
7757 12
7758 9
7759 10
7760 13
7761 19
7762 10
7763 6
7764 6
7765 12
7766 10
7767 3
7768 6
7769 36
7770 12
7771 10
7772 3
7773 14
7774 1
7775 37
7776 12
7777 6
7778 11
7779 11
7780 47
7781 15
7782 45
7783 1
7784 11
7785 18
7786 11
7787 1
7788 1
7789 6
7790 23
7791 20
7792 11
7793 12
7794 12
7795 0
7796 10
7797 6
7798 12
7799 46
7800 10
7801 0
7802 6
7803 10
7804 6
7805 3
7806 29
7807 8
7808 18
7809 30
7810 24
7811 0
7812 25
7813 34
7814 15
7815 3
7816 6
7817 32
7818 6
7819 13
7820 31
7821 24
7822 3
7823 11
7824 36
7825 10
7826 34
7827 15
7828 24
7829 14
7830 12
7831 3
7832 6
7833 11
7834 3
7835 11
7836 18
7837 11
7838 26
7839 1
7840 11
7841 6
7842 14
7843 11
7844 12
7845 11
7846 12
7847 11
7848 1
7849 42
7850 14
7851 6
7852 6
7853 11
7854 0
7855 45
7856 1
7857 26
7858 6
7859 7
7860 11
7861 6
7862 12
7863 31
7864 7
7865 28
7866 24
7867 18
7868 10
7869 34
7870 6
7871 7
7872 2
7873 32
7874 13
7875 12
7876 3
7877 18
7878 18
7879 3
7880 43
7881 14
7882 14
7883 11
7884 1
7885 1
7886 53
7887 1
7888 1
7889 3
7890 11
7891 12
7892 12
7893 0
7894 0
7895 3
7896 19
7897 13
7898 27
7899 24
7900 6
7901 11
7902 24
7903 3
7904 1
7905 15
7906 0
7907 12
7908 24
7909 3
7910 27
7911 10
7912 3
7913 11
7914 1
7915 7
7916 0
7917 26
7918 11
7919 45
7920 1
7921 12
7922 11
7923 24
7924 6
7925 30
7926 18
7927 12
7928 3
7929 0
7930 3
7931 24
7932 17
7933 38
7934 11
7935 15
7936 10
7937 3
7938 13
7939 7
7940 21
7941 15
7942 18
7943 13
7944 38
7945 15
7946 12
7947 1
7948 11
7949 2
7950 6
7951 1
7952 20
7953 14
7954 18
7955 11
7956 6
7957 6
7958 50
7959 20
7960 12
7961 0
7962 6
7963 33
7964 0
7965 1
7966 33
7967 19
7968 9
7969 11
7970 19
7971 15
7972 11
7973 11
7974 3
7975 3
7976 0
7977 6
7978 12
7979 42
7980 14
7981 17
7982 42
7983 18
7984 3
7985 18
7986 3
7987 11
7988 11
7989 9
7990 11
7991 3
7992 1
7993 1
7994 0
7995 27
7996 32
7997 3
7998 10
7999 1
8000 1
8001 11
8002 18
8003 11
8004 1
8005 1
8006 45
8007 3
8008 6
8009 11
8010 3
8011 49
8012 24
8013 1
8014 4
8015 10
8016 13
8017 9
8018 1
8019 11
8020 6
8021 3
8022 41
8023 34
8024 30
8025 13
8026 30
8027 1
8028 11
8029 19
8030 11
8031 1
8032 7
8033 46
8034 6
8035 1
8036 18
8037 30
8038 12
8039 13
8040 20
8041 1
8042 1
8043 42
8044 17
8045 1
8046 1
8047 30
8048 0
8049 0
8050 17
8051 1
8052 15
8053 12
8054 24
8055 30
8056 11
8057 3
8058 3
8059 30
8060 6
8061 12
8062 24
8063 1
8064 1
8065 11
8066 3
8067 12
8068 12
8069 13
8070 0
8071 3
8072 43
8073 12
8074 24
8075 1
8076 19
8077 11
8078 3
8079 12
8080 39
8081 15
8082 1
8083 36
8084 0
8085 0
8086 20
8087 4
8088 0
8089 15
8090 12
8091 40
8092 1
8093 31
8094 6
8095 3
8096 3
8097 3
8098 3
8099 14
8100 3
8101 6
8102 1
8103 3
8104 1
8105 8
8106 29
8107 7
8108 11
8109 32
8110 33
8111 30
8112 1
8113 48
8114 13
8115 42
8116 1
8117 1
8118 10
8119 1
8120 32
8121 11
8122 12
8123 21
8124 41
8125 24
8126 2
8127 12
8128 15
8129 6
8130 11
8131 44
8132 1
8133 11
8134 12
8135 24
8136 0
8137 33
8138 6
8139 1
8140 2
8141 9
8142 6
8143 9
8144 26
8145 1
8146 0
8147 1
8148 30
8149 13
8150 1
8151 13
8152 1
8153 11
8154 1
8155 6
8156 24
8157 15
8158 0
8159 3
8160 24
8161 1
8162 11
8163 11
8164 0
8165 20
8166 11
8167 11
8168 11
8169 36
8170 32
8171 12
8172 9
8173 24
8174 6
8175 12
8176 1
8177 10
8178 14
8179 6
8180 10
8181 1
8182 43
8183 3
8184 20
8185 24
8186 13
8187 23
8188 3
8189 1
8190 12
8191 3
8192 3
8193 18
8194 9
8195 34
8196 5
8197 22
8198 24
8199 10
8200 1
8201 18
8202 1
8203 11
8204 6
8205 12
8206 7
8207 11
8208 15
8209 1
8210 1
8211 12
8212 6
8213 18
8214 11
8215 1
8216 42
8217 6
8218 2
8219 38
8220 34
8221 11
8222 3
8223 11
8224 11
8225 6
8226 6
8227 3
8228 1
8229 11
8230 31
8231 1
8232 8
8233 6
8234 18
8235 11
8236 11
8237 32
8238 6
8239 40
8240 28
8241 12
8242 33
8243 6
8244 6
8245 24
8246 24
8247 6
8248 31
8249 13
8250 12
8251 11
8252 24
8253 1
8254 20
8255 27
8256 25
8257 1
8258 18
8259 19
8260 18
8261 11
8262 6
8263 3
8264 26
8265 15
8266 1
8267 1
8268 10
8269 2
8270 10
8271 12
8272 1
8273 6
8274 39
8275 11
8276 6
8277 11
8278 18
8279 27
8280 6
8281 51
8282 36
8283 3
8284 24
8285 24
8286 1
8287 6
8288 15
8289 30
8290 11
8291 11
8292 11
8293 11
8294 31
8295 1
8296 15
8297 13
8298 18
8299 28
8300 24
8301 7
8302 6
8303 14
8304 6
8305 3
8306 3
8307 10
8308 1
8309 34
8310 11
8311 3
8312 30
8313 6
8314 11
8315 1
8316 3
8317 8
8318 1
8319 53
8320 11
8321 27
8322 0
8323 3
8324 20
8325 12
8326 1
8327 6
8328 1
8329 6
8330 30
8331 0
8332 10
8333 24
8334 12
8335 6
8336 1
8337 38
8338 12
8339 27
8340 3
8341 34
8342 3
8343 43
8344 24
8345 11
8346 12
8347 44
8348 30
8349 11
8350 15
8351 24
8352 1
8353 0
8354 17
8355 28
8356 40
8357 1
8358 7
8359 35
8360 6
8361 1
8362 10
8363 35
8364 3
8365 1
8366 11
8367 24
8368 6
8369 1
8370 1
8371 10
8372 11
8373 6
8374 11
8375 3
8376 15
8377 18
8378 21
8379 1
8380 14
8381 6
8382 1
8383 12
8384 43
8385 18
8386 11
8387 1
8388 45
8389 3
8390 0
8391 11
8392 1
8393 39
8394 1
8395 21
8396 6
8397 27
8398 10
8399 11
8400 0
8401 17
8402 30
8403 50
8404 0
8405 6
8406 8
8407 12
8408 24
8409 36
8410 6
8411 6
8412 24
8413 1
8414 52
8415 24
8416 10
8417 3
8418 24
8419 36
8420 18
8421 45
8422 11
8423 3
8424 11
8425 12
8426 33
8427 1
8428 10
8429 15
8430 3
8431 10
8432 13
8433 35
8434 6
8435 18
8436 24
8437 1
8438 3
8439 6
8440 11
8441 37
8442 40
8443 3
8444 0
8445 16
8446 24
8447 0
8448 12
8449 36
8450 13
8451 6
8452 13
8453 24
8454 17
8455 11
8456 0
8457 5
8458 23
8459 11
8460 10
8461 22
8462 1
8463 24
8464 1
8465 3
8466 24
8467 11
8468 28
8469 18
8470 1
8471 1
8472 11
8473 1
8474 3
8475 0
8476 12
8477 10
8478 24
8479 3
8480 3
8481 34
8482 11
8483 35
8484 18
8485 6
8486 29
8487 3
8488 18
8489 14
8490 6
8491 42
8492 17
8493 11
8494 12
8495 3
8496 1
8497 15
8498 12
8499 24
8500 26
8501 3
8502 11
8503 6
8504 6
8505 27
8506 24
8507 6
8508 3
8509 1
8510 12
8511 43
8512 3
8513 10
8514 12
8515 3
8516 12
8517 10
8518 11
8519 7
8520 12
8521 1
8522 40
8523 6
8524 12
8525 11
8526 1
8527 1
8528 12
8529 24
8530 24
8531 0
8532 21
8533 1
8534 1
8535 40
8536 24
8537 13
8538 1
8539 12
8540 24
8541 33
8542 5
8543 6
8544 18
8545 41
8546 3
8547 11
8548 11
8549 26
8550 3
8551 19
8552 10
8553 39
8554 1
8555 24
8556 29
8557 22
8558 3
8559 24
8560 0
8561 6
8562 1
8563 10
8564 6
8565 24
8566 1
8567 34
8568 6
8569 43
8570 1
8571 14
8572 13
8573 1
8574 12
8575 23
8576 15
8577 49
8578 6
8579 12
8580 24
8581 33
8582 1
8583 26
8584 19
8585 3
8586 11
8587 43
8588 50
8589 14
8590 11
8591 6
8592 8
8593 3
8594 11
8595 11
8596 33
8597 22
8598 11
8599 7
8600 1
8601 10
8602 3
8603 15
8604 18
8605 30
8606 3
8607 24
8608 6
8609 46
8610 39
8611 18
8612 10
8613 18
8614 6
8615 12
8616 1
8617 24
8618 24
8619 11
8620 11
8621 12
8622 13
8623 27
8624 0
8625 10
8626 12
8627 24
8628 19
8629 11
8630 7
8631 53
8632 1
8633 1
8634 11
8635 10
8636 10
8637 0
8638 31
8639 1
8640 47
8641 27
8642 11
8643 43
8644 0
8645 7
8646 1
8647 21
8648 6
8649 11
8650 32
8651 12
8652 6
8653 10
8654 3
8655 0
8656 14
8657 3
8658 9
8659 21
8660 18
8661 1
8662 0
8663 1
8664 3
8665 21
8666 37
8667 30
8668 12
8669 11
8670 0
8671 10
8672 0
8673 34
8674 7
8675 11
8676 27
8677 15
8678 12
8679 1
8680 27
8681 3
8682 28
8683 10
8684 10
8685 41
8686 24
8687 27
8688 11
8689 27
8690 12
8691 1
8692 3
8693 41
8694 10
8695 3
8696 11
8697 32
8698 37
8699 26
8700 6
8701 11
8702 11
8703 1
8704 13
8705 3
8706 19
8707 12
8708 18
8709 5
8710 15
8711 27
8712 32
8713 30
8714 3
8715 11
8716 0
8717 32
8718 43
8719 26
8720 1
8721 0
8722 30
8723 16
8724 6
8725 29
8726 11
8727 33
8728 18
8729 11
8730 39
8731 43
8732 3
8733 24
8734 23
8735 11
8736 6
8737 3
8738 6
8739 3
8740 32
8741 24
8742 48
8743 24
8744 31
8745 6
8746 41
8747 18
8748 12
8749 5
8750 12
8751 13
8752 1
8753 3
8754 37
8755 3
8756 0
8757 11
8758 18
8759 12
8760 12
8761 3
8762 23
8763 19
8764 11
8765 24
8766 6
8767 13
8768 6
8769 18
8770 15
8771 3
8772 18
8773 24
8774 2
8775 6
8776 0
8777 16
8778 1
8779 27
8780 3
8781 30
8782 18
8783 3
8784 1
8785 28
8786 43
8787 6
8788 0
8789 13
8790 6
8791 18
8792 20
8793 32
8794 24
8795 12
8796 0
8797 27
8798 13
8799 53
8800 6
8801 6
8802 20
8803 3
8804 13
8805 18
8806 50
8807 16
8808 23
8809 6
8810 3
8811 34
8812 0
8813 12
8814 6
8815 18
8816 1
8817 12
8818 0
8819 6
8820 25
8821 27
8822 43
8823 22
8824 6
8825 3
8826 3
8827 13
8828 13
8829 12
8830 24
8831 6
8832 11
8833 30
8834 21
8835 11
8836 11
8837 12
8838 18
8839 15
8840 18
8841 21
8842 1
8843 6
8844 20
8845 22
8846 40
8847 0
8848 6
8849 3
8850 29
8851 0
8852 10
8853 46
8854 18
8855 7
8856 44
8857 6
8858 18
8859 6
8860 24
8861 4
8862 27
8863 24
8864 43
8865 9
8866 1
8867 11
8868 11
8869 1
8870 3
8871 0
8872 11
8873 0
8874 12
8875 0
8876 17
8877 24
8878 13
8879 12
8880 1
8881 1
8882 51
8883 11
8884 6
8885 0
8886 6
8887 6
8888 30
8889 6
8890 29
8891 9
8892 1
8893 19
8894 1
8895 1
8896 1
8897 10
8898 1
8899 12
8900 0
8901 18
8902 11
8903 3
8904 11
8905 24
8906 0
8907 12
8908 11
8909 44
8910 14
8911 12
8912 1
8913 3
8914 13
8915 12
8916 15
8917 6
8918 1
8919 11
8920 1
8921 7
8922 18
8923 27
8924 34
8925 1
8926 31
8927 13
8928 1
8929 12
8930 24
8931 1
8932 24
8933 12
8934 21
8935 6
8936 26
8937 1
8938 15
8939 11
8940 49
8941 1
8942 11
8943 39
8944 6
8945 24
8946 11
8947 3
8948 14
8949 6
8950 0
8951 1
8952 22
8953 1
8954 1
8955 40
8956 13
8957 47
8958 33
8959 20
8960 3
8961 1
8962 15
8963 11
8964 24
8965 1
8966 1
8967 44
8968 11
8969 19
8970 0
8971 24
8972 10
8973 1
8974 1
8975 6
8976 11
8977 0
8978 11
8979 27
8980 13
8981 1
8982 6
8983 23
8984 3
8985 19
8986 3
8987 18
8988 24
8989 6
8990 12
8991 1
8992 32
8993 11
8994 34
8995 31
8996 41
8997 1
8998 12
8999 3
9000 36
9001 14
9002 1
9003 13
9004 1
9005 12
9006 6
9007 10
9008 11
9009 10
9010 46
9011 1
9012 24
9013 0
9014 1
9015 12
9016 3
9017 30
9018 30
9019 39
9020 14
9021 10
9022 24
9023 0
9024 11
9025 3
9026 12
9027 12
9028 42
9029 24
9030 1
9031 12
9032 1
9033 27
9034 1
9035 11
9036 18
9037 26
9038 0
9039 18
9040 5
9041 6
9042 26
9043 15
9044 31
9045 11
9046 24
9047 0
9048 3
9049 1
9050 18
9051 11
9052 13
9053 11
9054 11
9055 12
9056 11
9057 3
9058 11
9059 10
9060 1
9061 37
9062 1
9063 12
9064 1
9065 18
9066 18
9067 3
9068 25
9069 7
9070 11
9071 24
9072 1
9073 21
9074 27
9075 2
9076 32
9077 1
9078 0
9079 1
9080 1
9081 1
9082 3
9083 11
9084 0
9085 0
9086 1
9087 15
9088 6
9089 12
9090 1
9091 11
9092 1
9093 1
9094 10
9095 24
9096 1
9097 10
9098 12
9099 1
9100 0
9101 3
9102 11
9103 1
9104 32
9105 9
9106 12
9107 30
9108 7
9109 1
9110 18
9111 6
9112 3
9113 41
9114 1
9115 1
9116 6
9117 5
9118 29
9119 18
9120 26
9121 18
9122 0
9123 10
9124 11
9125 12
9126 1
9127 0
9128 10
9129 31
9130 3
9131 17
9132 6
9133 3
9134 1
9135 6
9136 24
9137 3
9138 37
9139 1
9140 22
9141 11
9142 3
9143 7
9144 6
9145 12
9146 12
9147 15
9148 20
9149 7
9150 6
9151 40
9152 1
9153 12
9154 30
9155 25
9156 10
9157 3
9158 43
9159 10
9160 3
9161 15
9162 3
9163 1
9164 1
9165 6
9166 24
9167 3
9168 12
9169 6
9170 12
9171 10
9172 24
9173 1
9174 11
9175 3
9176 14
9177 39
9178 1
9179 11
9180 1
9181 6
9182 3
9183 33
9184 6
9185 32
9186 10
9187 17
9188 10
9189 13
9190 41
9191 0
9192 27
9193 30
9194 19
9195 26
9196 13
9197 6
9198 0
9199 1
9200 10
9201 11
9202 2
9203 6
9204 1
9205 3
9206 13
9207 25
9208 13
9209 10
9210 6
9211 37
9212 50
9213 18
9214 24
9215 6
9216 6
9217 13
9218 11
9219 6
9220 10
9221 3
9222 13
9223 3
9224 12
9225 12
9226 1
9227 3
9228 1
9229 13
9230 12
9231 0
9232 43
9233 12
9234 15
9235 20
9236 6
9237 11
9238 7
9239 11
9240 19
9241 18
9242 12
9243 45
9244 3
9245 11
9246 3
9247 15
9248 11
9249 42
9250 11
9251 10
9252 14
9253 12
9254 11
9255 34
9256 1
9257 6
9258 33
9259 12
9260 30
9261 24
9262 15
9263 10
9264 1
9265 0
9266 15
9267 6
9268 6
9269 11
9270 0
9271 18
9272 18
9273 6
9274 10
9275 6
9276 3
9277 6
9278 13
9279 13
9280 12
9281 12
9282 1
9283 30
9284 11
9285 13
9286 0
9287 11
9288 6
9289 10
9290 53
9291 11
9292 10
9293 3
9294 23
9295 11
9296 1
9297 11
9298 12
9299 6
9300 0
9301 36
9302 7
9303 11
9304 0
9305 11
9306 14
9307 12
9308 39
9309 11
9310 16
9311 43
9312 44
9313 24
9314 34
9315 43
9316 24
9317 11
9318 34
9319 11
9320 16
9321 33
9322 6
9323 6
9324 30
9325 18
9326 3
9327 1
9328 12
9329 6
9330 45
9331 3
9332 6
9333 13
9334 6
9335 0
9336 39
9337 3
9338 27
9339 1
9340 0
9341 3
9342 10
9343 11
9344 6
9345 11
9346 42
9347 13
9348 13
9349 11
9350 32
9351 6
9352 1
9353 0
9354 18
9355 18
9356 11
9357 1
9358 44
9359 10
9360 26
9361 11
9362 6
9363 3
9364 3
9365 39
9366 3
9367 34
9368 3
9369 23
9370 11
9371 12
9372 3
9373 24
9374 18
9375 3
9376 10
9377 12
9378 11
9379 32
9380 24
9381 24
9382 20
9383 2
9384 30
9385 3
9386 1
9387 27
9388 11
9389 6
9390 31
9391 14
9392 15
9393 46
9394 23
9395 3
9396 3
9397 0
9398 12
9399 10
9400 18
9401 24
9402 3
9403 1
9404 35
9405 18
9406 37
9407 31
9408 12
9409 30
9410 12
9411 12
9412 12
9413 6
9414 3
9415 14
9416 12
9417 12
9418 3
9419 1
9420 30
9421 10
9422 6
9423 13
9424 27
9425 45
9426 24
9427 12
9428 0
9429 11
9430 12
9431 1
9432 30
9433 3
9434 3
9435 49
9436 10
9437 19
9438 11
9439 2
9440 13
9441 11
9442 1
9443 1
9444 27
9445 11
9446 6
9447 6
9448 11
9449 11
9450 11
9451 12
9452 6
9453 24
9454 18
9455 6
9456 24
9457 25
9458 1
9459 6
9460 6
9461 47
9462 11
9463 12
9464 1
9465 46
9466 12
9467 11
9468 12
9469 11
9470 13
9471 13
9472 13
9473 24
9474 24
9475 11
9476 3
9477 10
9478 6
9479 6
9480 1
9481 1
9482 12
9483 10
9484 12
9485 37
9486 15
9487 26
9488 26
9489 14
9490 19
9491 12
9492 18
9493 12
9494 1
9495 10
9496 1
9497 27
9498 0
9499 18
9500 2
9501 0
9502 12
9503 6
9504 11
9505 7
9506 10
9507 12
9508 3
9509 30
9510 3
9511 3
9512 1
9513 26
9514 0
9515 37
9516 11
9517 11
9518 43
9519 34
9520 42
9521 18
9522 24
9523 22
9524 0
9525 4
9526 12
9527 1
9528 0
9529 3
9530 1
9531 39
9532 12
9533 0
9534 3
9535 6
9536 6
9537 27
9538 10
9539 30
9540 15
9541 3
9542 0
9543 1
9544 0
9545 3
9546 47
9547 1
9548 25
9549 35
9550 36
9551 1
9552 11
9553 19
9554 12
9555 15
9556 11
9557 46
9558 12
9559 1
9560 6
9561 6
9562 3
9563 21
9564 25
9565 24
9566 12
9567 17
9568 11
9569 18
9570 24
9571 12
9572 0
9573 3
9574 23
9575 12
9576 3
9577 11
9578 1
9579 10
9580 13
9581 11
9582 3
9583 22
9584 1
9585 14
9586 0
9587 18
9588 3
9589 12
9590 11
9591 11
9592 24
9593 6
9594 6
9595 45
9596 12
9597 11
9598 27
9599 6
9600 23
9601 46
9602 22
9603 6
9604 24
9605 41
9606 40
9607 0
9608 1
9609 12
9610 3
9611 47
9612 3
9613 0
9614 1
9615 0
9616 19
9617 11
9618 6
9619 3
9620 18
9621 3
9622 12
9623 11
9624 12
9625 11
9626 11
9627 12
9628 18
9629 19
9630 18
9631 1
9632 11
9633 0
9634 41
9635 1
9636 11
9637 24
9638 10
9639 10
9640 1
9641 21
9642 12
9643 1
9644 3
9645 6
9646 12
9647 0
9648 12
9649 12
9650 3
9651 11
9652 10
9653 53
9654 12
9655 15
9656 49
9657 11
9658 1
9659 6
9660 15
9661 0
9662 11
9663 20
9664 32
9665 0
9666 27
9667 1
9668 6
9669 24
9670 3
9671 29
9672 11
9673 0
9674 42
9675 1
9676 3
9677 11
9678 1
9679 18
9680 1
9681 0
9682 7
9683 40
9684 12
9685 7
9686 3
9687 19
9688 15
9689 45
9690 10
9691 46
9692 0
9693 0
9694 3
9695 1
9696 11
9697 6
9698 3
9699 12
9700 11
9701 24
9702 0
9703 10
9704 3
9705 12
9706 6
9707 33
9708 45
9709 13
9710 1
9711 1
9712 13
9713 1
9714 11
9715 42
9716 0
9717 3
9718 24
9719 24
9720 21
9721 1
9722 0
9723 6
9724 6
9725 5
9726 28
9727 46
9728 37
9729 1
9730 6
9731 22
9732 4
9733 11
9734 6
9735 18
9736 13
9737 13
9738 13
9739 12
9740 3
9741 15
9742 21
9743 3
9744 11
9745 11
9746 14
9747 10
9748 14
9749 19
9750 1
9751 24
9752 11
9753 31
9754 11
9755 13
9756 6
9757 10
9758 11
9759 37
9760 42
9761 6
9762 12
9763 32
9764 1
9765 0
9766 3
9767 1
9768 24
9769 11
9770 27
9771 24
9772 34
9773 27
9774 13
9775 3
9776 12
9777 11
9778 18
9779 1
9780 22
9781 3
9782 1
9783 1
9784 24
9785 1
9786 13
9787 1
9788 15
9789 11
9790 6
9791 11
9792 24
9793 11
9794 17
9795 33
9796 12
9797 6
9798 1
9799 18
9800 23
9801 12
9802 12
9803 2
9804 0
9805 1
9806 3
9807 6
9808 6
9809 18
9810 19
9811 41
9812 1
9813 18
9814 1
9815 11
9816 6
9817 1
9818 17
9819 3
9820 42
9821 13
9822 9
9823 3
9824 26
9825 13
9826 32
9827 19
9828 2
9829 21
9830 12
9831 24
9832 3
9833 32
9834 7
9835 11
9836 24
9837 11
9838 12
9839 21
9840 3
9841 10
9842 10
9843 45
9844 18
9845 18
9846 21
9847 47
9848 24
9849 0
9850 11
9851 11
9852 3
9853 43
9854 1
9855 12
9856 14
9857 12
9858 5
9859 6
9860 11
9861 6
9862 6
9863 19
9864 3
9865 12
9866 1
9867 1
9868 11
9869 12
9870 0
9871 22
9872 6
9873 10
9874 23
9875 23
9876 11
9877 12
9878 3
9879 9
9880 35
9881 1
9882 0
9883 30
9884 7
9885 11
9886 3
9887 3
9888 6
9889 1
9890 37
9891 19
9892 3
9893 21
9894 24
9895 47
9896 14
9897 37
9898 11
9899 1
9900 37
9901 7
9902 11
9903 1
9904 30
9905 32
9906 1
9907 1
9908 32
9909 50
9910 0
9911 6
9912 3
9913 7
9914 10
9915 18
9916 18
9917 1
9918 32
9919 37
9920 19
9921 12
9922 43
9923 6
9924 19
9925 11
9926 10
9927 10
9928 1
9929 10
9930 24
9931 23
9932 1
9933 11
9934 24
9935 1
9936 21
9937 7
9938 37
9939 52
9940 3
9941 37
9942 18
9943 6
9944 37
9945 18
9946 0
9947 10
9948 11
9949 36
9950 27
9951 3
9952 6
9953 7
9954 24
9955 11
9956 3
9957 0
9958 24
9959 16
9960 1
9961 12
9962 13
9963 11
9964 6
9965 1
9966 6
9967 1
9968 7
9969 31
9970 15
9971 10
9972 1
9973 3
9974 41
9975 26
9976 1
9977 19
9978 24
9979 11
9980 12
9981 1
9982 12
9983 10
9984 1
9985 0
9986 1
9987 36
9988 24
9989 3
9990 18
9991 1
9992 1
9993 11
9994 1
9995 3
9996 7
9997 34
9998 13
9999 1
10000 6
10001 6
10002 12
10003 11
10004 3
10005 30
10006 10
10007 41
10008 1
10009 6
10010 24
10011 1
10012 12
10013 15
10014 1
10015 3
10016 12
10017 22
10018 11
10019 11
10020 19
10021 3
10022 6
10023 11
10024 20
10025 3
10026 0
10027 3
10028 23
10029 18
10030 12
10031 15
10032 3
10033 12
10034 3
10035 10
10036 23
10037 23
10038 10
10039 12
10040 30
10041 11
10042 49
10043 1
10044 31
10045 14
10046 3
10047 1
10048 16
10049 3
10050 11
10051 3
10052 1
10053 3
10054 0
10055 11
10056 6
10057 11
10058 12
10059 15
10060 1
10061 1
10062 12
10063 14
10064 24
10065 1
10066 10
10067 1
10068 26
10069 1
10070 14
10071 0
10072 11
10073 10
10074 39
10075 9
10076 3
10077 3
10078 6
10079 16
10080 1
10081 10
10082 10
10083 12
10084 12
10085 15
10086 46
10087 16
10088 0
10089 11
10090 0
10091 11
10092 11
10093 42
10094 45
10095 13
10096 50
10097 11
10098 7
10099 1
10100 18
10101 12
10102 11
10103 19
10104 3
10105 24
10106 24
10107 6
10108 12
10109 3
10110 1
10111 32
10112 13
10113 43
10114 53
10115 18
10116 24
10117 3
10118 10
10119 33
10120 42
10121 3
10122 19
10123 6
10124 44
10125 11
10126 13
10127 11
10128 1
10129 3
10130 24
10131 12
10132 7
10133 6
10134 9
10135 1
10136 0
10137 0
10138 3
10139 6
10140 6
10141 3
10142 3
10143 6
10144 18
10145 6
10146 13
10147 10
10148 6
10149 3
10150 11
10151 3
10152 11
10153 12
10154 1
10155 12
10156 5
10157 19
10158 6
10159 6
10160 30
10161 6
10162 41
10163 10
10164 1
10165 10
10166 3
10167 30
10168 12
10169 0
10170 6
10171 32
10172 43
10173 27
10174 6
10175 23
10176 6
10177 12
10178 3
10179 44
10180 1
10181 13
10182 13
10183 6
10184 37
10185 7
10186 28
10187 6
10188 28
10189 21
10190 13
10191 27
10192 7
10193 19
10194 1
10195 15
10196 10
10197 11
10198 6
10199 33
10200 11
10201 11
10202 1
10203 24
10204 6
10205 11
10206 1
10207 31
10208 11
10209 25
10210 43
10211 3
10212 11
10213 53
10214 11
10215 24
10216 24
10217 36
10218 16
10219 30
10220 1
10221 18
10222 1
10223 12
10224 11
10225 6
10226 10
10227 1
10228 13
10229 24
10230 19
10231 14
10232 12
10233 1
10234 11
10235 1
10236 23
10237 1
10238 3
10239 0
10240 11
10241 1
10242 11
10243 13
10244 24
10245 3
10246 14
10247 4
10248 6
10249 41
10250 12
10251 2
10252 11
10253 12
10254 6
10255 0
10256 3
10257 11
10258 6
10259 46
10260 1
10261 6
10262 33
10263 13
10264 32
10265 24
10266 0
10267 12
10268 0
10269 10
10270 1
10271 0
10272 0
10273 3
10274 44
10275 6
10276 33
10277 1
10278 6
10279 31
10280 11
10281 19
10282 6
10283 6
10284 0
10285 10
10286 14
10287 44
10288 42
10289 1
10290 6
10291 11
10292 11
10293 11
10294 1
10295 24
10296 11
10297 6
10298 10
10299 10
10300 7
10301 11
10302 0
10303 4
10304 3
10305 11
10306 21
10307 0
10308 14
10309 24
10310 1
10311 0
10312 24
10313 12
10314 12
10315 10
10316 38
10317 30
10318 12
10319 13
10320 1
10321 34
10322 13
10323 3
10324 12
10325 12
10326 42
10327 32
10328 14
10329 24
10330 3
10331 12
10332 3
10333 1
10334 7
10335 13
10336 7
10337 1
10338 12
10339 2
10340 1
10341 1
10342 12
10343 39
10344 24
10345 11
10346 27
10347 6
10348 15
10349 43
10350 24
10351 3
10352 11
10353 11
10354 14
10355 28
10356 24
10357 16
10358 12
10359 1
10360 3
10361 13
10362 23
10363 6
10364 15
10365 0
10366 15
10367 24
10368 13
10369 38
10370 12
10371 18
10372 6
10373 3
10374 6
10375 3
10376 6
10377 6
10378 27
10379 0
10380 6
10381 3
10382 20
10383 0
10384 1
10385 12
10386 12
10387 11
10388 6
10389 30
10390 1
10391 11
10392 1
10393 10
10394 1
10395 3
10396 6
10397 11
10398 12
10399 0
10400 3
10401 1
10402 1
10403 1
10404 11
10405 14
10406 11
10407 1
10408 19
10409 11
10410 6
10411 12
10412 1
10413 12
10414 3
10415 12
10416 24
10417 29
10418 1
10419 15
10420 6
10421 0
10422 11
10423 42
10424 14
10425 11
10426 27
10427 11
10428 41
10429 18
10430 3
10431 14
10432 1
10433 33
10434 6
10435 11
10436 19
10437 1
10438 20
10439 11
10440 32
10441 11
10442 1
10443 43
10444 6
10445 1
10446 1
10447 11
10448 10
10449 7
10450 3
10451 1
10452 11
10453 9
10454 19
10455 24
10456 3
10457 11
10458 6
10459 6
10460 14
10461 31
10462 24
10463 0
10464 15
10465 1
10466 11
10467 3
10468 3
10469 12
10470 1
10471 1
10472 12
10473 32
10474 1
10475 6
10476 12
10477 10
10478 2
10479 18
10480 1
10481 10
10482 11
10483 11
10484 23
10485 12
10486 6
10487 53
10488 0
10489 11
10490 30
10491 37
10492 6
10493 18
10494 1
10495 0
10496 6
10497 29
10498 12
10499 11
10500 1
10501 24
10502 6
10503 1
10504 19
10505 24
10506 6
10507 10
10508 43
10509 13
10510 11
10511 3
10512 6
10513 0
10514 11
10515 6
10516 50
10517 53
10518 19
10519 41
10520 40
10521 29
10522 3
10523 1
10524 46
10525 10
10526 42
10527 6
10528 1
10529 0
10530 10
10531 1
10532 11
10533 14
10534 12
10535 3
10536 39
10537 52
10538 6
10539 23
10540 52
10541 3
10542 24
10543 17
10544 40
10545 12
10546 27
10547 22
10548 12
10549 43
10550 3
10551 6
10552 1
10553 24
10554 37
10555 12
10556 24
10557 18
10558 11
10559 10
10560 0
10561 12
10562 11
10563 3
10564 13
10565 3
10566 29
10567 10
10568 1
10569 41
10570 6
10571 11
10572 3
10573 12
10574 1
10575 3
10576 11
10577 3
10578 18
10579 10
10580 2
10581 11
10582 32
10583 6
10584 11
10585 1
10586 19
10587 1
10588 1
10589 11
10590 10
10591 3
10592 10
10593 13
10594 6
10595 11
10596 24
10597 0
10598 1
10599 13
10600 24
10601 6
10602 0
10603 12
10604 1
10605 6
10606 1
10607 45
10608 6
10609 1
10610 1
10611 3
10612 11
10613 1
10614 17
10615 16
10616 4
10617 11
10618 26
10619 17
10620 24
10621 26
10622 7
10623 29
10624 0
10625 5
10626 18
10627 43
10628 12
10629 1
10630 6
10631 13
10632 6
10633 15
10634 19
10635 6
10636 6
10637 0
10638 1
10639 24
10640 6
10641 18
10642 12
10643 15
10644 0
10645 26
10646 12
10647 10
10648 1
10649 12
10650 30
10651 7
10652 3
10653 42
10654 41
10655 20
10656 1
10657 3
10658 12
10659 49
10660 19
10661 47
10662 1
10663 11
10664 1
10665 11
10666 12
10667 12
10668 1
10669 24
10670 11
10671 3
10672 10
10673 7
10674 7
10675 11
10676 13
10677 24
10678 1
10679 25
10680 43
10681 11
10682 3
10683 1
10684 1
10685 1
10686 11
10687 12
10688 27
10689 9
10690 24
10691 15
10692 1
10693 1
10694 11
10695 19
10696 15
10697 6
10698 6
10699 24
10700 11
10701 1
10702 10
10703 1
10704 18
10705 1
10706 11
10707 10
10708 19
10709 15
10710 18
10711 6
10712 3
10713 41
10714 15
10715 6
10716 37
10717 11
10718 0
10719 10
10720 3
10721 37
10722 41
10723 18
10724 1
10725 0
10726 0
10727 12
10728 18
10729 1
10730 46
10731 53
10732 1
10733 18
10734 39
10735 20
10736 14
10737 15
10738 11
10739 3
10740 3
10741 6
10742 24
10743 6
10744 1
10745 27
10746 11
10747 0
10748 34
10749 11
10750 11
10751 6
10752 1
10753 24
10754 19
10755 3
10756 24
10757 3
10758 12
10759 38
10760 1
10761 11
10762 11
10763 27
10764 1
10765 3
10766 12
10767 24
10768 6
10769 19
10770 1
10771 12
10772 3
10773 6
10774 11
10775 27
10776 14
10777 12
10778 3
10779 13
10780 11
10781 10
10782 31
10783 6
10784 6
10785 42
10786 6
10787 0
10788 3
10789 15
10790 15
10791 1
10792 31
10793 0
10794 24
10795 11
10796 10
10797 14
10798 1
10799 12
10800 11
10801 6
10802 1
10803 18
10804 35
10805 38
10806 20
10807 18
10808 13
10809 22
10810 12
10811 24
10812 6
10813 33
10814 12
10815 3
10816 6
10817 6
10818 11
10819 3
10820 1
10821 10
10822 6
10823 12
10824 1
10825 11
10826 1
10827 6
10828 24
10829 6
10830 6
10831 12
10832 2
10833 11
10834 6
10835 40
10836 52
10837 1
10838 1
10839 46
10840 1
10841 11
10842 10
10843 6
10844 16
10845 24
10846 6
10847 39
10848 12
10849 11
10850 22
10851 6
10852 1
10853 45
10854 24
10855 1
10856 1
10857 0
10858 27
10859 13
10860 12
10861 13
10862 11
10863 12
10864 6
10865 21
10866 11
10867 11
10868 6
10869 13
10870 11
10871 15
10872 1
10873 31
10874 1
10875 14
10876 18
10877 30
10878 9
10879 12
10880 3
10881 1
10882 0
10883 27
10884 11
10885 11
10886 13
10887 18
10888 13
10889 11
10890 24
10891 12
10892 24
10893 1
10894 7
10895 24
10896 12
10897 52
10898 11
10899 3
10900 6
10901 6
10902 1
10903 12
10904 6
10905 16
10906 36
10907 22
10908 3
10909 6
10910 3
10911 11
10912 36
10913 41
10914 27
10915 19
10916 3
10917 24
10918 6
10919 30
10920 11
10921 0
10922 12
10923 3
10924 3
10925 16
10926 3
10927 13
10928 3
10929 3
10930 12
10931 1
10932 6
10933 6
10934 6
10935 6
10936 7
10937 1
10938 6
10939 3
10940 11
10941 18
10942 30
10943 29
10944 1
10945 11
10946 11
10947 3
10948 11
10949 11
10950 1
10951 5
10952 11
10953 22
10954 1
10955 24
10956 13
10957 6
10958 40
10959 0
10960 3
10961 9
10962 29
10963 3
10964 18
10965 0
10966 1
10967 3
10968 11
10969 46
10970 1
10971 20
10972 1
10973 6
10974 0
10975 3
10976 19
10977 12
10978 11
10979 11
10980 1
10981 6
10982 18
10983 1
10984 12
10985 10
10986 3
10987 18
10988 24
10989 8
10990 3
10991 24
10992 3
10993 11
10994 13
10995 11
10996 1
10997 11
10998 12
10999 1
11000 18
11001 12
11002 1
11003 25
11004 15
11005 46
11006 3
11007 45
11008 17
11009 3
11010 11
11011 11
11012 1
11013 42
11014 15
11015 24
11016 1
11017 19
11018 42
11019 13
11020 12
11021 1
11022 6
11023 1
11024 10
11025 11
11026 46
11027 0
11028 11
11029 14
11030 45
11031 24
11032 53
11033 37
11034 1
11035 6
11036 10
11037 12
11038 1
11039 11
11040 1
11041 3
11042 3
11043 11
11044 1
11045 12
11046 3
11047 0
11048 11
11049 0
11050 3
11051 6
11052 10
11053 6
11054 1
11055 1
11056 3
11057 11
11058 0
11059 1
11060 18
11061 14
11062 10
11063 21
11064 9
11065 1
11066 24
11067 37
11068 3
11069 24
11070 1
11071 6
11072 3
11073 24
11074 11
11075 11
11076 31
11077 19
11078 1
11079 12
11080 24
11081 1
11082 1
11083 6
11084 16
11085 0
11086 4
11087 11
11088 39
11089 18
11090 1
11091 19
11092 1
11093 1
11094 6
11095 14
11096 29
11097 36
11098 1
11099 10
11100 5
11101 1
11102 5
11103 11
11104 6
11105 24
11106 24
11107 20
11108 1
11109 34
11110 1
11111 24
11112 1
11113 32
11114 1
11115 11
11116 7
11117 11
11118 23
11119 43
11120 22
11121 18
11122 11
11123 1
11124 3
11125 0
11126 11
11127 30
11128 10
11129 12
11130 1
11131 17
11132 10
11133 12
11134 1
11135 6
11136 0
11137 49
11138 6
11139 3
11140 6
11141 11
11142 11
11143 0
11144 24
11145 41
11146 22
11147 12
11148 0
11149 24
11150 43
11151 31
11152 24
11153 6
11154 1
11155 3
11156 18
11157 18
11158 41
11159 18
11160 43
11161 24
11162 1
11163 24
11164 1
11165 1
11166 42
11167 1
11168 6
11169 1
11170 6
11171 14
11172 53
11173 43
11174 11
11175 24
11176 11
11177 12
11178 6
11179 10
11180 27
11181 18
11182 10
11183 3
11184 6
11185 1
11186 0
11187 18
11188 43
11189 3
11190 1
11191 26
11192 27
11193 6
11194 11
11195 3
11196 12
11197 3
11198 11
11199 1
11200 20
11201 10
11202 1
11203 20
11204 6
11205 6
11206 18
11207 17
11208 0
11209 1
11210 24
11211 1
11212 31
11213 6
11214 3
11215 10
11216 30
11217 24
11218 13
11219 11
11220 1
11221 3
11222 34
11223 12
11224 0
11225 6
11226 6
11227 3
11228 11
11229 6
11230 12
11231 6
11232 10
11233 3
11234 33
11235 6
11236 30
11237 24
11238 12
11239 1
11240 13
11241 6
11242 3
11243 3
11244 10
11245 11
11246 11
11247 18
11248 50
11249 18
11250 34
11251 11
11252 12
11253 6
11254 11
11255 12
11256 18
11257 12
11258 12
11259 47
11260 0
11261 11
11262 34
11263 12
11264 0
11265 7
11266 10
11267 1
11268 30
11269 11
11270 3
11271 39
11272 1
11273 3
11274 1
11275 1
11276 1
11277 50
11278 11
11279 11
11280 6
11281 11
11282 1
11283 11
11284 28
11285 46
11286 3
11287 11
11288 16
11289 7
11290 6
11291 22
11292 3
11293 11
11294 6
11295 15
11296 12
11297 12
11298 0
11299 11
11300 12
11301 18
11302 1
11303 30
11304 29
11305 32
11306 10
11307 17
11308 49
11309 47
11310 40
11311 42
11312 35
11313 0
11314 3
11315 12
11316 16
11317 19
11318 22
11319 0
11320 11
11321 3
11322 18
11323 6
11324 10
11325 30
11326 6
11327 24
11328 11
11329 1
11330 18
11331 0
11332 3
11333 12
11334 3
11335 6
11336 3
11337 3
11338 3
11339 12
11340 29
11341 18
11342 11
11343 44
11344 6
11345 7
11346 41
11347 13
11348 28
11349 12
11350 16
11351 41
11352 3
11353 10
11354 11
11355 19
11356 3
11357 1
11358 6
11359 1
11360 11
11361 1
11362 6
11363 13
11364 1
11365 24
11366 46
11367 24
11368 23
11369 11
11370 32
11371 10
11372 7
11373 13
11374 53
11375 27
11376 18
11377 18
11378 18
11379 1
11380 6
11381 11
11382 7
11383 3
11384 1
11385 2
11386 33
11387 11
11388 40
11389 24
11390 5
11391 3
11392 19
11393 24
11394 11
11395 3
11396 1
11397 2
11398 6
11399 3
11400 4
11401 3
11402 11
11403 38
11404 1
11405 21
11406 1
11407 33
11408 27
11409 12
11410 0
11411 46
11412 1
11413 10
11414 30
11415 10
11416 37
11417 18
11418 12
11419 1
11420 15
11421 0
11422 6
11423 0
11424 11
11425 43
11426 18
11427 11
11428 16
11429 0
11430 3
11431 24
11432 6
11433 1
11434 11
11435 53
11436 6
11437 1
11438 3
11439 3
11440 1
11441 24
11442 1
11443 1
11444 12
11445 9
11446 19
11447 0
11448 27
11449 12
11450 11
11451 24
11452 1
11453 43
11454 1
11455 1
11456 1
11457 1
11458 19
11459 18
11460 13
11461 6
11462 3
11463 16
11464 12
11465 37
11466 19
11467 11
11468 42
11469 12
11470 12
11471 10
11472 19
11473 31
11474 30
11475 6
11476 10
11477 7
11478 15
11479 3
11480 10
11481 11
11482 0
11483 11
11484 14
11485 37
11486 3
11487 14
11488 11
11489 12
11490 3
11491 1
11492 36
11493 1
11494 18
11495 18
11496 12
11497 3
11498 3
11499 1
11500 11
11501 10
11502 26
11503 1
11504 47
11505 1
11506 6
11507 8
11508 11
11509 13
11510 6
11511 3
11512 3
11513 1
11514 38
11515 12
11516 18
11517 1
11518 1
11519 18
11520 1
11521 12
11522 38
11523 6
11524 1
11525 32
11526 28
11527 6
11528 26
11529 12
11530 14
11531 11
11532 11
11533 1
11534 11
11535 0
11536 1
11537 1
11538 3
11539 15
11540 11
11541 3
11542 53
11543 1
11544 27
11545 23
11546 32
11547 11
11548 1
11549 11
11550 6
11551 6
11552 11
11553 0
11554 11
11555 6
11556 11
11557 27
11558 12
11559 36
11560 12
11561 13
11562 7
11563 3
11564 18
11565 3
11566 10
11567 11
11568 15
11569 24
11570 11
11571 1
11572 41
11573 1
11574 11
11575 37
11576 0
11577 1
11578 13
11579 0
11580 23
11581 3
11582 3
11583 1
11584 46
11585 46
11586 1
11587 1
11588 3
11589 0
11590 12
11591 0
11592 3
11593 24
11594 18
11595 12
11596 13
11597 42
11598 38
11599 22
11600 28
11601 6
11602 24
11603 10
11604 18
11605 13
11606 6
11607 42
11608 1
11609 6
11610 41
11611 6
11612 11
11613 28
11614 6
11615 18
11616 1
11617 5
11618 1
11619 6
11620 6
11621 46
11622 0
11623 10
11624 6
11625 24
11626 15
11627 18
11628 11
11629 12
11630 3
11631 3
11632 12
11633 3
11634 33
11635 12
11636 18
11637 11
11638 1
11639 24
11640 37
11641 11
11642 0
11643 45
11644 11
11645 3
11646 6
11647 42
11648 42
11649 1
11650 0
11651 0
11652 1
11653 12
11654 45
11655 30
11656 0
11657 1
11658 3
11659 11
11660 23
11661 46
11662 2
11663 10
11664 1
11665 34
11666 1
11667 11
11668 5
11669 43
11670 0
11671 50
11672 0
11673 1
11674 9
11675 6
11676 1
11677 3
11678 0
11679 11
11680 42
11681 11
11682 1
11683 43
11684 25
11685 27
11686 43
11687 19
11688 30
11689 6
11690 30
11691 1
11692 24
11693 1
11694 24
11695 3
11696 0
11697 6
11698 49
11699 27
11700 1
11701 41
11702 1
11703 3
11704 21
11705 7
11706 6
11707 3
11708 12
11709 11
11710 1
11711 6
11712 11
11713 10
11714 12
11715 0
11716 39
11717 24
11718 24
11719 11
11720 10
11721 27
11722 3
11723 43
11724 1
11725 5
11726 19
11727 11
11728 24
11729 11
11730 39
11731 24
11732 6
11733 0
11734 27
11735 17
11736 3
11737 3
11738 41
11739 6
11740 36
11741 1
11742 6
11743 42
11744 12
11745 6
11746 11
11747 1
11748 26
11749 5
11750 21
11751 21
11752 13
11753 15
11754 28
11755 12
11756 3
11757 6
11758 13
11759 18
11760 20
11761 24
11762 11
11763 30
11764 6
11765 3
11766 24
11767 46
11768 6
11769 6
11770 24
11771 10
11772 37
11773 6
11774 11
11775 12
11776 1
11777 6
11778 3
11779 46
11780 1
11781 37
11782 13
11783 3
11784 15
11785 0
11786 3
11787 18
11788 12
11789 33
11790 37
11791 42
11792 11
11793 1
11794 1
11795 13
11796 11
11797 24
11798 22
11799 12
11800 19
11801 6
11802 3
11803 13
11804 30
11805 11
11806 0
11807 21
11808 12
11809 3
11810 1
11811 10
11812 3
11813 1
11814 37
11815 19
11816 34
11817 1
11818 18
11819 1
11820 0
11821 13
11822 24
11823 0
11824 24
11825 11
11826 24
11827 10
11828 47
11829 1
11830 37
11831 10
11832 26
11833 12
11834 4
11835 13
11836 6
11837 18
11838 0
11839 11
11840 1
11841 11
11842 11
11843 10
11844 6
11845 24
11846 23
11847 3
11848 5
11849 24
11850 18
11851 11
11852 30
11853 1
11854 18
11855 6
11856 10
11857 10
11858 10
11859 6
11860 6
11861 3
11862 6
11863 3
11864 15
11865 18
11866 3
11867 6
11868 14
11869 6
11870 33
11871 34
11872 1
11873 13
11874 1
11875 3
11876 1
11877 12
11878 10
11879 18
11880 3
11881 1
11882 1
11883 6
11884 3
11885 10
11886 16
11887 1
11888 10
11889 42
11890 3
11891 6
11892 6
11893 34
11894 12
11895 24
11896 6
11897 24
11898 24
11899 1
11900 0
11901 45
11902 3
11903 22
11904 11
11905 24
11906 3
11907 0
11908 42
11909 7
11910 30
11911 11
11912 3
11913 36
11914 1
11915 7
11916 3
11917 49
11918 11
11919 49
11920 6
11921 3
11922 5
11923 0
11924 10
11925 4
11926 18
11927 24
11928 41
11929 48
11930 13
11931 14
11932 1
11933 3
11934 27
11935 1
11936 17
11937 17
11938 3
11939 24
11940 39
11941 10
11942 30
11943 10
11944 13
11945 12
11946 13
11947 13
11948 10
11949 18
11950 12
11951 11
11952 15
11953 1
11954 3
11955 40
11956 3
11957 1
11958 3
11959 1
11960 24
11961 11
11962 6
11963 7
11964 1
11965 40
11966 12
11967 1
11968 1
11969 15
11970 10
11971 22
11972 1
11973 12
11974 0
11975 34
11976 6
11977 6
11978 18
11979 1
11980 6
11981 14
11982 18
11983 11
11984 1
11985 11
11986 11
11987 1
11988 3
11989 12
11990 0
11991 0
11992 1
11993 11
11994 6
11995 12
11996 1
11997 3
11998 6
11999 12
12000 12
12001 1
12002 12
12003 32
12004 27
12005 24
12006 11
12007 3
12008 47
12009 1
12010 12
12011 12
12012 15
12013 12
12014 3
12015 10
12016 6
12017 12
12018 1
12019 3
12020 1
12021 4
12022 29
12023 36
12024 14
12025 10
12026 6
12027 11
12028 12
12029 4
12030 3
12031 6
12032 27
12033 1
12034 6
12035 7
12036 30
12037 6
12038 0
12039 11
12040 18
12041 1
12042 3
12043 30
12044 24
12045 1
12046 45
12047 11
12048 19
12049 0
12050 11
12051 18
12052 33
12053 5
12054 18
12055 11
12056 3
12057 16
12058 15
12059 16
12060 3
12061 6
12062 1
12063 6
12064 1
12065 53
12066 26
12067 13
12068 32
12069 19
12070 40
12071 6
12072 3
12073 45
12074 6
12075 14
12076 12
12077 34
12078 18
12079 11
12080 11
12081 7
12082 0
12083 12
12084 24
12085 5
12086 50
12087 12
12088 1
12089 40
12090 19
12091 24
12092 14
12093 1
12094 6
12095 27
12096 41
12097 11
12098 37
12099 21
12100 0
12101 24
12102 6
12103 24
12104 15
12105 18
12106 1
12107 3
12108 11
12109 1
12110 19
12111 6
12112 0
12113 1
12114 41
12115 30
12116 11
12117 1
12118 3
12119 36
12120 37
12121 11
12122 15
12123 1
12124 11
12125 1
12126 6
12127 44
12128 11
12129 6
12130 3
12131 24
12132 1
12133 1
12134 45
12135 3
12136 11
12137 23
12138 24
12139 1
12140 53
12141 0
12142 1
12143 1
12144 42
12145 12
12146 2
12147 9
12148 49
12149 52
12150 14
12151 24
12152 36
12153 0
12154 7
12155 1
12156 24
12157 3
12158 19
12159 42
12160 18
12161 3
12162 6
12163 33
12164 10
12165 5
12166 3
12167 30
12168 9
12169 1
12170 32
12171 6
12172 30
12173 11
12174 11
12175 1
12176 1
12177 24
12178 26
12179 10
12180 12
12181 21
12182 42
12183 19
12184 6
12185 6
12186 15
12187 11
12188 15
12189 12
12190 13
12191 1
12192 11
12193 27
12194 10
12195 24
12196 10
12197 33
12198 1
12199 0
12200 1
12201 27
12202 11
12203 3
12204 0
12205 12
12206 12
12207 24
12208 11
12209 5
12210 6
12211 5
12212 3
12213 0
12214 6
12215 38
12216 18
12217 39
12218 11
12219 14
12220 0
12221 34
12222 3
12223 41
12224 3
12225 37
12226 24
12227 6
12228 1
12229 11
12230 3
12231 11
12232 41
12233 3
12234 11
12235 6
12236 1
12237 19
12238 24
12239 13
12240 43
12241 5
12242 6
12243 13
12244 24
12245 11
12246 11
12247 1
12248 3
12249 11
12250 14
12251 10
12252 12
12253 24
12254 30
12255 3
12256 32
12257 24
12258 24
12259 14
12260 14
12261 3
12262 11
12263 24
12264 11
12265 11
12266 0
12267 12
12268 16
12269 6
12270 11
12271 43
12272 3
12273 11
12274 0
12275 6
12276 29
12277 7
12278 11
12279 38
12280 1
12281 12
12282 43
12283 12
12284 38
12285 11
12286 9
12287 30
12288 1
12289 1
12290 1
12291 24
12292 1
12293 18
12294 1
12295 11
12296 15
12297 41
12298 1
12299 6
12300 28
12301 24
12302 1
12303 10
12304 1
12305 11
12306 12
12307 11
12308 37
12309 15
12310 45
12311 41
12312 12
12313 14
12314 0
12315 6
12316 18
12317 1
12318 13
12319 53
12320 13
12321 3
12322 40
12323 0
12324 24
12325 3
12326 18
12327 11
12328 0
12329 13
12330 12
12331 1
12332 13
12333 1
12334 6
12335 24
12336 11
12337 13
12338 1
12339 1
12340 14
12341 6
12342 24
12343 11
12344 13
12345 11
12346 6
12347 3
12348 1
12349 21
12350 1
12351 18
12352 15
12353 10
12354 6
12355 10
12356 1
12357 13
12358 24
12359 5
12360 33
12361 1
12362 12
12363 2
12364 6
12365 6
12366 11
12367 11
12368 6
12369 1
12370 28
12371 1
12372 12
12373 12
12374 1
12375 9
12376 0
12377 13
12378 1
12379 39
12380 24
12381 15
12382 18
12383 11
12384 12
12385 1
12386 10
12387 3
12388 6
12389 22
12390 18
12391 11
12392 13
12393 15
12394 30
12395 5
12396 7
12397 24
12398 1
12399 5
12400 18
12401 11
12402 11
12403 1
12404 8
12405 1
12406 3
12407 1
12408 46
12409 13
12410 13
12411 6
12412 24
12413 1
12414 13
12415 1
12416 12
12417 6
12418 15
12419 11
12420 3
12421 1
12422 30
12423 11
12424 11
12425 19
12426 12
12427 23
12428 6
12429 6
12430 18
12431 23
12432 16
12433 11
12434 15
12435 3
12436 7
12437 1
12438 42
12439 12
12440 11
12441 0
12442 24
12443 1
12444 1
12445 1
12446 1
12447 11
12448 11
12449 0
12450 11
12451 6
12452 11
12453 12
12454 13
12455 22
12456 14
12457 35
12458 1
12459 6
12460 19
12461 12
12462 19
12463 14
12464 45
12465 51
12466 12
12467 10
12468 10
12469 10
12470 11
12471 11
12472 3
12473 3
12474 32
12475 42
12476 11
12477 35
12478 11
12479 10
12480 11
12481 26
12482 11
12483 11
12484 0
12485 3
12486 13
12487 13
12488 1
12489 3
12490 1
12491 12
12492 19
12493 53
12494 25
12495 12
12496 1
12497 1
12498 36
12499 37
12500 1
12501 6
12502 47
12503 35
12504 24
12505 11
12506 0
12507 3
12508 11
12509 14
12510 5
12511 5
12512 11
12513 6
12514 6
12515 0
12516 1
12517 42
12518 6
12519 23
12520 11
12521 18
12522 22
12523 2
12524 11
12525 14
12526 10
12527 12
12528 11
12529 6
12530 23
12531 1
12532 13
12533 6
12534 1
12535 32
12536 1
12537 3
12538 18
12539 41
12540 11
12541 0
12542 18
12543 6
12544 33
12545 13
12546 30
12547 33
12548 11
12549 24
12550 0
12551 10
12552 0
12553 0
12554 30
12555 11
12556 14
12557 6
12558 11
12559 6
12560 11
12561 47
12562 0
12563 13
12564 12
12565 11
12566 3
12567 6
12568 18
12569 11
12570 24
12571 20
12572 11
12573 47
12574 11
12575 11
12576 1
12577 5
12578 1
12579 42
12580 5
12581 21
12582 6
12583 24
12584 19
12585 6
12586 13
12587 3
12588 11
12589 34
12590 10
12591 0
12592 1
12593 1
12594 6
12595 12
12596 39
12597 24
12598 6
12599 1
12600 47
12601 12
12602 19
12603 2
12604 6
12605 3
12606 43
12607 1
12608 22
12609 7
12610 1
12611 11
12612 6
12613 18
12614 34
12615 18
12616 1
12617 11
12618 1
12619 47
12620 50
12621 1
12622 10
12623 6
12624 6
12625 3
12626 12
12627 33
12628 11
12629 0
12630 6
12631 1
12632 3
12633 13
12634 44
12635 27
12636 11
12637 9
12638 6
12639 6
12640 1
12641 22
12642 9
12643 20
12644 30
12645 13
12646 15
12647 10
12648 30
12649 13
12650 3
12651 6
12652 12
12653 3
12654 1
12655 15
12656 3
12657 6
12658 6
12659 1
12660 39
12661 11
12662 3
12663 15
12664 25
12665 33
12666 3
12667 1
12668 24
12669 6
12670 14
12671 19
12672 3
12673 11
12674 0
12675 11
12676 6
12677 1
12678 24
12679 1
12680 27
12681 12
12682 45
12683 19
12684 16
12685 12
12686 1
12687 24
12688 10
12689 5
12690 14
12691 33
12692 10
12693 9
12694 11
12695 51
12696 32
12697 13
12698 9
12699 15
12700 10
12701 11
12702 2
12703 12
12704 24
12705 1
12706 3
12707 3
12708 11
12709 0
12710 37
12711 3
12712 10
12713 30
12714 11
12715 47
12716 42
12717 0
12718 11
12719 6
12720 11
12721 1
12722 19
12723 24
12724 1
12725 30
12726 1
12727 1
12728 5
12729 6
12730 1
12731 6
12732 33
12733 10
12734 0
12735 11
12736 28
12737 13
12738 6
12739 1
12740 1
12741 12
12742 24
12743 30
12744 18
12745 0
12746 2
12747 11
12748 5
12749 12
12750 30
12751 42
12752 11
12753 0
12754 18
12755 11
12756 11
12757 1
12758 10
12759 42
12760 6
12761 1
12762 1
12763 0
12764 13
12765 15
12766 11
12767 3
12768 0
12769 12
12770 12
12771 24
12772 21
12773 15
12774 11
12775 12
12776 3
12777 3
12778 1
12779 46
12780 6
12781 10
12782 11
12783 11
12784 18
12785 2
12786 3
12787 31
12788 10
12789 18
12790 0
12791 8
12792 1
12793 1
12794 49
12795 13
12796 16
12797 11
12798 14
12799 30
12800 6
12801 1
12802 13
12803 13
12804 10
12805 24
12806 11
12807 18
12808 24
12809 42
12810 5
12811 1
12812 1
12813 28
12814 6
12815 12
12816 24
12817 11
12818 11
12819 19
12820 3
12821 11
12822 3
12823 41
12824 1
12825 30
12826 24
12827 52
12828 0
12829 37
12830 0
12831 11
12832 18
12833 1
12834 13
12835 14
12836 6
12837 6
12838 11
12839 1
12840 1
12841 32
12842 23
12843 18
12844 24
12845 3
12846 2
12847 3
12848 10
12849 3
12850 11
12851 11
12852 13
12853 12
12854 1
12855 6
12856 1
12857 49
12858 3
12859 24
12860 11
12861 6
12862 1
12863 42
12864 11
12865 7
12866 1
12867 13
12868 1
12869 24
12870 3
12871 3
12872 11
12873 18
12874 39
12875 11
12876 1
12877 12
12878 3
12879 22
12880 10
12881 19
12882 4
12883 10
12884 12
12885 20
12886 18
12887 27
12888 1
12889 37
12890 6
12891 0
12892 3
12893 6
12894 1
12895 0
12896 1
12897 24
12898 36
12899 0
12900 6
12901 1
12902 23
12903 15
12904 16
12905 43
12906 11
12907 12
12908 24
12909 12
12910 10
12911 1
12912 5
12913 11
12914 24
12915 3
12916 0
12917 34
12918 6
12919 13
12920 1
12921 5
12922 0
12923 24
12924 1
12925 18
12926 11
12927 0
12928 22
12929 24
12930 24
12931 1
12932 3
12933 0
12934 3
12935 34
12936 3
12937 15
12938 46
12939 13
12940 21
12941 31
12942 24
12943 12
12944 23
12945 1
12946 49
12947 11
12948 11
12949 10
12950 3
12951 6
12952 10
12953 1
12954 27
12955 10
12956 37
12957 11
12958 2
12959 24
12960 1
12961 3
12962 24
12963 11
12964 3
12965 1
12966 24
12967 0
12968 20
12969 12
12970 30
12971 15
12972 4
12973 11
12974 22
12975 1
12976 23
12977 12
12978 14
12979 11
12980 6
12981 50
12982 0
12983 1
12984 16
12985 13
12986 28
12987 1
12988 3
12989 0
12990 3
12991 3
12992 5
12993 10
12994 11
12995 1
12996 12
12997 11
12998 38
12999 0
13000 3
13001 6
13002 18
13003 3
13004 13
13005 10
13006 6
13007 1
13008 0
13009 12
13010 1
13011 11
13012 1
13013 11
13014 12
13015 33
13016 19
13017 14
13018 14
13019 24
13020 43
13021 5
13022 11
13023 13
13024 24
13025 31
13026 24
13027 0
13028 0
13029 6
13030 3
13031 28
13032 13
13033 3
13034 40
13035 28
13036 13
13037 30
13038 10
13039 3
13040 12
13041 6
13042 53
13043 10
13044 11
13045 1
13046 3
13047 24
13048 18
13049 11
13050 1
13051 15
13052 1
13053 13
13054 38
13055 12
13056 18
13057 3
13058 6
13059 12
13060 10
13061 33
13062 3
13063 1
13064 24
13065 10
13066 11
13067 11
13068 1
13069 3
13070 1
13071 11
13072 7
13073 3
13074 36
13075 30
13076 18
13077 6
13078 3
13079 6
13080 18
13081 18
13082 24
13083 37
13084 1
13085 10
13086 11
13087 6
13088 18
13089 3
13090 0
13091 24
13092 8
13093 16
13094 11
13095 1
13096 11
13097 6
13098 12
13099 3
13100 24
13101 24
13102 0
13103 6
13104 3
13105 19
13106 41
13107 0
13108 3
13109 1
13110 18
13111 31
13112 42
13113 35
13114 7
13115 24
13116 11
13117 43
13118 33
13119 23
13120 3
13121 12
13122 42
13123 9
13124 10
13125 6
13126 6
13127 0
13128 6
13129 24
13130 11
13131 5
13132 3
13133 38
13134 5
13135 1
13136 11
13137 10
13138 24
13139 0
13140 11
13141 0
13142 11
13143 1
13144 36
13145 12
13146 1
13147 20
13148 3
13149 0
13150 1
13151 5
13152 24
13153 12
13154 3
13155 3
13156 10
13157 15
13158 12
13159 1
13160 29
13161 6
13162 7
13163 24
13164 24
13165 10
13166 18
13167 0
13168 14
13169 13
13170 1
13171 0
13172 11
13173 24
13174 43
13175 6
13176 22
13177 38
13178 3
13179 11
13180 29
13181 12
13182 5
13183 3
13184 13
13185 52
13186 44
13187 45
13188 14
13189 11
13190 12
13191 43
13192 47
13193 1
13194 1
13195 11
13196 13
13197 12
13198 10
13199 24
13200 18
13201 24
13202 16
13203 6
13204 10
13205 7
13206 1
13207 3
13208 33
13209 23
13210 23
13211 23
13212 13
13213 6
13214 3
13215 3
13216 26
13217 10
13218 24
13219 34
13220 52
13221 6
13222 0
13223 10
13224 12
13225 41
13226 7
13227 1
13228 3
13229 13
13230 11
13231 40
13232 10
13233 4
13234 19
13235 12
13236 15
13237 18
13238 3
13239 3
13240 12
13241 0
13242 24
13243 17
13244 14
13245 24
13246 11
13247 22
13248 3
13249 1
13250 3
13251 24
13252 1
13253 12
13254 6
13255 18
13256 19
13257 6
13258 11
13259 6
13260 1
13261 6
13262 0
13263 6
13264 3
13265 6
13266 34
13267 11
13268 11
13269 14
13270 1
13271 10
13272 24
13273 18
13274 25
13275 15
13276 11
13277 37
13278 3
13279 6
13280 6
13281 6
13282 1
13283 6
13284 10
13285 6
13286 11
13287 11
13288 24
13289 7
13290 43
13291 3
13292 22
13293 12
13294 15
13295 23
13296 3
13297 6
13298 10
13299 22
13300 3
13301 12
13302 6
13303 1
13304 18
13305 0
13306 33
13307 46
13308 11
13309 23
13310 0
13311 19
13312 14
13313 47
13314 9
13315 6
13316 10
13317 18
13318 1
13319 24
13320 27
13321 1
13322 25
13323 1
13324 18
13325 1
13326 1
13327 6
13328 6
13329 11
13330 13
13331 1
13332 6
13333 3
13334 26
13335 1
13336 12
13337 12
13338 33
13339 11
13340 19
13341 12
13342 0
13343 1
13344 18
13345 10
13346 6
13347 12
13348 11
13349 1
13350 18
13351 12
13352 24
13353 9
13354 18
13355 13
13356 11
13357 1
13358 3
13359 28
13360 14
13361 1
13362 7
13363 11
13364 19
13365 6
13366 11
13367 49
13368 11
13369 6
13370 11
13371 11
13372 45
13373 6
13374 3
13375 11
13376 12
13377 42
13378 11
13379 11
13380 10
13381 36
13382 41
13383 1
13384 38
13385 24
13386 40
13387 12
13388 1
13389 1
13390 26
13391 3
13392 19
13393 6
13394 1
13395 12
13396 6
13397 12
13398 24
13399 1
13400 0
13401 11
13402 27
13403 11
13404 18
13405 1
13406 26
13407 6
13408 0
13409 43
13410 13
13411 12
13412 0
13413 0
13414 11
13415 18
13416 1
13417 6
13418 13
13419 24
13420 3
13421 40
13422 6
13423 6
13424 1
13425 12
13426 11
13427 1
13428 37
13429 1
13430 10
13431 0
13432 24
13433 1
13434 3
13435 19
13436 16
13437 1
13438 6
13439 11
13440 1
13441 11
13442 11
13443 3
13444 1
13445 33
13446 1
13447 18
13448 6
13449 20
13450 1
13451 12
13452 1
13453 24
13454 14
13455 14
13456 9
13457 6
13458 12
13459 30
13460 11
13461 11
13462 2
13463 3
13464 1
13465 45
13466 6
13467 1
13468 11
13469 25
13470 3
13471 1
13472 22
13473 1
13474 9
13475 6
13476 27
13477 11
13478 18
13479 45
13480 3
13481 3
13482 3
13483 15
13484 34
13485 11
13486 15
13487 11
13488 0
13489 15
13490 13
13491 0
13492 13
13493 12
13494 18
13495 13
13496 6
13497 11
13498 13
13499 40
13500 24
13501 12
13502 27
13503 10
13504 43
13505 12
13506 1
13507 18
13508 10
13509 4
13510 23
13511 3
13512 27
13513 24
13514 0
13515 24
13516 24
13517 30
13518 3
13519 1
13520 41
13521 24
13522 18
13523 15
13524 19
13525 19
13526 6
13527 14
13528 41
13529 13
13530 13
13531 1
13532 39
13533 11
13534 24
13535 24
13536 43
13537 0
13538 38
13539 2
13540 11
13541 39
13542 1
13543 23
13544 3
13545 24
13546 10
13547 1
13548 36
13549 1
13550 21
13551 28
13552 47
13553 19
13554 28
13555 27
13556 12
13557 10
13558 6
13559 12
13560 30
13561 12
13562 20
13563 5
13564 11
13565 24
13566 14
13567 6
13568 14
13569 22
13570 1
13571 11
13572 13
13573 30
13574 10
13575 15
13576 10
13577 6
13578 6
13579 10
13580 12
13581 12
13582 1
13583 11
13584 0
13585 24
13586 30
13587 13
13588 13
13589 12
13590 6
13591 12
13592 23
13593 11
13594 23
13595 34
13596 19
13597 0
13598 46
13599 34
13600 11
13601 11
13602 11
13603 33
13604 3
13605 21
13606 18
13607 6
13608 5
13609 11
13610 24
13611 24
13612 12
13613 3
13614 15
13615 33
13616 24
13617 1
13618 34
13619 18
13620 11
13621 36
13622 6
13623 0
13624 1
13625 6
13626 6
13627 11
13628 1
13629 11
13630 12
13631 23
13632 19
13633 13
13634 1
13635 14
13636 30
13637 47
13638 43
13639 3
13640 1
13641 46
13642 10
13643 10
13644 1
13645 1
13646 6
13647 43
13648 12
13649 3
13650 24
13651 24
13652 3
13653 24
13654 18
13655 3
13656 6
13657 6
13658 7
13659 1
13660 12
13661 18
13662 11
13663 24
13664 13
13665 1
