0 0
1 1
2 2
3 3
4 4
5 5
6 6
7 7
8 8
9 4
10 9
11 10
12 11
13 0
14 12
15 13
16 14
17 15
18 16
19 17
20 18
21 10
22 19
23 20
24 21
25 22
26 23
27 24
28 25
29 24
30 8
31 26
32 27
33 28
34 15
35 29
36 30
37 13
38 31
39 32
40 6
41 33
42 15
43 34
44 5
45 35
46 36
47 37
48 38
49 27
50 39
51 40
52 38
53 41
54 0
55 18
56 42
57 43
58 44
59 45
60 46
61 47
62 48
63 8
64 46
65 49
66 5
67 50
68 3
69 51
70 52
71 53
72 40
73 30
74 43
75 29
76 54
77 55
78 56
79 30
80 43
81 34
82 56
83 57
84 26
85 52
86 54
87 58
88 0
89 19
90 59
91 50
92 60
93 7
94 17
95 17
96 61
97 62
98 49
99 29
100 63
101 64
102 36
103 65
104 31
105 2
106 48
107 66
108 49
109 49
110 56
111 49
112 67
113 12
114 68
115 46
116 21
117 0
118 69
119 50
120 70
121 71
122 72
123 46
124 64
125 51
126 0
127 6
128 73
129 74
130 64
131 24
132 39
133 75
134 30
135 76
136 77
137 71
138 16
139 78
140 59
141 77
142 41
143 79
144 8
145 7
146 80
147 13
148 77
149 38
150 81
151 72
152 82
153 13
154 12
155 83
156 84
157 85
158 73
159 75
160 80
161 86
162 72
163 87
164 56
165 20
166 88
167 15
168 49
169 89
170 12
171 87
172 75
173 47
174 56
175 38
176 73
177 63
178 40
179 0
180 79
181 29
182 17
183 44
184 36
185 90
186 91
187 92
188 93
189 81
190 16
191 94
192 92
193 69
194 15
195 64
196 75
197 87
198 21
199 68
200 75
201 64
202 24
203 95
204 28
205 93
206 75
207 96
208 35
209 70
210 44
211 87
212 92
213 54
214 97
215 98
216 99
217 10
218 77
219 50
220 96
221 77
222 27
223 100
224 27
225 13
226 101
227 77
228 71
229 26
230 56
231 53
232 102
233 14
234 79
235 93
236 13
237 102
238 49
239 68
240 63
241 103
242 62
243 89
244 35
245 64
246 104
247 105
248 27
249 56
250 106
251 107
252 15
253 56
254 94
255 108
256 64
257 47
258 93
259 64
260 97
261 13
262 49
263 92
264 9
265 75
266 26
267 48
268 106
269 95
270 34
271 57
272 46
273 24
274 109
275 63
276 1
277 45
278 46
279 110
280 57
281 18
282 77
283 78
284 111
285 68
286 99
287 70
288 94
289 93
290 85
291 87
292 93
293 89
294 57
295 70
296 61
297 62
298 74
299 104
300 90
301 96
302 70
303 49
304 70
305 86
306 16
307 29
308 99
309 30
310 110
311 28
312 112
313 32
314 53
315 28
316 89
317 43
318 57
319 91
320 21
321 17
322 46
323 4
324 113
325 83
326 26
327 20
328 11
329 21
330 53
331 57
332 35
333 99
334 114
335 98
336 66
337 64
338 36
339 35
340 54
341 24
342 60
343 43
344 68
345 57
346 77
347 79
348 106
349 110
350 99
351 35
352 54
353 65
354 75
355 72
356 71
357 14
358 43
359 77
360 83
361 18
362 92
363 36
364 62
365 35
366 54
367 90
368 40
369 90
370 53
371 31
372 115
373 66
374 116
375 6
376 35
377 19
378 29
379 43
380 49
381 93
382 59
383 77
384 38
385 78
386 86
387 3
388 72
389 16
390 46
391 87
392 73
393 29
394 76
395 73
396 18
397 82
398 49
399 117
400 23
401 13
402 77
403 24
404 14
405 47
406 16
407 54
408 97
409 93
410 46
411 46
412 17
413 53
414 18
415 97
416 76
417 17
418 17
419 78
420 118
421 65
422 64
423 1
424 119
425 21
426 93
427 50
428 86
429 66
430 21
431 70
432 47
433 120
434 77
435 47
436 64
437 81
438 33
439 51
440 35
441 48
442 60
443 110
444 28
445 94
446 66
447 3
448 14
449 31
450 57
451 66
452 53
453 0
454 15
455 69
456 121
457 21
458 28
459 31
460 77
461 31
462 0
463 48
464 97
465 53
466 92
467 30
468 63
469 77
470 120
471 113
472 81
473 117
474 51
475 81
476 78
477 18
478 68
479 108
480 83
481 50
482 59
483 75
484 53
485 12
486 102
487 66
488 70
489 15
490 107
491 79
492 47
493 53
494 17
495 18
496 21
497 60
498 60
499 7
500 86
501 119
502 113
503 97
504 75
505 76
506 93
507 94
508 117
509 82
510 37
511 35
512 26
513 97
514 99
515 97
516 99
517 81
518 81
519 47
520 97
521 33
522 10
523 13
524 38
525 81
526 36
527 81
528 82
529 46
530 122
531 27
532 123
533 0
534 75
535 42
536 35
537 121
538 2
539 104
540 36
541 15
542 2
543 40
544 85
545 7
546 124
547 54
548 2
549 4
550 47
551 13
552 125
553 2
554 50
555 20
556 29
557 34
558 2
559 81
560 2
561 48
562 0
563 27
564 0
565 0
566 41
567 50
568 12
569 29
570 85
571 8
572 35
573 9
574 80
575 42
576 71
577 60
578 51
579 21
580 41
581 126
582 82
583 66
584 87
585 34
586 72
587 70
588 14
589 4
590 6
591 51
592 83
593 127
594 33
595 31
596 53
597 34
598 51
599 87
600 30
601 56
602 61
603 65
604 35
605 51
606 50
607 120
608 7
609 123
610 6
611 27
612 47
613 73
614 35
615 13
616 124
617 34
618 42
619 92
620 70
621 51
622 77
623 29
624 21
625 65
626 92
627 73
628 59
629 92
630 53
631 65
632 56
633 117
634 22
635 76
636 21
637 40
638 21
639 128
640 0
641 120
642 91
643 43
644 43
645 51
646 38
647 77
648 30
649 109
650 109
651 111
652 31
653 101
654 74
655 21
656 124
657 77
658 125
659 16
660 92
661 81
662 92
663 109
664 97
665 53
666 97
667 21
668 103
669 22
670 29
671 129
672 66
673 75
674 95
675 89
676 38
677 74
678 69
679 47
680 7
681 92
682 34
683 30
684 68
685 24
686 53
687 130
688 29
689 76
690 38
691 96
692 8
693 47
694 61
695 88
696 38
697 62
698 77
699 38
700 83
701 107
702 78
703 24
704 50
705 89
706 120
707 28
708 21
709 97
710 2
711 72
712 22
713 34
714 18
715 21
716 14
717 64
718 35
719 34
720 2
721 5
722 49
723 77
724 106
725 55
726 59
727 88
728 27
729 53
730 60
731 106
732 120
733 64
734 34
735 10
736 49
737 75
738 92
739 74
740 96
741 102
742 93
743 49
744 5
745 103
746 95
747 113
748 31
749 63
750 125
751 26
752 116
753 13
754 53
755 121
756 57
757 80
758 104
759 122
760 30
761 5
762 34
763 110
764 38
765 121
766 64
767 24
768 68
769 21
770 34
771 78
772 99
773 131
774 5
775 29
776 82
777 68
778 16
779 121
780 60
781 64
782 26
783 26
784 80
785 2
786 99
787 110
788 71
789 39
790 38
791 78
792 28
793 31
794 17
795 64
796 132
797 21
798 65
799 90
800 21
801 70
802 21
803 70
804 120
805 36
806 30
807 78
808 24
809 2
810 5
811 53
812 81
813 57
814 46
815 51
816 77
817 5
818 75
819 75
820 70
821 83
822 77
823 74
824 93
825 37
826 10
827 16
828 35
829 97
830 51
831 35
832 51
833 51
834 133
835 13
836 17
837 31
838 60
839 47
840 61
841 58
842 81
843 47
844 36
845 21
846 35
847 27
848 17
849 121
850 64
851 17
852 99
853 78
854 16
855 16
856 70
857 134
858 56
859 71
860 66
861 47
862 77
863 121
864 83
865 92
866 17
867 16
868 106
869 5
870 27
871 35
872 60
873 135
874 21
875 89
876 80
877 24
878 31
879 34
880 76
881 43
882 66
883 53
884 49
885 5
886 78
887 76
888 12
889 80
890 72
891 75
892 2
893 80
894 59
895 38
896 96
897 29
898 13
899 16
900 121
901 49
902 18
903 115
904 96
905 75
906 5
907 80
908 92
909 96
910 75
911 47
912 53
913 27
914 16
915 5
916 75
917 76
918 121
919 27
920 35
921 27
922 53
923 17
924 16
925 18
926 53
927 74
928 31
929 51
930 24
931 26
932 133
933 125
934 81
935 74
936 14
937 19
938 78
939 68
940 51
941 53
942 5
943 121
944 46
945 16
946 27
947 60
948 71
949 106
950 74
951 0
952 51
953 53
954 113
955 0
956 31
957 17
958 75
959 25
960 78
961 21
962 93
963 38
964 21
965 47
966 60
967 56
968 106
969 89
970 59
971 100
972 109
973 34
974 49
975 53
976 30
977 49
978 72
979 34
980 107
981 109
982 81
983 108
984 31
985 43
986 31
987 60
988 0
989 46
990 31
991 107
992 38
993 10
994 47
995 121
996 54
997 38
998 15
999 27
1000 66
1001 66
1002 103
1003 53
1004 0
1005 53
1006 78
1007 133
1008 17
1009 68
1010 30
1011 5
1012 74
1013 5
1014 24
1015 27
1016 75
1017 5
1018 49
1019 21
1020 26
1021 48
1022 107
1023 29
1024 46
1025 113
1026 60
1027 63
1028 81
1029 0
1030 49
1031 38
1032 55
1033 47
1034 27
1035 65
1036 24
1037 38
1038 70
1039 69
1040 15
1041 53
1042 31
1043 35
1044 97
1045 46
1046 47
1047 24
1048 19
1049 5
1050 17
1051 136
1052 2
1053 137
1054 66
1055 47
1056 7
1057 138
1058 26
1059 38
1060 50
1061 30
1062 5
1063 53
1064 65
1065 15
1066 51
1067 43
1068 18
1069 90
1070 38
1071 18
1072 60
1073 121
1074 40
1075 50
1076 46
1077 43
1078 118
1079 68
1080 15
1081 49
1082 18
1083 48
1084 65
1085 81
1086 31
1087 110
1088 56
1089 81
1090 5
1091 75
1092 32
1093 75
1094 21
1095 34
1096 24
1097 28
1098 136
1099 53
1100 16
1101 49
1102 121
1103 75
1104 110
1105 24
1106 77
1107 31
1108 99
1109 90
1110 29
1111 24
1112 21
1113 139
1114 80
1115 118
1116 54
1117 24
1118 2
1119 34
1120 77
1121 21
1122 80
1123 44
1124 134
1125 87
1126 71
1127 75
1128 31
1129 34
1130 60
1131 53
1132 51
1133 53
1134 134
1135 5
1136 22
1137 7
1138 122
1139 21
1140 49
1141 105
1142 65
1143 31
1144 87
1145 73
1146 2
1147 121
1148 106
1149 15
1150 31
1151 52
1152 77
1153 66
1154 38
1155 19
1156 0
1157 51
1158 50
1159 35
1160 78
1161 11
1162 2
1163 42
1164 92
1165 5
1166 109
1167 21
1168 74
1169 35
1170 2
1171 78
1172 87
1173 21
1174 81
1175 5
1176 15
1177 34
1178 83
1179 56
1180 48
1181 7
1182 120
1183 35
1184 2
1185 89
1186 35
1187 2
1188 140
1189 83
1190 1
1191 89
1192 79
1193 13
1194 89
1195 68
1196 119
1197 24
1198 38
1199 51
1200 113
1201 21
1202 42
1203 96
1204 89
1205 62
1206 65
1207 93
1208 58
1209 95
1210 35
1211 120
1212 0
1213 141
1214 93
1215 34
1216 77
1217 76
1218 68
1219 83
1220 64
1221 34
1222 72
1223 68
1224 95
1225 70
1226 104
1227 83
1228 51
1229 38
1230 43
1231 38
1232 18
1233 77
1234 17
1235 26
1236 16
1237 8
1238 108
1239 34
1240 54
1241 21
1242 37
1243 17
1244 16
1245 27
1246 121
1247 28
1248 87
1249 93
1250 64
1251 27
1252 2
1253 59
1254 68
1255 29
1256 125
1257 60
1258 38
1259 132
1260 93
1261 64
1262 26
1263 31
1264 5
1265 93
1266 0
1267 45
1268 21
1269 77
1270 121
1271 133
1272 22
1273 66
1274 65
1275 10
1276 35
1277 51
1278 54
1279 63
1280 86
1281 74
1282 47
1283 24
1284 17
1285 24
1286 114
1287 19
1288 104
1289 96
1290 2
1291 30
1292 2
1293 18
1294 120
1295 17
1296 93
1297 125
1298 99
1299 42
1300 46
1301 77
1302 81
1303 77
1304 38
1305 110
1306 17
1307 75
1308 53
1309 34
1310 51
1311 102
1312 110
1313 93
1314 96
1315 96
1316 24
1317 42
1318 16
1319 2
1320 130
1321 70
1322 76
1323 80
1324 95
1325 17
1326 51
1327 17
1328 64
1329 49
1330 80
1331 14
1332 2
1333 64
1334 96
1335 26
1336 1
1337 27
1338 5
1339 80
1340 43
1341 93
1342 41
1343 110
1344 1
1345 34
1346 26
1347 89
1348 21
1349 17
1350 17
1351 109
1352 2
1353 136
1354 83
1355 1
1356 125
1357 64
1358 38
1359 57
1360 35
1361 121
1362 18
1363 61
1364 88
1365 130
1366 117
1367 35
1368 43
1369 83
1370 66
1371 1
1372 51
1373 110
1374 21
1375 17
1376 64
1377 82
1378 81
1379 53
1380 60
1381 18
1382 99
1383 19
1384 17
1385 58
1386 2
1387 93
1388 31
1389 35
1390 56
1391 54
1392 17
1393 60
1394 21
1395 31
1396 34
1397 7
1398 2
1399 115
1400 2
1401 119
1402 110
1403 48
1404 22
1405 44
1406 51
1407 40
1408 3
1409 79
1410 47
1411 72
1412 120
1413 49
1414 18
1415 34
1416 46
1417 116
1418 42
1419 66
1420 124
1421 31
1422 57
1423 17
1424 96
1425 124
1426 83
1427 35
1428 115
1429 142
1430 31
1431 38
1432 84
1433 109
1434 21
1435 28
1436 96
1437 97
1438 22
1439 29
1440 93
1441 38
1442 29
1443 80
1444 31
1445 79
1446 138
1447 15
1448 5
1449 0
1450 17
1451 0
1452 98
1453 2
1454 80
1455 122
1456 51
1457 2
1458 51
1459 81
1460 35
1461 80
1462 35
1463 113
1464 77
1465 111
1466 2
1467 12
1468 51
1469 26
1470 46
1471 28
1472 35
1473 35
1474 97
1475 97
1476 60
1477 21
1478 143
1479 53
1480 15
1481 2
1482 80
1483 66
1484 17
1485 47
1486 30
1487 97
1488 52
1489 66
1490 21
1491 14
1492 38
1493 96
1494 43
1495 135
1496 15
1497 47
1498 51
1499 97
1500 5
1501 75
1502 34
1503 30
1504 81
1505 80
1506 106
1507 53
1508 28
1509 34
1510 31
1511 2
1512 73
1513 3
1514 62
1515 24
1516 47
1517 78
1518 109
1519 53
1520 31
1521 74
1522 46
1523 81
1524 99
1525 6
1526 50
1527 18
1528 47
1529 108
1530 34
1531 75
1532 121
1533 109
1534 31
1535 116
1536 38
1537 66
1538 3
1539 21
1540 0
1541 58
1542 60
1543 33
1544 23
1545 22
1546 60
1547 79
1548 42
1549 6
1550 106
1551 80
1552 38
1553 26
1554 80
1555 109
1556 17
1557 75
1558 68
1559 125
1560 140
1561 27
1562 123
1563 121
1564 80
1565 66
1566 7
1567 27
1568 60
1569 115
1570 51
1571 48
1572 42
1573 128
1574 5
1575 128
1576 2
1577 12
1578 56
1579 27
1580 109
1581 46
1582 46
1583 74
1584 60
1585 50
1586 5
1587 80
1588 38
1589 21
1590 38
1591 34
1592 43
1593 135
1594 34
1595 47
1596 65
1597 15
1598 2
1599 76
1600 97
1601 35
1602 18
1603 0
1604 15
1605 27
1606 65
1607 41
1608 142
1609 45
1610 132
1611 0
1612 24
1613 24
1614 34
1615 41
1616 43
1617 21
1618 24
1619 4
1620 54
1621 29
1622 70
1623 5
1624 24
1625 77
1626 62
1627 97
1628 59
1629 38
1630 142
1631 124
1632 144
1633 117
1634 0
1635 31
1636 24
1637 86
1638 87
1639 51
1640 30
1641 34
1642 35
1643 92
1644 27
1645 56
1646 47
1647 80
1648 5
1649 66
1650 16
1651 2
1652 5
1653 97
1654 5
1655 34
1656 49
1657 2
1658 93
1659 21
1660 77
1661 27
1662 49
1663 58
1664 5
1665 31
1666 64
1667 50
1668 31
1669 81
1670 109
1671 31
1672 109
1673 38
1674 77
1675 35
1676 97
1677 66
1678 35
1679 53
1680 2
1681 16
1682 34
1683 60
1684 83
1685 110
1686 97
1687 97
1688 5
1689 64
1690 106
1691 29
1692 8
1693 2
1694 83
1695 75
1696 83
1697 25
1698 97
1699 25
1700 83
1701 24
1702 92
1703 118
1704 35
1705 68
1706 27
1707 96
1708 74
1709 35
1710 30
1711 31
1712 97
1713 121
1714 113
1715 75
1716 14
1717 2
1718 22
1719 77
1720 64
1721 17
1722 89
1723 51
1724 5
1725 5
1726 56
1727 75
1728 56
1729 16
1730 14
1731 26
1732 31
1733 65
1734 12
1735 51
1736 2
1737 75
1738 14
1739 87
1740 26
1741 56
1742 60
1743 0
1744 44
1745 5
1746 121
1747 34
1748 117
1749 96
1750 34
1751 26
1752 18
1753 109
1754 53
1755 35
1756 97
1757 101
1758 16
1759 31
1760 83
1761 17
1762 64
1763 47
1764 109
1765 21
1766 64
1767 99
1768 38
1769 62
1770 78
1771 5
1772 107
1773 31
1774 136
1775 24
1776 53
1777 80
1778 93
1779 35
1780 81
1781 93
1782 64
1783 51
1784 48
1785 113
1786 18
1787 72
1788 13
1789 48
1790 116
1791 96
1792 78
1793 57
1794 47
1795 21
1796 80
1797 120
1798 45
1799 78
1800 96
1801 38
1802 53
1803 74
1804 7
1805 35
1806 93
1807 38
1808 57
1809 93
1810 77
1811 83
1812 78
1813 51
1814 77
1815 21
1816 81
1817 78
1818 35
1819 124
1820 19
1821 53
1822 17
1823 21
1824 38
1825 31
1826 93
1827 8
1828 53
1829 121
1830 93
1831 42
1832 78
1833 80
1834 35
1835 78
1836 53
1837 5
1838 93
1839 51
1840 81
1841 81
1842 38
1843 121
1844 21
1845 78
1846 125
1847 27
1848 2
1849 27
1850 122
1851 31
1852 38
1853 78
1854 81
1855 31
1856 72
1857 5
1858 31
1859 34
1860 29
1861 35
1862 57
1863 53
1864 97
1865 29
1866 46
1867 21
1868 2
1869 38
1870 66
1871 72
1872 60
1873 77
1874 29
1875 2
1876 47
1877 31
1878 31
1879 61
1880 21
1881 97
1882 10
1883 60
1884 26
1885 60
1886 64
1887 5
1888 107
1889 60
1890 51
1891 53
1892 21
1893 5
1894 16
1895 14
1896 73
1897 46
1898 35
1899 60
1900 35
1901 83
1902 2
1903 53
1904 123
1905 42
1906 78
1907 14
1908 21
1909 38
1910 49
1911 83
1912 13
1913 29
1914 121
1915 34
1916 57
1917 35
1918 14
1919 99
1920 17
1921 78
1922 89
1923 46
1924 34
1925 68
1926 41
1927 17
1928 51
1929 5
1930 75
1931 34
1932 38
1933 34
1934 29
1935 69
1936 78
1937 27
1938 24
1939 98
1940 31
1941 47
1942 53
1943 60
1944 18
1945 29
1946 24
1947 54
1948 97
1949 78
1950 17
1951 17
1952 29
1953 81
1954 35
1955 2
1956 78
1957 78
1958 5
1959 121
1960 53
1961 35
1962 97
1963 53
1964 143
1965 0
1966 35
1967 26
1968 80
1969 21
1970 38
1971 85
1972 86
1973 68
1974 79
1975 2
1976 61
1977 21
1978 17
1979 21
1980 70
1981 70
1982 64
1983 120
1984 24
1985 50
1986 51
1987 2
1988 75
1989 25
1990 2
1991 27
1992 75
1993 78
1994 17
1995 17
1996 78
1997 93
1998 81
1999 49
2000 68
2001 29
2002 48
2003 60
2004 34
2005 0
2006 79
2007 78
2008 29
2009 47
2010 27
2011 5
2012 96
2013 81
2014 29
2015 131
2016 47
2017 21
2018 97
2019 30
2020 110
2021 5
2022 27
2023 60
2024 30
2025 97
2026 29
2027 60
2028 4
2029 31
2030 80
2031 34
2032 17
2033 80
2034 38
2035 68
2036 81
2037 43
2038 5
2039 5
2040 99
2041 43
2042 64
2043 13
2044 2
2045 7
2046 83
2047 15
2048 95
2049 116
2050 75
2051 77
2052 93
2053 27
2054 60
2055 75
2056 5
2057 26
2058 29
2059 2
2060 36
2061 63
2062 47
2063 52
2064 19
2065 93
2066 60
2067 106
2068 120
2069 78
2070 29
2071 49
2072 124
2073 11
2074 5
2075 27
2076 91
2077 97
2078 90
2079 57
2080 29
2081 107
2082 26
2083 42
2084 0
2085 131
2086 27
2087 65
2088 46
2089 80
2090 97
2091 38
2092 49
2093 81
2094 5
2095 47
2096 2
2097 111
2098 127
2099 49
2100 44
2101 90
2102 106
2103 27
2104 129
2105 70
2106 38
2107 34
2108 49
2109 93
2110 49
2111 42
2112 59
2113 135
2114 118
2115 31
2116 0
2117 13
2118 89
2119 78
2120 70
2121 65
2122 107
2123 55
2124 30
2125 90
2126 87
2127 111
2128 26
2129 46
2130 27
2131 97
2132 110
2133 88
2134 121
2135 71
2136 66
2137 120
2138 77
2139 62
2140 56
2141 124
2142 83
2143 65
2144 75
2145 64
2146 24
2147 37
2148 70
2149 79
2150 96
2151 71
2152 99
2153 38
2154 138
2155 70
2156 80
2157 135
2158 72
2159 30
2160 27
2161 34
2162 79
2163 69
2164 7
2165 115
2166 121
2167 65
2168 29
2169 33
2170 62
2171 82
2172 92
2173 13
2174 93
2175 120
2176 97
2177 53
2178 140
2179 72
2180 41
2181 115
2182 120
2183 34
2184 5
2185 41
2186 24
2187 73
2188 102
2189 82
2190 7
2191 106
2192 4
2193 93
2194 81
2195 107
2196 40
2197 109
2198 97
2199 38
2200 64
2201 77
2202 64
2203 132
2204 141
2205 83
2206 66
2207 120
2208 119
2209 49
2210 109
2211 125
2212 79
2213 74
2214 0
2215 76
2216 29
2217 24
2218 34
2219 83
2220 80
2221 49
2222 16
2223 30
2224 87
2225 71
2226 53
2227 5
2228 86
2229 56
2230 76
2231 62
2232 38
2233 1
2234 75
2235 60
2236 26
2237 75
2238 93
2239 13
2240 94
2241 64
2242 145
2243 66
2244 92
2245 49
2246 41
2247 8
2248 75
2249 124
2250 77
2251 128
2252 42
2253 24
2254 125
2255 68
2256 29
2257 13
2258 22
2259 120
2260 83
2261 92
2262 81
2263 97
2264 77
2265 19
2266 118
2267 77
2268 29
2269 99
2270 14
2271 25
2272 96
2273 68
2274 72
2275 35
2276 77
2277 10
2278 38
2279 5
2280 14
2281 102
2282 121
2283 134
2284 80
2285 96
2286 92
2287 73
2288 68
2289 109
2290 48
2291 29
2292 81
2293 123
2294 52
2295 87
2296 21
2297 77
2298 81
2299 74
2300 38
2301 21
2302 17
2303 109
2304 17
2305 45
2306 21
2307 56
2308 96
2309 28
2310 36
2311 93
2312 19
2313 124
2314 92
2315 18
2316 35
2317 87
2318 48
2319 29
2320 53
2321 64
2322 93
2323 50
2324 121
2325 38
2326 80
2327 89
2328 36
2329 26
2330 38
2331 35
2332 121
2333 5
2334 6
2335 29
2336 17
2337 53
2338 87
2339 96
2340 75
2341 14
2342 38
2343 65
2344 120
2345 38
2346 96
2347 53
2348 26
2349 67
2350 38
2351 110
2352 106
2353 132
2354 96
2355 38
2356 49
2357 56
2358 17
2359 24
2360 17
2361 25
2362 60
2363 46
2364 43
2365 72
2366 93
2367 89
2368 29
2369 127
2370 14
2371 60
2372 43
2373 80
2374 24
2375 81
2376 60
2377 8
2378 49
2379 18
2380 35
2381 60
2382 135
2383 64
2384 51
2385 110
2386 81
2387 53
2388 88
2389 93
2390 41
2391 38
2392 51
2393 13
2394 64
2395 101
2396 57
2397 45
2398 121
2399 79
2400 17
2401 38
2402 108
2403 17
2404 19
2405 57
2406 92
2407 49
2408 74
2409 38
2410 12
2411 31
2412 26
2413 77
2414 1
2415 32
2416 4
2417 38
2418 21
2419 21
2420 75
2421 45
2422 31
2423 17
2424 18
2425 31
2426 138
2427 78
2428 65
2429 53
2430 38
2431 31
2432 121
2433 5
2434 136
2435 120
2436 129
2437 78
2438 27
2439 116
2440 142
2441 33
2442 78
2443 79
2444 46
2445 38
2446 93
2447 109
2448 35
2449 60
2450 21
2451 107
2452 21
2453 46
2454 18
2455 47
2456 121
2457 78
2458 47
2459 47
2460 14
2461 47
2462 36
2463 139
2464 66
2465 128
2466 17
2467 51
2468 17
2469 63
2470 51
2471 66
2472 75
2473 42
2474 97
2475 36
2476 81
2477 50
2478 26
2479 35
2480 63
2481 119
2482 35
2483 86
2484 135
2485 53
2486 66
2487 47
2488 61
2489 109
2490 43
2491 60
2492 72
2493 47
2494 38
2495 53
2496 17
2497 21
2498 16
2499 53
2500 97
2501 15
2502 11
2503 80
2504 76
2505 113
2506 81
2507 30
2508 81
2509 109
2510 92
2511 60
2512 106
2513 35
2514 51
2515 4
2516 64
2517 81
2518 47
2519 76
2520 113
2521 31
2522 47
2523 0
2524 45
2525 96
2526 80
2527 17
2528 80
2529 138
2530 60
2531 80
2532 73
2533 43
2534 66
2535 35
2536 38
2537 43
2538 46
2539 17
2540 101
2541 45
2542 50
2543 75
2544 60
2545 3
2546 6
2547 31
2548 45
2549 19
2550 60
2551 95
2552 46
2553 80
2554 107
2555 30
2556 81
2557 51
2558 123
2559 31
2560 81
2561 30
2562 46
2563 80
2564 14
2565 102
2566 35
2567 2
2568 69
2569 42
2570 38
2571 0
2572 68
2573 38
2574 4
2575 107
2576 78
2577 66
2578 113
2579 38
2580 83
2581 93
2582 75
2583 126
2584 2
2585 53
2586 26
2587 81
2588 2
2589 29
2590 47
2591 48
2592 137
2593 42
2594 97
2595 75
2596 2
2597 83
2598 70
2599 83
2600 124
2601 143
2602 51
2603 87
2604 71
2605 107
2606 87
2607 95
2608 111
2609 48
2610 47
2611 70
2612 27
2613 36
2614 60
2615 51
2616 13
2617 34
2618 111
2619 131
2620 28
2621 107
2622 51
2623 5
2624 35
2625 113
2626 9
2627 5
2628 3
2629 21
2630 15
2631 65
2632 33
2633 35
2634 117
2635 30
2636 47
2637 51
2638 135
2639 49
2640 66
2641 34
2642 30
2643 42
2644 38
2645 78
2646 50
2647 5
2648 65
2649 25
2650 133
2651 89
2652 65
2653 0
2654 36
2655 51
2656 36
2657 34
2658 27
2659 2
2660 113
2661 97
2662 47
2663 35
2664 4
2665 30
2666 35
2667 49
2668 88
2669 17
2670 16
2671 21
2672 93
2673 21
2674 66
2675 75
2676 5
2677 75
2678 16
2679 29
2680 15
2681 92
2682 110
2683 138
2684 53
2685 2
2686 3
2687 21
2688 85
2689 97
2690 64
2691 35
2692 53
2693 87
2694 2
2695 34
2696 79
2697 43
2698 11
2699 34
2700 97
2701 0
2702 83
2703 107
2704 97
2705 66
2706 48
2707 71
2708 60
2709 56
2710 53
2711 109
2712 99
2713 17
2714 89
2715 30
2716 2
2717 38
2718 34
2719 24
2720 17
2721 31
2722 43
2723 49
2724 85
2725 5
2726 53
2727 16
2728 78
2729 92
2730 51
2731 13
2732 51
2733 38
2734 17
2735 51
2736 51
2737 17
2738 70
2739 74
2740 34
2741 78
2742 47
2743 35
2744 120
2745 34
2746 1
2747 21
2748 21
2749 5
2750 78
2751 14
2752 27
2753 60
2754 38
2755 55
2756 16
2757 141
2758 91
2759 87
2760 21
2761 51
2762 78
2763 26
2764 15
2765 48
2766 21
2767 77
2768 121
2769 92
2770 43
2771 107
2772 38
2773 25
2774 135
2775 53
2776 107
2777 38
2778 21
2779 38
2780 121
2781 56
2782 93
2783 18
2784 99
2785 118
2786 97
2787 5
2788 24
2789 48
2790 14
2791 18
2792 125
2793 67
2794 34
2795 78
2796 77
2797 80
2798 103
2799 65
2800 68
2801 31
2802 97
2803 78
2804 51
2805 83
2806 38
2807 92
2808 53
2809 97
2810 83
2811 31
2812 97
2813 35
2814 51
2815 17
2816 80
2817 36
2818 38
2819 101
2820 34
2821 51
2822 60
2823 92
2824 2
2825 34
2826 110
2827 53
2828 110
2829 38
2830 51
2831 26
2832 17
2833 78
2834 35
2835 139
2836 81
2837 60
2838 115
2839 5
2840 5
2841 5
2842 29
2843 121
2844 129
2845 85
2846 47
2847 99
2848 78
2849 15
2850 49
2851 51
2852 34
2853 35
2854 51
2855 38
2856 17
2857 83
2858 12
2859 53
2860 74
2861 53
2862 38
2863 81
2864 47
2865 96
2866 78
2867 17
2868 50
2869 2
2870 71
2871 68
2872 13
2873 38
2874 14
2875 35
2876 70
2877 35
2878 77
2879 3
2880 60
2881 80
2882 5
2883 141
2884 17
2885 38
2886 59
2887 80
2888 80
2889 81
2890 47
2891 38
2892 27
2893 83
2894 81
2895 80
2896 17
2897 121
2898 57
2899 47
2900 29
2901 27
2902 2
2903 2
2904 97
2905 34
2906 60
2907 29
2908 47
2909 43
2910 29
2911 21
2912 78
2913 38
2914 77
2915 49
2916 2
2917 17
2918 91
2919 47
2920 97
2921 17
2922 15
2923 83
2924 51
2925 9
2926 31
2927 29
2928 79
2929 110
2930 53
2931 31
2932 29
2933 75
2934 29
2935 53
2936 35
2937 75
2938 46
2939 76
2940 93
2941 80
2942 35
2943 26
2944 47
2945 81
2946 27
2947 97
2948 34
2949 60
2950 60
2951 38
2952 41
2953 2
2954 34
2955 97
2956 2
2957 81
2958 29
2959 34
2960 97
2961 27
2962 139
2963 47
2964 21
2965 17
2966 49
2967 24
2968 18
2969 56
2970 21
2971 27
2972 15
2973 53
2974 80
2975 112
2976 43
2977 75
2978 2
2979 26
2980 90
2981 0
2982 80
2983 81
2984 47
2985 16
2986 29
2987 54
2988 47
2989 31
2990 29
2991 5
2992 51
2993 60
2994 29
2995 83
2996 85
2997 94
2998 81
2999 5
3000 113
3001 22
3002 2
3003 28
3004 0
3005 24
3006 21
3007 49
3008 27
3009 97
3010 75
3011 11
3012 51
3013 120
3014 47
3015 35
3016 97
3017 49
3018 75
3019 44
3020 24
3021 15
3022 5
3023 38
3024 15
3025 24
3026 98
3027 21
3028 21
3029 78
3030 60
3031 107
3032 38
3033 75
3034 81
3035 35
3036 51
3037 51
3038 31
3039 27
3040 27
3041 0
3042 27
3043 38
3044 80
3045 120
3046 24
3047 2
3048 18
3049 121
3050 131
3051 18
3052 24
3053 50
3054 47
3055 10
3056 15
3057 19
3058 15
3059 135
3060 2
3061 80
3062 78
3063 78
3064 125
3065 47
3066 3
3067 0
3068 66
3069 35
3070 66
3071 2
3072 105
3073 35
3074 69
3075 50
3076 43
3077 30
3078 63
3079 75
3080 38
3081 80
3082 15
3083 39
3084 35
3085 78
3086 2
3087 81
3088 15
3089 145
3090 27
3091 95
3092 42
3093 49
3094 53
3095 36
3096 31
3097 54
3098 80
3099 81
3100 56
3101 5
3102 104
3103 80
3104 35
3105 2
3106 60
3107 30
3108 80
3109 47
3110 35
3111 71
3112 27
3113 30
3114 24
3115 51
3116 37
3117 21
3118 97
3119 127
3120 46
3121 49
3122 121
3123 70
3124 5
3125 27
3126 86
3127 5
3128 34
3129 60
3130 75
3131 50
3132 121
3133 35
3134 97
3135 65
3136 35
3137 51
3138 2
3139 59
3140 89
3141 135
3142 88
3143 38
3144 5
3145 51
3146 59
3147 38
3148 0
3149 31
3150 74
3151 34
3152 50
3153 17
3154 2
3155 113
3156 2
3157 50
3158 96
3159 65
3160 77
3161 43
3162 21
3163 80
3164 34
3165 110
3166 27
3167 75
3168 24
3169 65
3170 0
3171 5
3172 2
3173 49
3174 50
3175 21
3176 4
3177 50
3178 24
3179 24
3180 31
3181 24
3182 21
3183 4
3184 35
3185 11
3186 77
3187 21
3188 30
3189 16
3190 27
3191 50
3192 1
3193 102
3194 65
3195 89
3196 106
3197 34
3198 80
3199 51
3200 21
3201 27
3202 143
3203 5
3204 82
3205 80
3206 50
3207 92
3208 79
3209 17
3210 34
3211 76
3212 35
3213 51
3214 97
3215 2
3216 21
3217 51
3218 35
3219 21
3220 29
3221 59
3222 83
3223 27
3224 77
3225 89
3226 47
3227 75
3228 40
3229 7
3230 64
3231 5
3232 27
3233 33
3234 94
3235 83
3236 46
3237 145
3238 97
3239 21
3240 33
3241 5
3242 127
3243 27
3244 94
3245 35
3246 98
3247 34
3248 2
3249 30
3250 83
3251 31
3252 31
3253 109
3254 108
3255 73
3256 74
3257 2
3258 16
3259 94
3260 8
3261 124
3262 93
3263 29
3264 31
3265 5
3266 80
3267 65
3268 117
3269 131
3270 13
3271 95
3272 16
3273 35
3274 96
3275 28
3276 63
3277 2
3278 76
3279 96
3280 83
3281 48
3282 38
3283 28
3284 5
3285 49
3286 101
3287 31
3288 0
3289 62
3290 41
3291 31
3292 80
3293 106
3294 83
3295 51
3296 64
3297 83
3298 18
3299 2
3300 48
3301 129
3302 74
3303 28
3304 51
3305 29
3306 17
3307 4
3308 34
3309 26
3310 35
3311 97
3312 5
3313 28
3314 38
3315 64
3316 38
3317 66
3318 35
3319 24
3320 17
3321 18
3322 75
3323 87
3324 34
3325 121
3326 31
3327 99
3328 93
3329 5
3330 35
3331 7
3332 2
3333 57
3334 25
3335 81
3336 28
3337 94
3338 113
3339 69
3340 21
3341 27
3342 16
3343 71
3344 100
3345 34
3346 7
3347 2
3348 26
3349 49
3350 5
3351 21
3352 83
3353 7
3354 87
3355 85
3356 5
3357 70
3358 2
3359 96
3360 6
3361 102
3362 31
3363 93
3364 34
3365 25
3366 58
3367 92
3368 17
3369 17
3370 67
3371 0
3372 80
3373 64
3374 16
3375 68
3376 5
3377 5
3378 93
3379 17
3380 14
3381 5
3382 0
3383 51
3384 53
3385 81
3386 27
3387 26
3388 34
3389 27
3390 75
3391 110
3392 83
3393 113
3394 72
3395 42
3396 110
3397 19
3398 66
3399 38
3400 4
3401 38
3402 6
3403 47
3404 111
3405 83
3406 103
3407 49
3408 31
3409 54
3410 2
3411 34
3412 114
3413 99
3414 116
3415 24
3416 53
3417 106
3418 36
3419 35
3420 17
3421 121
3422 117
3423 57
3424 55
3425 40
3426 79
3427 5
3428 4
3429 71
3430 57
3431 31
3432 116
3433 56
3434 60
3435 87
3436 123
3437 66
3438 65
3439 125
3440 60
3441 9
3442 34
3443 106
3444 38
3445 60
3446 76
3447 36
3448 34
3449 57
3450 60
3451 96
3452 57
3453 22
3454 68
3455 90
3456 78
3457 47
3458 21
3459 35
3460 54
3461 51
3462 2
3463 51
3464 78
3465 121
3466 96
3467 93
3468 49
3469 38
3470 73
3471 28
3472 79
3473 79
3474 100
3475 38
3476 89
3477 78
3478 114
3479 17
3480 71
3481 5
3482 47
3483 51
3484 26
3485 47
3486 47
3487 93
3488 53
3489 47
3490 97
3491 51
3492 102
3493 79
3494 51
3495 92
3496 18
3497 21
3498 50
3499 89
3500 60
3501 77
3502 121
3503 94
3504 97
3505 97
3506 15
3507 78
3508 51
3509 51
3510 76
3511 57
3512 50
3513 81
3514 2
3515 47
3516 34
3517 103
3518 35
3519 95
3520 81
3521 140
3522 5
3523 137
3524 83
3525 135
3526 17
3527 46
3528 21
3529 4
3530 78
3531 51
3532 53
3533 35
3534 21
3535 10
3536 130
3537 110
3538 34
3539 74
3540 99
3541 80
3542 50
3543 50
3544 22
3545 60
3546 23
3547 118
3548 76
3549 77
3550 93
3551 81
3552 51
3553 81
3554 31
3555 113
3556 81
3557 5
3558 10
3559 17
3560 78
3561 75
3562 75
3563 47
3564 106
3565 78
3566 47
3567 48
3568 21
3569 21
3570 35
3571 21
3572 96
3573 10
3574 2
3575 97
3576 81
3577 26
3578 27
3579 13
3580 116
3581 31
3582 26
3583 26
3584 5
3585 13
3586 66
3587 36
3588 124
3589 115
3590 38
3591 93
3592 34
3593 36
3594 35
3595 123
3596 21
3597 96
3598 121
3599 106
3600 106
3601 101
3602 12
3603 26
3604 51
3605 19
3606 63
3607 124
3608 65
3609 96
3610 36
3611 13
3612 99
3613 70
3614 124
3615 21
3616 75
3617 29
3618 0
3619 27
3620 89
3621 29
3622 87
3623 21
3624 96
3625 65
3626 21
3627 50
3628 22
3629 22
3630 51
3631 85
3632 38
3633 59
3634 134
3635 30
3636 38
3637 38
3638 36
3639 6
3640 125
3641 38
3642 46
3643 106
3644 38
3645 47
3646 81
3647 49
3648 89
3649 130
3650 5
3651 27
3652 19
3653 5
3654 71
3655 5
3656 60
3657 91
3658 5
3659 21
3660 110
3661 38
3662 5
3663 120
3664 34
3665 43
3666 121
3667 34
3668 50
3669 71
3670 113
3671 5
3672 2
3673 101
3674 124
3675 113
3676 59
3677 72
3678 141
3679 80
3680 51
3681 64
3682 72
3683 77
3684 17
3685 17
3686 2
3687 49
3688 42
3689 133
3690 77
3691 21
3692 97
3693 143
3694 50
3695 45
3696 34
3697 72
3698 36
3699 51
3700 29
3701 79
3702 102
3703 140
3704 5
3705 31
3706 76
3707 80
3708 133
3709 34
3710 25
3711 93
3712 75
3713 1
3714 34
3715 5
3716 2
3717 53
3718 97
3719 90
3720 5
3721 51
3722 51
3723 35
3724 64
3725 5
3726 76
3727 5
3728 97
3729 53
3730 34
3731 140
3732 15
3733 83
3734 51
3735 5
3736 31
3737 25
3738 101
3739 2
3740 21
3741 35
3742 49
3743 64
3744 120
3745 141
3746 120
3747 29
3748 34
3749 51
3750 97
3751 17
3752 51
3753 47
3754 17
3755 17
3756 29
3757 80
3758 15
3759 16
3760 140
3761 65
3762 21
3763 21
3764 43
3765 93
3766 31
3767 34
3768 71
3769 113
3770 129
3771 68
3772 95
3773 97
3774 21
3775 78
3776 28
3777 2
3778 120
3779 5
3780 113
3781 38
3782 109
3783 35
3784 97
3785 51
3786 34
3787 34
3788 47
3789 145
3790 48
3791 85
3792 5
3793 53
3794 21
3795 5
3796 47
3797 58
3798 34
3799 97
3800 53
3801 25
3802 47
3803 83
3804 31
3805 17
3806 35
3807 27
3808 95
3809 92
3810 35
3811 26
3812 35
3813 83
3814 92
3815 51
3816 60
3817 34
3818 121
3819 47
3820 2
3821 34
3822 112
3823 74
3824 138
3825 7
3826 16
3827 83
3828 75
3829 108
3830 81
3831 60
3832 16
3833 123
3834 38
3835 38
3836 49
3837 35
3838 11
3839 2
3840 83
3841 35
3842 129
3843 38
3844 53
3845 78
3846 57
3847 38
3848 5
3849 24
3850 51
3851 38
3852 5
3853 51
3854 47
3855 17
3856 29
3857 87
3858 35
3859 121
3860 2
3861 80
3862 63
3863 38
3864 53
3865 22
3866 60
3867 97
3868 21
3869 77
3870 2
3871 47
3872 80
3873 81
3874 132
3875 50
3876 71
3877 21
3878 38
3879 81
3880 38
3881 97
3882 17
3883 130
3884 53
3885 38
3886 17
3887 2
3888 97
3889 64
3890 53
3891 53
3892 78
3893 112
3894 26
3895 29
3896 110
3897 68
3898 47
3899 93
3900 77
3901 29
3902 72
3903 49
3904 27
3905 96
3906 48
3907 2
3908 21
3909 3
3910 52
3911 53
3912 97
3913 92
3914 47
3915 18
3916 34
3917 110
3918 34
3919 35
3920 78
3921 97
3922 51
3923 5
3924 80
3925 60
3926 38
3927 16
3928 47
3929 121
3930 29
3931 29
3932 38
3933 21
3934 117
3935 58
3936 60
3937 53
3938 60
3939 2
3940 57
3941 51
3942 3
3943 21
3944 27
3945 34
3946 5
3947 41
3948 24
3949 80
3950 73
3951 78
3952 55
3953 53
3954 78
3955 78
3956 29
3957 29
3958 47
3959 28
3960 78
3961 35
3962 51
3963 57
3964 81
3965 56
3966 22
3967 10
3968 66
3969 51
3970 24
3971 59
3972 18
3973 97
3974 41
3975 38
3976 35
3977 35
3978 51
3979 78
3980 78
3981 5
3982 102
3983 31
3984 80
3985 75
3986 26
3987 29
3988 47
3989 80
3990 15
3991 24
3992 78
3993 109
3994 2
3995 81
3996 96
3997 49
3998 80
3999 83
4000 17
4001 79
4002 2
4003 35
4004 115
4005 34
4006 21
4007 34
4008 24
4009 53
4010 5
4011 22
4012 80
4013 66
4014 2
4015 24
4016 51
4017 31
4018 47
4019 38
4020 34
4021 31
4022 47
4023 29
4024 78
4025 53
4026 97
4027 74
4028 25
4029 62
4030 97
4031 60
4032 5
4033 81
4034 62
4035 34
4036 107
4037 53
4038 51
4039 34
4040 7
4041 10
4042 143
4043 97
4044 29
4045 5
4046 35
4047 21
4048 97
4049 51
4050 35
4051 60
4052 97
4053 5
4054 96
4055 1
4056 2
4057 10
4058 96
4059 2
4060 2
4061 117
4062 31
4063 17
4064 35
4065 21
4066 80
4067 5
4068 109
4069 30
4070 35
4071 89
4072 53
4073 81
4074 73
4075 51
4076 82
4077 78
4078 133
4079 73
4080 14
4081 17
4082 27
4083 31
4084 21
4085 31
4086 17
4087 31
4088 95
4089 13
4090 49
4091 81
4092 53
4093 78
4094 27
4095 33
4096 64
4097 82
4098 1
4099 27
4100 39
4101 14
4102 38
4103 50
4104 81
4105 53
4106 52
4107 46
4108 29
4109 19
4110 75
4111 29
4112 16
4113 109
4114 49
4115 34
4116 108
4117 80
4118 60
4119 29
4120 49
4121 38
4122 10
4123 75
4124 20
4125 42
4126 48
4127 38
4128 0
4129 13
4130 39
4131 15
4132 50
4133 103
4134 0
4135 87
4136 118
4137 25
4138 65
4139 89
4140 49
4141 36
4142 124
4143 95
4144 87
4145 12
4146 124
4147 59
4148 81
4149 96
4150 78
4151 70
4152 18
4153 15
4154 6
4155 89
4156 53
4157 33
4158 75
4159 15
4160 38
4161 29
4162 25
4163 141
4164 15
4165 0
4166 46
4167 0
4168 56
4169 118
4170 80
4171 141
4172 65
4173 62
4174 66
4175 60
4176 29
4177 85
4178 134
4179 65
4180 13
4181 107
4182 29
4183 131
4184 77
4185 117
4186 81
4187 54
4188 13
4189 71
4190 36
4191 38
4192 78
4193 34
4194 42
4195 49
4196 80
4197 78
4198 5
4199 73
4200 64
4201 87
4202 56
4203 50
4204 88
4205 51
4206 53
4207 47
4208 37
4209 79
4210 30
4211 104
4212 13
4213 47
4214 30
4215 109
4216 16
4217 50
4218 43
4219 49
4220 68
4221 22
4222 34
4223 115
4224 88
4225 50
4226 40
4227 38
4228 82
4229 16
4230 39
4231 47
4232 76
4233 19
4234 60
4235 110
4236 16
4237 29
4238 34
4239 5
4240 64
4241 83
4242 54
4243 16
4244 60
4245 22
4246 74
4247 38
4248 47
4249 64
4250 56
4251 89
4252 38
4253 46
4254 133
4255 50
4256 29
4257 84
4258 107
4259 38
4260 53
4261 97
4262 84
4263 29
4264 51
4265 49
4266 27
4267 72
4268 14
4269 72
4270 87
4271 120
4272 91
4273 38
4274 130
4275 96
4276 105
4277 96
4278 12
4279 24
4280 27
4281 109
4282 65
4283 99
4284 83
4285 5
4286 22
4287 65
4288 38
4289 88
4290 93
4291 83
4292 94
4293 83
4294 96
4295 74
4296 16
4297 89
4298 81
4299 22
4300 13
4301 97
4302 12
4303 56
4304 35
4305 49
4306 26
4307 126
4308 38
4309 117
4310 35
4311 18
4312 89
4313 38
4314 101
4315 105
4316 26
4317 65
4318 90
4319 76
4320 95
4321 77
4322 108
4323 37
4324 14
4325 76
4326 118
4327 77
4328 47
4329 26
4330 27
4331 87
4332 89
4333 104
4334 65
4335 4
4336 77
4337 81
4338 113
4339 53
4340 53
4341 99
4342 30
4343 131
4344 34
4345 2
4346 13
4347 77
4348 29
4349 129
4350 93
4351 17
4352 14
4353 92
4354 15
4355 70
4356 120
4357 83
4358 94
4359 40
4360 57
4361 29
4362 124
4363 103
4364 57
4365 62
4366 39
4367 35
4368 17
4369 27
4370 38
4371 17
4372 26
4373 24
4374 100
4375 57
4376 56
4377 12
4378 46
4379 16
4380 95
4381 17
4382 48
4383 104
4384 70
4385 125
4386 69
4387 16
4388 1
4389 63
4390 53
4391 24
4392 71
4393 84
4394 27
4395 35
4396 92
4397 107
4398 21
4399 19
4400 27
4401 34
4402 89
4403 99
4404 14
4405 64
4406 17
4407 65
4408 49
4409 66
4410 89
4411 104
4412 58
4413 83
4414 42
4415 21
4416 94
4417 93
4418 84
4419 60
4420 93
4421 30
4422 4
4423 51
4424 64
4425 8
4426 53
4427 85
4428 139
4429 93
4430 117
4431 139
4432 38
4433 38
4434 20
4435 60
4436 60
4437 121
4438 16
4439 46
4440 14
4441 17
4442 110
4443 21
4444 77
4445 51
4446 64
4447 114
4448 16
4449 51
4450 35
4451 16
4452 22
4453 35
4454 121
4455 78
4456 118
4457 110
4458 22
4459 93
4460 21
4461 75
4462 38
4463 6
4464 88
4465 112
4466 35
4467 79
4468 31
4469 50
4470 31
4471 35
4472 21
4473 35
4474 51
4475 49
4476 126
4477 78
4478 31
4479 53
4480 121
4481 31
4482 53
4483 21
4484 57
4485 78
4486 65
4487 64
4488 49
4489 35
4490 10
4491 136
4492 116
4493 140
4494 108
4495 6
4496 84
4497 79
4498 38
4499 92
4500 110
4501 53
4502 87
4503 54
4504 16
4505 17
4506 141
4507 72
4508 35
4509 18
4510 15
4511 78
4512 109
4513 70
4514 125
4515 38
4516 80
4517 134
4518 58
4519 38
4520 66
4521 21
4522 31
4523 35
4524 83
4525 97
4526 112
4527 17
4528 132
4529 50
4530 46
4531 81
4532 28
4533 46
4534 25
4535 8
4536 17
4537 81
4538 38
4539 35
4540 99
4541 35
4542 74
4543 51
4544 21
4545 53
4546 78
4547 80
4548 35
4549 138
4550 40
4551 114
4552 31
4553 95
4554 4
4555 80
4556 0
4557 50
4558 62
4559 35
4560 56
4561 78
4562 97
4563 51
4564 96
4565 80
4566 4
4567 26
4568 15
4569 66
4570 38
4571 130
4572 1
4573 17
4574 51
4575 44
4576 80
4577 17
4578 93
4579 8
4580 51
4581 14
4582 17
4583 31
4584 52
4585 53
4586 64
4587 109
4588 129
4589 123
4590 62
4591 111
4592 38
4593 60
4594 79
4595 81
4596 53
4597 19
4598 31
4599 13
4600 120
4601 35
4602 84
4603 82
4604 97
4605 19
4606 2
4607 38
4608 78
4609 18
4610 109
4611 2
4612 125
4613 121
4614 80
4615 2
4616 117
4617 50
4618 38
4619 38
4620 80
4621 18
4622 35
4623 20
4624 102
4625 65
4626 35
4627 18
4628 2
4629 35
4630 2
4631 122
4632 96
4633 6
4634 47
4635 63
4636 15
4637 73
4638 37
4639 2
4640 16
4641 30
4642 2
4643 97
4644 72
4645 13
4646 35
4647 53
4648 110
4649 90
4650 38
4651 35
4652 87
4653 38
4654 137
4655 16
4656 29
4657 87
4658 37
4659 18
4660 60
4661 66
4662 110
4663 25
4664 80
4665 78
4666 50
4667 15
4668 140
4669 29
4670 133
4671 30
4672 87
4673 96
4674 35
4675 34
4676 5
4677 94
4678 7
4679 56
4680 18
4681 135
4682 35
4683 34
4684 52
4685 53
4686 21
4687 39
4688 80
4689 35
4690 56
4691 21
4692 21
4693 17
4694 27
4695 66
4696 88
4697 17
4698 0
4699 103
4700 51
4701 38
4702 75
4703 15
4704 42
4705 27
4706 17
4707 29
4708 51
4709 5
4710 81
4711 5
4712 0
4713 97
4714 24
4715 51
4716 38
4717 64
4718 49
4719 97
4720 64
4721 38
4722 35
4723 78
4724 9
4725 87
4726 22
4727 30
4728 89
4729 31
4730 70
4731 15
4732 2
4733 106
4734 34
4735 64
4736 35
4737 38
4738 118
4739 0
4740 103
4741 42
4742 51
4743 140
4744 31
4745 87
4746 92
4747 53
4748 97
4749 46
4750 80
4751 35
4752 31
4753 107
4754 53
4755 35
4756 21
4757 5
4758 38
4759 21
4760 21
4761 51
4762 21
4763 97
4764 21
4765 60
4766 53
4767 5
4768 31
4769 131
4770 65
4771 116
4772 16
4773 34
4774 83
4775 97
4776 27
4777 47
4778 40
4779 47
4780 41
4781 49
4782 16
4783 68
4784 43
4785 60
4786 31
4787 65
4788 115
4789 97
4790 17
4791 77
4792 38
4793 87
4794 49
4795 97
4796 34
4797 53
4798 135
4799 113
4800 97
4801 47
4802 22
4803 2
4804 64
4805 38
4806 38
4807 93
4808 109
4809 53
4810 65
4811 2
4812 87
4813 76
4814 26
4815 18
4816 21
4817 35
4818 51
4819 18
4820 34
4821 18
4822 96
4823 38
4824 38
4825 47
4826 38
4827 51
4828 121
4829 2
4830 16
4831 94
4832 31
4833 83
4834 116
4835 38
4836 60
4837 31
4838 17
4839 35
4840 51
4841 17
4842 38
4843 26
4844 97
4845 121
4846 25
4847 78
4848 80
4849 38
4850 60
4851 5
4852 97
4853 21
4854 47
4855 40
4856 13
4857 78
4858 35
4859 44
4860 51
4861 27
4862 97
4863 74
4864 108
4865 2
4866 39
4867 80
4868 47
4869 83
4870 93
4871 38
4872 31
4873 106
4874 78
4875 35
4876 38
4877 21
4878 80
4879 114
4880 46
4881 30
4882 33
4883 26
4884 35
4885 31
4886 53
4887 80
4888 81
4889 47
4890 83
4891 60
4892 18
4893 26
4894 5
4895 80
4896 38
4897 35
4898 31
4899 51
4900 80
4901 5
4902 97
4903 2
4904 2
4905 68
4906 14
4907 2
4908 74
4909 38
4910 18
4911 93
4912 47
4913 121
4914 47
4915 34
4916 99
4917 34
4918 24
4919 90
4920 47
4921 35
4922 2
4923 31
4924 38
4925 21
4926 17
4927 21
4928 49
4929 21
4930 78
4931 110
4932 46
4933 110
4934 38
4935 18
4936 83
4937 48
4938 51
4939 17
4940 31
4941 1
4942 27
4943 35
4944 5
4945 97
4946 98
4947 78
4948 29
4949 80
4950 31
4951 80
4952 29
4953 80
4954 27
4955 98
4956 60
4957 42
4958 43
4959 41
4960 47
4961 97
4962 97
4963 49
4964 66
4965 5
4966 81
4967 17
4968 80
4969 78
4970 93
4971 47
4972 124
4973 88
4974 96
4975 35
4976 56
4977 2
4978 35
4979 140
4980 75
4981 87
4982 100
4983 49
4984 34
4985 35
4986 29
4987 97
4988 97
4989 81
4990 60
4991 29
4992 49
4993 51
4994 24
4995 35
4996 81
4997 21
4998 24
4999 2
5000 60
5001 38
5002 81
5003 24
5004 123
5005 78
5006 34
5007 53
5008 2
5009 27
5010 78
5011 118
5012 31
5013 26
5014 90
5015 145
5016 49
5017 47
5018 110
5019 75
5020 66
5021 43
5022 16
5023 35
5024 28
5025 96
5026 70
5027 29
5028 80
5029 5
5030 27
5031 0
5032 53
5033 80
5034 17
5035 5
5036 24
5037 60
5038 29
5039 51
5040 53
5041 53
5042 50
5043 35
5044 15
5045 24
5046 78
5047 1
5048 66
5049 53
5050 75
5051 31
5052 21
5053 63
5054 47
5055 43
5056 27
5057 97
5058 29
5059 44
5060 97
5061 97
5062 31
5063 31
5064 44
5065 47
5066 0
5067 75
5068 136
5069 34
5070 34
5071 53
5072 51
5073 17
5074 42
5075 51
5076 80
5077 29
5078 83
5079 51
5080 47
5081 121
5082 22
5083 24
5084 81
5085 51
5086 145
5087 34
5088 31
5089 5
5090 5
5091 80
5092 97
5093 51
5094 81
5095 49
5096 17
5097 2
5098 24
5099 34
5100 27
5101 53
5102 86
5103 14
5104 81
5105 38
5106 87
5107 34
5108 75
5109 46
5110 117
5111 35
5112 81
5113 95
5114 21
5115 80
5116 97
5117 50
5118 29
5119 31
5120 49
5121 27
5122 81
5123 60
5124 6
5125 48
5126 50
5127 26
5128 100
5129 53
5130 35
5131 50
5132 29
5133 81
5134 49
5135 65
5136 123
5137 35
5138 19
5139 50
5140 81
5141 20
5142 97
5143 24
5144 24
5145 103
5146 25
5147 27
5148 7
5149 71
5150 2
5151 42
5152 6
5153 6
5154 24
5155 102
5156 38
5157 81
5158 30
5159 50
5160 40
5161 7
5162 60
5163 24
5164 48
5165 6
5166 29
5167 106
5168 46
5169 5
5170 21
5171 60
5172 26
5173 2
5174 35
5175 130
5176 41
5177 106
5178 51
5179 48
5180 71
5181 5
5182 96
5183 38
5184 68
5185 47
5186 15
5187 78
5188 90
5189 56
5190 115
5191 47
5192 34
5193 34
5194 49
5195 34
5196 119
5197 29
5198 34
5199 2
5200 49
5201 0
5202 2
5203 81
5204 35
5205 2
5206 29
5207 29
5208 77
5209 77
5210 30
5211 99
5212 77
5213 2
5214 34
5215 43
5216 64
5217 21
5218 125
5219 75
5220 38
5221 136
5222 92
5223 79
5224 24
5225 34
5226 17
5227 71
5228 77
5229 34
5230 35
5231 76
5232 40
5233 80
5234 50
5235 92
5236 81
5237 77
5238 89
5239 21
5240 97
5241 39
5242 92
5243 21
5244 92
5245 120
5246 51
5247 29
5248 73
5249 76
5250 43
5251 38
5252 57
5253 65
5254 89
5255 122
5256 38
5257 34
5258 13
5259 21
5260 65
5261 15
5262 78
5263 5
5264 5
5265 144
5266 87
5267 44
5268 114
5269 51
5270 31
5271 31
5272 74
5273 34
5274 88
5275 1
5276 27
5277 16
5278 89
5279 17
5280 79
5281 89
5282 10
5283 87
5284 83
5285 87
5286 25
5287 77
5288 101
5289 27
5290 35
5291 75
5292 35
5293 0
5294 16
5295 73
5296 17
5297 16
5298 35
5299 34
5300 109
5301 107
5302 51
5303 56
5304 15
5305 99
5306 51
5307 17
5308 133
5309 73
5310 81
5311 35
5312 5
5313 109
5314 38
5315 35
5316 51
5317 14
5318 38
5319 17
5320 97
5321 31
5322 93
5323 5
5324 131
5325 13
5326 65
5327 37
5328 16
5329 133
5330 14
5331 86
5332 34
5333 14
5334 38
5335 21
5336 21
5337 27
5338 68
5339 96
5340 93
5341 112
5342 92
5343 21
5344 65
5345 51
5346 132
5347 17
5348 56
5349 29
5350 17
5351 5
5352 34
5353 2
5354 49
5355 93
5356 31
5357 18
5358 13
5359 2
5360 26
5361 51
5362 131
5363 117
5364 64
5365 35
5366 83
5367 102
5368 35
5369 14
5370 38
5371 2
5372 57
5373 35
5374 65
5375 110
5376 17
5377 62
5378 10
5379 120
5380 17
5381 21
5382 34
5383 103
5384 110
5385 77
5386 131
5387 110
5388 28
5389 51
5390 83
5391 91
5392 56
5393 35
5394 46
5395 111
5396 56
5397 96
5398 96
5399 35
5400 76
5401 35
5402 31
5403 18
5404 35
5405 38
5406 18
5407 90
5408 132
5409 31
5410 21
5411 132
5412 31
5413 31
5414 21
5415 17
5416 31
5417 36
5418 62
5419 6
5420 18
5421 2
5422 76
5423 31
5424 38
5425 2
5426 36
5427 121
5428 21
5429 90
5430 38
5431 26
5432 38
5433 16
5434 12
5435 43
5436 46
5437 89
5438 16
5439 85
5440 43
5441 38
5442 61
5443 60
5444 53
5445 17
5446 53
5447 31
5448 18
5449 5
5450 56
5451 17
5452 79
5453 99
5454 2
5455 112
5456 35
5457 88
5458 30
5459 72
5460 11
5461 98
5462 71
5463 16
5464 31
5465 41
5466 43
5467 90
5468 66
5469 49
5470 31
5471 49
5472 5
5473 2
5474 38
5475 35
5476 57
5477 46
5478 75
5479 71
5480 116
5481 35
5482 35
5483 53
5484 32
5485 31
5486 17
5487 31
5488 16
5489 35
5490 79
5491 34
5492 78
5493 54
5494 121
5495 21
5496 53
5497 57
5498 111
5499 81
5500 51
5501 38
5502 24
5503 81
5504 47
5505 89
5506 35
5507 5
5508 21
5509 78
5510 92
5511 78
5512 97
5513 35
5514 60
5515 46
5516 73
5517 46
5518 5
5519 78
5520 47
5521 51
5522 53
5523 109
5524 2
5525 38
5526 60
5527 23
5528 26
5529 38
5530 14
5531 87
5532 65
5533 47
5534 49
5535 78
5536 60
5537 97
5538 70
5539 5
5540 59
5541 123
5542 60
5543 57
5544 35
5545 47
5546 83
5547 21
5548 0
5549 5
5550 50
5551 53
5552 60
5553 21
5554 5
5555 93
5556 78
5557 17
5558 0
5559 2
5560 135
5561 5
5562 38
5563 34
5564 17
5565 17
5566 12
5567 38
5568 98
5569 74
5570 38
5571 31
5572 133
5573 53
5574 51
5575 60
5576 78
5577 34
5578 106
5579 100
5580 97
5581 34
5582 97
5583 81
5584 31
5585 85
5586 88
5587 31
5588 2
5589 47
5590 17
5591 53
5592 30
5593 0
5594 119
5595 2
5596 69
5597 78
5598 47
5599 1
5600 10
5601 64
5602 47
5603 97
5604 97
5605 90
5606 105
5607 96
5608 47
5609 138
5610 120
5611 31
5612 2
5613 75
5614 102
5615 17
5616 0
5617 78
5618 34
5619 78
5620 5
5621 53
5622 78
5623 35
5624 121
5625 104
5626 111
5627 48
5628 94
5629 17
5630 50
5631 96
5632 93
5633 13
5634 96
5635 75
5636 78
5637 121
5638 53
5639 81
5640 28
5641 113
5642 52
5643 116
5644 13
5645 38
5646 80
5647 13
5648 121
5649 50
5650 81
5651 71
5652 34
5653 35
5654 30
5655 26
5656 27
5657 0
5658 31
5659 57
5660 71
5661 64
5662 80
5663 53
5664 95
5665 51
5666 66
5667 51
5668 53
5669 97
5670 2
5671 107
5672 57
5673 111
5674 75
5675 38
5676 75
5677 51
5678 27
5679 89
5680 1
5681 107
5682 118
5683 91
5684 35
5685 81
5686 90
5687 34
5688 13
5689 131
5690 59
5691 65
5692 80
5693 40
5694 52
5695 141
5696 104
5697 80
5698 30
5699 51
5700 42
5701 60
5702 2
5703 27
5704 46
5705 31
5706 5
5707 34
5708 45
5709 69
5710 88
5711 31
5712 66
5713 5
5714 77
5715 111
5716 72
5717 30
5718 50
5719 2
5720 51
5721 116
5722 85
5723 31
5724 130
5725 34
5726 58
5727 29
5728 113
5729 36
5730 2
5731 54
5732 38
5733 35
5734 27
5735 31
5736 129
5737 30
5738 15
5739 13
5740 38
5741 56
5742 31
5743 83
5744 87
5745 140
5746 5
5747 43
5748 86
5749 31
5750 17
5751 31
5752 39
5753 7
5754 115
5755 8
5756 110
5757 137
5758 56
5759 2
5760 109
5761 1
5762 122
5763 53
5764 64
5765 92
5766 51
5767 29
5768 41
5769 131
5770 38
5771 60
5772 97
5773 64
5774 38
5775 35
5776 83
5777 97
5778 34
5779 60
5780 51
5781 29
5782 5
5783 77
5784 17
5785 2
5786 47
5787 34
5788 59
5789 38
5790 28
5791 89
5792 28
5793 50
5794 97
5795 92
5796 35
5797 97
5798 20
5799 38
5800 14
5801 2
5802 5
5803 5
5804 122
5805 34
5806 64
5807 2
5808 31
5809 25
5810 42
5811 40
5812 89
5813 40
5814 65
5815 99
5816 31
5817 83
5818 51
5819 5
5820 21
5821 21
5822 93
5823 17
5824 51
5825 78
5826 51
5827 51
5828 21
5829 62
5830 26
5831 17
5832 52
5833 31
5834 99
5835 53
5836 5
5837 78
5838 78
5839 83
5840 97
5841 60
5842 47
5843 35
5844 62
5845 47
5846 51
5847 56
5848 60
5849 17
5850 60
5851 34
5852 60
5853 78
5854 51
5855 0
5856 47
5857 53
5858 93
5859 27
5860 10
5861 47
5862 46
5863 18
5864 4
5865 17
5866 24
5867 38
5868 143
5869 21
5870 145
5871 96
5872 17
5873 35
5874 7
5875 14
5876 95
5877 51
5878 31
5879 17
5880 77
5881 14
5882 47
5883 77
5884 42
5885 31
5886 123
5887 78
5888 31
5889 113
5890 34
5891 97
5892 97
5893 124
5894 80
5895 2
5896 97
5897 2
5898 34
5899 97
5900 31
5901 38
5902 116
5903 17
5904 89
5905 2
5906 97
5907 104
5908 80
5909 34
5910 47
5911 29
5912 97
5913 106
5914 97
5915 127
5916 2
5917 60
5918 99
5919 64
5920 38
5921 17
5922 51
5923 60
5924 21
5925 51
5926 60
5927 18
5928 51
5929 93
5930 21
5931 97
5932 86
5933 5
5934 78
5935 121
5936 97
5937 70
5938 78
5939 5
5940 9
5941 2
5942 29
5943 78
5944 14
5945 31
5946 62
5947 38
5948 31
5949 68
5950 118
5951 47
5952 93
5953 74
5954 2
5955 60
5956 29
5957 99
5958 77
5959 78
5960 80
5961 60
5962 31
5963 109
5964 2
5965 41
5966 99
5967 51
5968 27
5969 3
5970 97
5971 43
5972 31
5973 53
5974 49
5975 78
5976 47
5977 49
5978 80
5979 47
5980 21
5981 2
5982 21
5983 14
5984 88
5985 31
5986 96
5987 96
5988 68
5989 17
5990 29
5991 83
5992 53
5993 17
5994 18
5995 49
5996 53
5997 62
5998 1
5999 131
6000 35
6001 106
6002 6
6003 2
6004 53
6005 43
6006 64
6007 2
6008 53
6009 49
6010 66
6011 78
6012 51
6013 75
6014 78
6015 78
6016 38
6017 43
6018 16
6019 47
6020 93
6021 22
6022 27
6023 80
6024 79
6025 80
6026 47
6027 24
6028 102
6029 97
6030 31
6031 38
6032 24
6033 83
6034 24
6035 51
6036 49
6037 35
6038 142
6039 53
6040 29
6041 51
6042 82
6043 46
6044 33
6045 77
6046 96
6047 66
6048 49
6049 43
6050 60
6051 75
6052 75
6053 92
6054 6
6055 5
6056 47
6057 35
6058 29
6059 27
6060 60
6061 15
6062 15
6063 53
6064 60
6065 35
6066 81
6067 94
6068 34
6069 18
6070 29
6071 35
6072 87
6073 47
6074 5
6075 2
6076 60
6077 107
6078 83
6079 80
6080 27
6081 81
6082 24
6083 26
6084 75
6085 15
6086 80
6087 22
6088 15
6089 139
6090 49
6091 97
6092 19
6093 31
6094 27
6095 34
6096 51
6097 24
6098 81
6099 49
6100 71
6101 12
6102 81
6103 60
6104 35
6105 53
6106 5
6107 66
6108 31
6109 97
6110 34
6111 60
6112 47
6113 29
6114 71
6115 47
6116 60
6117 73
6118 60
6119 30
6120 101
6121 75
6122 38
6123 19
6124 10
6125 97
6126 38
6127 95
6128 21
6129 81
6130 1
6131 54
6132 60
6133 0
6134 116
6135 2
6136 31
6137 53
6138 53
6139 2
6140 38
6141 54
6142 42
6143 93
6144 51
6145 46
6146 49
6147 68
6148 88
6149 48
6150 56
6151 97
6152 100
6153 16
6154 75
6155 63
6156 122
6157 77
6158 84
6159 50
6160 142
6161 0
6162 27
6163 74
6164 46
6165 2
6166 107
6167 131
6168 10
6169 15
6170 20
6171 93
6172 75
6173 38
6174 15
6175 20
6176 65
6177 64
6178 40
6179 42
6180 53
6181 32
6182 29
6183 32
6184 97
6185 46
6186 97
6187 126
6188 18
6189 0
6190 50
6191 38
6192 42
6193 47
6194 13
6195 47
6196 70
6197 38
6198 66
6199 67
6200 48
6201 89
6202 10
6203 59
6204 89
6205 38
6206 38
6207 53
6208 131
6209 36
6210 27
6211 81
6212 48
6213 8
6214 24
6215 13
6216 98
6217 50
6218 78
6219 75
6220 75
6221 18
6222 90
6223 57
6224 1
6225 24
6226 114
6227 2
6228 124
6229 7
6230 49
6231 107
6232 26
6233 38
6234 38
6235 75
6236 89
6237 54
6238 48
6239 75
6240 99
6241 108
6242 121
6243 119
6244 10
6245 45
6246 75
6247 116
6248 50
6249 75
6250 81
6251 10
6252 13
6253 106
6254 79
6255 38
6256 69
6257 24
6258 81
6259 76
6260 65
6261 38
6262 97
6263 27
6264 15
6265 42
6266 72
6267 38
6268 88
6269 97
6270 90
6271 32
6272 2
6273 38
6274 49
6275 25
6276 111
6277 13
6278 38
6279 0
6280 43
6281 56
6282 56
6283 80
6284 30
6285 15
6286 0
6287 83
6288 30
6289 41
6290 33
6291 65
6292 6
6293 88
6294 111
6295 38
6296 38
6297 20
6298 16
6299 29
6300 21
6301 79
6302 38
6303 137
6304 99
6305 76
6306 49
6307 6
6308 13
6309 120
6310 115
6311 88
6312 24
6313 99
6314 59
6315 28
6316 50
6317 145
6318 43
6319 114
6320 46
6321 24
6322 60
6323 13
6324 97
6325 142
6326 13
6327 113
6328 63
6329 90
6330 31
6331 31
6332 130
6333 124
6334 26
6335 110
6336 38
6337 75
6338 79
6339 28
6340 16
6341 38
6342 68
6343 96
6344 28
6345 16
6346 28
6347 18
6348 74
6349 38
6350 22
6351 49
6352 26
6353 28
6354 97
6355 64
6356 16
6357 0
6358 60
6359 132
6360 143
6361 35
6362 18
6363 112
6364 35
6365 22
6366 4
6367 26
6368 94
6369 94
6370 117
6371 72
6372 5
6373 31
6374 77
6375 93
6376 92
6377 101
6378 134
6379 24
6380 73
6381 75
6382 49
6383 35
6384 9
6385 14
6386 77
6387 48
6388 45
6389 17
6390 106
6391 29
6392 47
6393 27
6394 115
6395 18
6396 53
6397 65
6398 95
6399 6
6400 110
6401 65
6402 38
6403 27
6404 88
6405 78
6406 16
6407 57
6408 1
6409 57
6410 53
6411 19
6412 35
6413 106
6414 68
6415 53
6416 21
6417 131
6418 17
6419 53
6420 67
6421 17
6422 89
6423 47
6424 64
6425 121
6426 10
6427 18
6428 15
6429 76
6430 76
6431 80
6432 27
6433 68
6434 49
6435 17
6436 21
6437 107
6438 49
6439 140
6440 122
6441 130
6442 21
6443 86
6444 49
6445 83
6446 38
6447 81
6448 96
6449 133
6450 53
6451 26
6452 24
6453 53
6454 62
6455 7
6456 35
6457 119
6458 18
6459 97
6460 1
6461 17
6462 66
6463 46
6464 96
6465 80
6466 124
6467 32
6468 92
6469 13
6470 140
6471 56
6472 20
6473 113
6474 87
6475 113
6476 35
6477 55
6478 58
6479 41
6480 110
6481 44
6482 28
6483 45
6484 46
6485 19
6486 74
6487 103
6488 83
6489 37
6490 4
6491 43
6492 51
6493 5
6494 30
6495 83
6496 96
6497 61
6498 56
6499 71
6500 66
6501 139
6502 60
6503 51
6504 17
6505 21
6506 21
6507 54
6508 53
6509 53
6510 53
6511 78
6512 38
6513 93
6514 60
6515 83
6516 16
6517 43
6518 41
6519 35
6520 46
6521 3
6522 35
6523 17
6524 53
6525 126
6526 78
6527 121
6528 17
6529 38
6530 121
6531 83
6532 60
6533 85
6534 25
6535 42
6536 110
6537 53
6538 115
6539 88
6540 77
6541 142
6542 22
6543 56
6544 31
6545 64
6546 107
6547 88
6548 49
6549 97
6550 35
6551 72
6552 70
6553 144
6554 67
6555 31
6556 10
6557 17
6558 125
6559 109
6560 69
6561 15
6562 89
6563 127
6564 35
6565 47
6566 69
6567 3
6568 74
6569 81
6570 14
6571 80
6572 70
6573 25
6574 118
6575 64
6576 80
6577 57
6578 38
6579 99
6580 53
6581 38
6582 113
6583 43
6584 51
6585 77
6586 107
6587 107
6588 28
6589 31
6590 60
6591 139
6592 80
6593 16
6594 97
6595 77
6596 121
6597 38
6598 38
6599 16
6600 31
6601 35
6602 53
6603 80
6604 107
6605 23
6606 80
6607 52
6608 78
6609 38
6610 93
6611 100
6612 53
6613 18
6614 65
6615 47
6616 31
6617 97
6618 48
6619 12
6620 96
6621 117
6622 31
6623 49
6624 120
6625 83
6626 106
6627 101
6628 97
6629 43
6630 97
6631 10
6632 32
6633 78
6634 81
6635 35
6636 80
6637 51
6638 38
6639 123
6640 97
6641 106
6642 21
6643 47
6644 143
6645 6
6646 81
6647 33
6648 75
6649 78
6650 99
6651 115
6652 1
6653 31
6654 60
6655 98
6656 61
6657 122
6658 36
6659 23
6660 30
6661 27
6662 110
6663 120
6664 66
6665 35
6666 47
6667 44
6668 25
6669 24
6670 3
6671 47
6672 80
6673 2
6674 47
6675 54
6676 75
6677 114
6678 4
6679 75
6680 14
6681 35
6682 78
6683 7
6684 29
6685 50
6686 18
6687 90
6688 40
6689 47
6690 30
6691 89
6692 113
6693 91
6694 35
6695 65
6696 75
6697 18
6698 81
6699 1
6700 38
6701 80
6702 51
6703 6
6704 38
6705 47
6706 35
6707 46
6708 33
6709 10
6710 50
6711 12
6712 38
6713 78
6714 89
6715 124
6716 105
6717 83
6718 43
6719 38
6720 141
6721 31
6722 38
6723 42
6724 129
6725 12
6726 3
6727 53
6728 21
6729 66
6730 51
6731 133
6732 34
6733 24
6734 35
6735 2
6736 140
6737 139
6738 60
6739 57
6740 21
6741 77
6742 32
6743 56
6744 17
6745 17
6746 97
6747 30
6748 17
6749 56
6750 31
6751 77
6752 53
6753 31
6754 24
6755 64
6756 17
6757 2
6758 43
6759 35
6760 21
6761 14
6762 143
6763 46
6764 78
6765 80
6766 51
6767 38
6768 77
6769 31
6770 2
6771 125
6772 8
6773 27
6774 51
6775 27
6776 21
6777 85
6778 35
6779 92
6780 5
6781 143
6782 131
6783 66
6784 56
6785 50
6786 51
6787 64
6788 6
6789 77
6790 71
6791 35
6792 49
6793 21
6794 64
6795 31
6796 25
6797 31
6798 39
6799 51
6800 25
6801 17
6802 77
6803 35
6804 17
6805 12
6806 35
6807 95
6808 53
6809 53
6810 38
6811 51
6812 43
6813 35
6814 2
6815 107
6816 46
6817 68
6818 17
6819 5
6820 35
6821 81
6822 12
6823 47
6824 14
6825 31
6826 107
6827 97
6828 25
6829 78
6830 99
6831 92
6832 96
6833 61
6834 21
6835 58
6836 5
6837 35
6838 96
6839 96
6840 137
6841 80
6842 24
6843 18
6844 2
6845 83
6846 77
6847 74
6848 15
6849 47
6850 97
6851 17
6852 58
6853 77
6854 43
6855 49
6856 18
6857 94
6858 77
6859 35
6860 18
6861 24
6862 19
6863 35
6864 28
6865 21
6866 96
6867 29
6868 96
6869 35
6870 17
6871 38
6872 16
6873 34
6874 105
6875 27
6876 31
6877 34
6878 60
6879 98
6880 2
6881 78
6882 121
6883 15
6884 76
6885 66
6886 2
6887 31
6888 2
6889 35
6890 116
6891 43
6892 35
6893 78
6894 97
6895 80
6896 53
6897 26
6898 68
6899 2
6900 92
6901 95
6902 65
6903 57
6904 2
6905 80
6906 97
6907 31
6908 29
6909 21
6910 34
6911 128
6912 51
6913 17
6914 21
6915 97
6916 27
6917 83
6918 47
6919 51
6920 82
6921 87
6922 54
6923 93
6924 99
6925 31
6926 49
6927 39
6928 24
6929 120
6930 46
6931 108
6932 28
6933 47
6934 26
6935 77
6936 68
6937 17
6938 53
6939 92
6940 83
6941 78
6942 31
6943 77
6944 17
6945 17
6946 34
6947 34
6948 80
6949 6
6950 3
6951 78
6952 17
6953 0
6954 27
6955 95
6956 97
6957 38
6958 5
6959 17
6960 2
6961 107
6962 53
6963 93
6964 46
6965 5
6966 18
6967 36
6968 31
6969 78
6970 104
6971 34
6972 81
6973 53
6974 58
6975 97
6976 21
6977 49
6978 49
6979 48
6980 8
6981 51
6982 81
6983 31
6984 57
6985 4
6986 5
6987 27
6988 77
6989 17
6990 18
6991 31
6992 5
6993 81
6994 16
6995 49
6996 35
6997 21
6998 53
6999 141
7000 29
7001 69
7002 38
7003 24
7004 56
7005 27
7006 97
7007 121
7008 47
7009 38
7010 47
7011 97
7012 24
7013 96
7014 60
7015 35
7016 47
7017 18
7018 27
7019 60
7020 35
7021 64
7022 97
7023 47
7024 60
7025 51
7026 97
7027 75
7028 75
7029 17
7030 5
7031 24
7032 109
7033 53
7034 21
7035 60
7036 2
7037 21
7038 49
7039 37
7040 35
7041 43
7042 93
7043 88
7044 51
7045 49
7046 24
7047 81
7048 38
7049 51
7050 31
7051 24
7052 14
7053 106
7054 38
7055 80
7056 81
7057 80
7058 57
7059 34
7060 78
7061 53
7062 35
7063 29
7064 38
7065 38
7066 49
7067 5
7068 26
7069 109
7070 26
7071 27
7072 49
7073 17
7074 80
7075 52
7076 29
7077 104
7078 51
7079 97
7080 73
7081 53
7082 8
7083 0
7084 81
7085 81
7086 50
7087 80
7088 60
7089 49
7090 16
7091 17
7092 47
7093 53
7094 78
7095 64
7096 41
7097 38
7098 51
7099 97
7100 137
7101 96
7102 31
7103 47
7104 31
7105 15
7106 31
7107 29
7108 31
7109 29
7110 31
7111 57
7112 35
7113 34
7114 77
7115 17
7116 98
7117 31
7118 47
7119 34
7120 27
7121 28
7122 21
7123 53
7124 60
7125 35
7126 114
7127 121
7128 35
7129 26
7130 29
7131 49
7132 97
7133 2
7134 0
7135 114
7136 34
7137 34
7138 81
7139 93
7140 80
7141 95
7142 47
7143 34
7144 77
7145 5
7146 34
7147 81
7148 49
7149 81
7150 47
7151 49
7152 31
7153 35
7154 15
7155 49
7156 81
7157 72
7158 29
7159 34
7160 38
7161 21
7162 5
7163 31
7164 35
7165 87
7166 17
7167 43
7168 26
7169 81
7170 78
7171 38
7172 47
7173 34
7174 21
7175 128
7176 2
7177 57
7178 70
7179 82
7180 2
7181 93
7182 29
7183 76
7184 34
7185 24
7186 81
7187 82
7188 42
7189 6
7190 15
7191 5
7192 30
7193 29
7194 24
7195 30
7196 60
7197 83
7198 38
7199 131
7200 35
7201 104
7202 81
7203 0
7204 28
7205 80
7206 97
7207 60
7208 14
7209 107
7210 82
7211 6
7212 2
7213 2
7214 93
7215 38
7216 94
7217 81
7218 50
7219 13
7220 21
7221 38
7222 31
7223 53
7224 26
7225 65
7226 51
7227 89
7228 35
7229 34
7230 49
7231 81
7232 38
7233 8
7234 38
7235 12
7236 47
7237 2
7238 51
7239 5
7240 21
7241 81
7242 0
7243 42
7244 34
7245 2
7246 36
7247 97
7248 23
7249 78
7250 51
7251 34
7252 15
7253 38
7254 103
7255 34
7256 21
7257 5
7258 21
7259 101
7260 129
7261 49
7262 56
7263 34
7264 89
7265 138
7266 54
7267 64
7268 21
7269 98
7270 2
7271 50
7272 5
7273 0
7274 34
7275 81
7276 80
7277 50
7278 38
7279 49
7280 120
7281 133
7282 34
7283 121
7284 43
7285 51
7286 56
7287 17
7288 51
7289 16
7290 79
7291 21
7292 56
7293 71
7294 21
7295 55
7296 17
7297 2
7298 34
7299 30
7300 92
7301 78
7302 79
7303 7
7304 24
7305 43
7306 43
7307 2
7308 13
7309 93
7310 73
7311 17
7312 21
7313 77
7314 38
7315 2
7316 5
7317 65
7318 2
7319 17
7320 108
7321 60
7322 51
7323 13
7324 49
7325 68
7326 0
7327 21
7328 71
7329 31
7330 31
7331 66
7332 5
7333 76
7334 2
7335 24
7336 24
7337 5
7338 97
7339 75
7340 46
7341 2
7342 92
7343 54
7344 50
7345 34
7346 113
7347 21
7348 85
7349 92
7350 71
7351 20
7352 24
7353 50
7354 35
7355 99
7356 83
7357 51
7358 81
7359 34
7360 16
7361 17
7362 2
7363 31
7364 113
7365 35
7366 80
7367 2
7368 2
7369 136
7370 13
7371 38
7372 16
7373 38
7374 49
7375 83
7376 18
7377 2
7378 35
7379 18
7380 18
7381 106
7382 80
7383 16
7384 5
7385 89
7386 140
7387 5
7388 74
7389 93
7390 31
7391 21
7392 31
7393 95
7394 38
7395 68
7396 126
7397 29
7398 0
7399 109
7400 77
7401 26
7402 93
7403 17
7404 116
7405 5
7406 92
7407 34
7408 35
7409 138
7410 52
7411 31
7412 35
7413 44
7414 17
7415 99
7416 28
7417 68
7418 53
7419 78
7420 85
7421 31
7422 2
7423 29
7424 110
7425 18
7426 1
7427 17
7428 87
7429 107
7430 53
7431 51
7432 23
7433 51
7434 83
7435 53
7436 92
7437 55
7438 22
7439 5
7440 5
7441 38
7442 2
7443 14
7444 42
7445 75
7446 30
7447 110
7448 17
7449 5
7450 54
7451 74
7452 31
7453 34
7454 74
7455 35
7456 121
7457 97
7458 93
7459 85
7460 96
7461 57
7462 34
7463 2
7464 26
7465 5
7466 35
7467 106
7468 16
7469 51
7470 85
7471 9
7472 46
7473 12
7474 2
7475 2
7476 46
7477 17
7478 49
7479 24
7480 57
7481 38
7482 34
7483 49
7484 2
7485 44
7486 59
7487 121
7488 31
7489 110
7490 12
7491 5
7492 34
7493 31
7494 2
7495 7
7496 31
7497 46
7498 66
7499 35
7500 126
7501 38
7502 87
7503 51
7504 114
7505 64
7506 2
7507 31
7508 21
7509 121
7510 77
7511 88
7512 34
7513 116
7514 66
7515 68
7516 99
7517 21
7518 5
7519 86
7520 16
7521 67
7522 26
7523 2
7524 31
7525 21
7526 59
7527 74
7528 34
7529 16
7530 90
7531 86
7532 87
7533 53
7534 122
7535 78
7536 17
7537 83
7538 79
7539 5
7540 75
7541 35
7542 35
7543 60
7544 34
7545 17
7546 99
7547 35
7548 76
7549 34
7550 38
7551 60
7552 36
7553 21
7554 86
7555 42
7556 38
7557 17
7558 26
7559 66
7560 96
7561 34
7562 47
7563 78
7564 2
7565 79
7566 75
7567 17
7568 2
7569 7
7570 51
7571 142
7572 51
7573 48
7574 2
7575 46
7576 43
7577 109
7578 60
7579 17
7580 38
7581 94
7582 34
7583 97
7584 97
7585 120
7586 51
7587 31
7588 38
7589 76
7590 120
7591 51
7592 47
7593 51
7594 78
7595 31
7596 43
7597 51
7598 5
7599 123
7600 47
7601 105
7602 2
7603 12
7604 109
7605 74
7606 38
7607 73
7608 5
7609 21
7610 2
7611 78
7612 93
7613 22
7614 50
7615 34
7616 125
7617 88
7618 120
7619 66
7620 5
7621 73
7622 5
7623 5
7624 132
7625 97
7626 74
7627 2
7628 108
7629 26
7630 48
7631 34
7632 46
7633 26
7634 2
7635 97
7636 92
7637 21
7638 97
7639 60
7640 93
7641 80
7642 21
7643 34
7644 38
7645 129
7646 78
7647 47
7648 17
7649 28
7650 97
7651 51
7652 14
7653 47
7654 51
7655 21
7656 130
7657 35
7658 78
7659 78
7660 1
7661 116
7662 0
7663 97
7664 106
7665 104
7666 2
7667 109
7668 81
7669 81
7670 77
7671 138
7672 92
7673 68
7674 51
7675 131
7676 49
7677 60
7678 5
7679 117
7680 83
7681 17
7682 66
7683 57
7684 78
7685 2
7686 24
7687 13
7688 60
7689 14
7690 38
7691 5
7692 38
7693 15
7694 26
7695 2
7696 78
7697 2
7698 65
7699 48
7700 15
7701 30
7702 124
7703 113
7704 5
7705 75
7706 48
7707 125
7708 144
7709 2
7710 53
7711 65
7712 63
7713 75
7714 43
7715 29
7716 60
7717 22
7718 47
7719 109
7720 13
7721 35
7722 35
7723 51
7724 102
7725 47
7726 46
7727 21
7728 5
7729 2
7730 38
7731 17
7732 8
7733 27
7734 15
7735 44
7736 80
7737 51
7738 30
7739 7
7740 51
7741 78
7742 80
7743 0
7744 90
7745 15
7746 2
7747 21
7748 2
7749 66
7750 28
7751 96
7752 34
7753 8
7754 21
7755 35
7756 87
7757 35
7758 60
7759 29
7760 5
7761 89
7762 66
7763 13
7764 89
7765 31
7766 56
7767 34
7768 30
7769 35
7770 62
7771 90
7772 34
7773 57
7774 59
7775 36
7776 17
7777 102
7778 17
7779 106
7780 31
7781 60
7782 74
7783 51
7784 31
7785 110
7786 77
7787 97
7788 5
7789 41
7790 0
7791 63
7792 60
7793 17
7794 51
7795 34
7796 76
7797 97
7798 1
7799 30
7800 16
7801 53
7802 34
7803 5
7804 35
7805 64
7806 35
7807 5
7808 120
7809 19
7810 2
7811 53
7812 38
7813 21
7814 34
7815 140
7816 81
7817 81
7818 140
7819 97
7820 97
7821 17
7822 34
7823 109
7824 65
7825 5
7826 35
7827 76
7828 17
7829 50
7830 97
7831 35
7832 64
7833 50
7834 21
7835 2
7836 116
7837 38
7838 2
7839 111
7840 21
7841 38
7842 38
7843 53
7844 80
7845 21
7846 2
7847 90
7848 2
7849 47
7850 53
7851 13
7852 65
7853 140
7854 51
7855 96
7856 97
7857 57
7858 27
7859 76
7860 60
7861 93
7862 30
7863 14
7864 29
7865 97
7866 99
7867 21
7868 35
7869 65
7870 24
7871 35
7872 97
7873 60
7874 88
7875 92
7876 2
7877 71
7878 78
7879 94
7880 21
7881 78
7882 97
7883 83
7884 2
7885 51
7886 14
7887 51
7888 27
7889 34
7890 27
7891 34
7892 17
7893 106
7894 5
7895 47
7896 14
7897 74
7898 29
7899 60
7900 74
7901 78
7902 140
7903 53
7904 2
7905 15
7906 78
7907 26
7908 64
7909 64
7910 38
7911 78
7912 35
7913 82
7914 2
7915 38
7916 35
7917 80
7918 26
7919 35
7920 34
7921 75
7922 31
7923 34
7924 97
7925 2
7926 38
7927 13
7928 21
7929 35
7930 80
7931 47
7932 49
7933 2
7934 97
7935 38
7936 17
7937 68
7938 51
7939 31
7940 78
7941 80
7942 80
7943 34
7944 29
7945 47
7946 68
7947 63
7948 81
7949 95
7950 38
7951 68
7952 17
7953 96
7954 65
7955 26
7956 16
7957 57
7958 53
7959 17
7960 33
7961 110
7962 46
7963 70
7964 81
7965 95
7966 34
7967 18
7968 5
7969 31
7970 80
7971 7
7972 21
7973 17
7974 29
7975 17
7976 80
7977 70
7978 53
7979 65
7980 40
7981 31
7982 31
7983 2
7984 64
7985 51
7986 60
7987 81
7988 78
7989 2
7990 29
7991 53
7992 14
7993 51
7994 96
7995 139
7996 66
7997 57
7998 57
7999 6
8000 80
8001 2
8002 70
8003 60
8004 60
8005 24
8006 126
8007 38
8008 106
8009 47
8010 66
8011 2
8012 43
8013 51
8014 97
8015 18
8016 35
8017 99
8018 35
8019 21
8020 5
8021 126
8022 80
8023 89
8024 97
8025 60
8026 49
8027 21
8028 80
8029 21
8030 80
8031 17
8032 22
8033 51
8034 70
8035 68
8036 17
8037 51
8038 97
8039 77
8040 21
8041 53
8042 66
8043 47
8044 38
8045 38
8046 97
8047 29
8048 51
8049 51
8050 79
8051 89
8052 5
8053 21
8054 97
8055 78
8056 17
8057 21
8058 43
8059 2
8060 27
8061 60
8062 21
8063 54
8064 25
8065 35
8066 78
8067 38
8068 29
8069 47
8070 78
8071 47
8072 82
8073 5
8074 29
8075 31
8076 78
8077 75
8078 66
8079 122
8080 49
8081 81
8082 29
8083 34
8084 27
8085 49
8086 24
8087 47
8088 93
8089 2
8090 27
8091 34
8092 49
8093 17
8094 23
8095 64
8096 75
8097 17
8098 29
8099 77
8100 38
8101 21
8102 43
8103 81
8104 99
8105 81
8106 97
8107 81
8108 80
8109 29
8110 97
8111 81
8112 49
8113 60
8114 18
8115 2
8116 27
8117 27
8118 75
8119 5
8120 49
8121 38
8122 51
8123 26
8124 2
8125 51
8126 135
8127 2
8128 120
8129 38
8130 38
8131 53
8132 53
8133 18
8134 60
8135 60
8136 36
8137 2
8138 49
8139 53
8140 83
8141 81
8142 4
8143 27
8144 47
8145 47
8146 2
8147 34
8148 127
8149 53
8150 95
8151 53
8152 17
8153 34
8154 60
8155 2
8156 111
8157 78
8158 47
8159 99
8160 47
8161 94
8162 49
8163 34
8164 121
8165 75
8166 45
8167 95
8168 60
8169 2
8170 38
8171 35
8172 80
8173 114
8174 66
8175 49
8176 132
8177 42
8178 144
8179 60
8180 118
8181 2
8182 29
8183 4
8184 32
8185 68
8186 24
8187 18
8188 43
8189 30
8190 54
8191 97
8192 78
8193 3
8194 97
8195 24
8196 78
8197 51
8198 81
8199 10
8200 3
8201 27
8202 51
8203 106
8204 110
8205 65
8206 94
8207 49
8208 113
8209 42
8210 5
8211 42
8212 60
8213 70
8214 65
8215 91
8216 75
8217 29
8218 78
8219 70
8220 81
8221 43
8222 75
8223 38
8224 81
8225 80
8226 30
8227 68
8228 8
8229 26
8230 94
8231 49
8232 29
8233 58
8234 27
8235 58
8236 38
8237 53
8238 42
8239 113
8240 0
8241 15
8242 121
8243 63
8244 78
8245 78
8246 115
8247 47
8248 60
8249 17
8250 49
8251 13
8252 32
8253 127
8254 43
8255 36
8256 38
8257 49
8258 58
8259 26
8260 24
8261 58
8262 14
8263 40
8264 68
8265 7
8266 75
8267 38
8268 41
8269 87
8270 89
8271 8
8272 135
8273 87
8274 10
8275 77
8276 46
8277 113
8278 90
8279 34
8280 18
8281 80
8282 42
8283 75
8284 49
8285 29
8286 124
8287 89
8288 114
8289 79
8290 102
8291 48
8292 85
8293 28
8294 144
8295 57
8296 43
8297 21
8298 115
8299 51
8300 49
8301 75
8302 70
8303 102
8304 110
8305 70
8306 77
8307 129
8308 63
8309 24
8310 122
8311 97
8312 52
8313 24
8314 93
8315 62
8316 64
8317 78
8318 24
8319 39
8320 59
8321 121
8322 13
8323 60
8324 13
8325 73
8326 87
8327 38
8328 110
8329 55
8330 0
8331 3
8332 56
8333 15
8334 80
8335 81
8336 82
8337 101
8338 89
8339 140
8340 64
8341 75
8342 38
8343 64
8344 53
8345 38
8346 88
8347 1
8348 60
8349 5
8350 28
8351 140
8352 85
8353 106
8354 96
8355 104
8356 24
8357 125
8358 14
8359 0
8360 2
8361 144
8362 38
8363 83
8364 31
8365 77
8366 89
8367 70
8368 124
8369 89
8370 99
8371 77
8372 24
8373 26
8374 67
8375 56
8376 123
8377 25
8378 1
8379 60
8380 27
8381 93
8382 72
8383 59
8384 20
8385 24
8386 0
8387 38
8388 13
8389 56
8390 43
8391 65
8392 78
8393 92
8394 87
8395 117
8396 58
8397 120
8398 8
8399 114
8400 35
8401 94
8402 96
8403 89
8404 130
8405 64
8406 105
8407 72
8408 35
8409 121
8410 77
8411 35
8412 4
8413 16
8414 56
8415 40
8416 50
8417 35
8418 93
8419 66
8420 0
8421 38
8422 96
8423 25
8424 76
8425 12
8426 109
8427 29
8428 68
8429 65
8430 93
8431 68
8432 93
8433 94
8434 26
8435 99
8436 38
8437 18
8438 95
8439 44
8440 26
8441 96
8442 68
8443 17
8444 78
8445 73
8446 53
8447 93
8448 17
8449 27
8450 65
8451 36
8452 36
8453 91
8454 19
8455 81
8456 65
8457 10
8458 36
8459 64
8460 20
8461 18
8462 87
8463 8
8464 21
8465 17
8466 53
8467 21
8468 87
8469 48
8470 10
8471 99
8472 96
8473 35
8474 21
8475 89
8476 38
8477 38
8478 27
8479 112
8480 35
8481 122
8482 5
8483 89
8484 53
8485 38
8486 5
8487 35
8488 62
8489 49
8490 53
8491 24
8492 95
8493 16
8494 139
8495 140
8496 100
8497 67
8498 76
8499 38
8500 35
8501 20
8502 26
8503 122
8504 133
8505 30
8506 101
8507 87
8508 38
8509 135
8510 35
8511 134
8512 62
8513 96
8514 5
8515 60
8516 48
8517 96
8518 96
8519 142
8520 35
8521 93
8522 17
8523 58
8524 17
8525 98
8526 59
8527 51
8528 46
8529 60
8530 87
8531 132
8532 57
8533 36
8534 92
8535 84
8536 53
8537 124
8538 110
8539 53
8540 95
8541 60
8542 59
8543 80
8544 121
8545 42
8546 61
8547 64
8548 79
8549 78
8550 48
8551 35
8552 78
8553 143
8554 38
8555 2
8556 78
8557 83
8558 124
8559 46
8560 43
8561 35
8562 35
8563 38
8564 119
8565 60
8566 38
8567 60
8568 145
8569 31
8570 99
8571 83
8572 35
8573 14
8574 78
8575 6
8576 53
8577 35
8578 53
8579 124
8580 123
8581 14
8582 38
8583 110
8584 57
8585 53
8586 121
8587 57
8588 41
8589 28
8590 110
8591 70
8592 78
8593 70
8594 97
8595 140
8596 38
8597 104
8598 66
8599 51
8600 70
8601 47
8602 64
8603 28
8604 73
8605 18
8606 38
8607 104
8608 59
8609 15
8610 66
8611 60
8612 60
8613 18
8614 60
8615 94
8616 46
8617 81
8618 38
8619 74
8620 97
8621 53
8622 17
8623 41
8624 38
8625 126
8626 31
8627 132
8628 7
8629 44
8630 0
8631 124
8632 28
8633 46
8634 97
8635 99
8636 128
8637 60
8638 54
8639 47
8640 21
8641 132
8642 51
8643 62
8644 79
8645 46
8646 74
8647 6
8648 21
8649 77
8650 38
8651 1
8652 60
8653 76
8654 17
8655 50
8656 71
8657 140
8658 31
8659 81
8660 21
8661 59
8662 76
8663 52
8664 17
8665 43
8666 92
8667 53
8668 116
8669 17
8670 17
8671 53
8672 51
8673 75
8674 101
8675 23
8676 53
8677 1
8678 35
8679 15
8680 40
8681 38
8682 21
8683 31
8684 15
8685 80
8686 53
8687 78
8688 78
8689 10
8690 38
8691 96
8692 7
8693 19
8694 27
8695 60
8696 78
8697 53
8698 21
8699 43
8700 38
8701 31
8702 78
8703 51
8704 38
8705 26
8706 55
8707 121
8708 0
8709 38
8710 0
8711 43
8712 113
8713 111
8714 0
8715 46
8716 93
8717 80
8718 93
8719 43
8720 2
8721 131
8722 71
8723 2
8724 48
8725 69
8726 72
8727 2
8728 2
8729 35
8730 57
8731 121
8732 134
8733 47
8734 128
8735 75
8736 50
8737 95
8738 43
8739 66
8740 78
8741 75
8742 80
8743 97
8744 0
8745 115
8746 48
8747 8
8748 81
8749 120
8750 86
8751 89
8752 5
8753 81
8754 50
8755 75
8756 41
8757 35
8758 75
8759 28
8760 96
8761 89
8762 89
8763 38
8764 34
8765 36
8766 34
8767 2
8768 133
8769 70
8770 35
8771 34
8772 135
8773 80
8774 35
8775 19
8776 1
8777 106
8778 42
8779 142
8780 35
8781 67
8782 38
8783 75
8784 34
8785 142
8786 66
8787 21
8788 24
8789 24
8790 38
8791 77
8792 5
8793 0
8794 51
8795 13
8796 34
8797 21
8798 46
8799 97
8800 51
8801 31
8802 119
8803 87
8804 92
8805 17
8806 17
8807 88
8808 59
8809 92
8810 36
8811 21
8812 51
8813 11
8814 97
8815 89
8816 77
8817 17
8818 16
8819 53
8820 27
8821 60
8822 51
8823 79
8824 16
8825 16
8826 31
8827 51
8828 36
8829 120
8830 5
8831 64
8832 106
8833 71
8834 2
8835 34
8836 80
8837 31
8838 25
8839 66
8840 35
8841 51
8842 38
8843 53
8844 64
8845 38
8846 118
8847 35
8848 120
8849 51
8850 21
8851 59
8852 80
8853 35
8854 43
8855 117
8856 78
8857 21
8858 21
8859 87
8860 35
8861 25
8862 2
8863 21
8864 51
8865 17
8866 31
8867 5
8868 102
8869 40
8870 96
8871 100
8872 101
8873 36
8874 47
8875 25
8876 76
8877 31
8878 34
8879 61
8880 47
8881 78
8882 109
8883 88
8884 31
8885 66
8886 27
8887 16
8888 65
8889 76
8890 51
8891 21
8892 5
8893 60
8894 35
8895 31
8896 2
8897 25
8898 113
8899 119
8900 38
8901 31
8902 83
8903 67
8904 68
8905 93
8906 92
8907 97
8908 51
8909 35
8910 78
8911 121
8912 2
8913 103
8914 16
8915 34
8916 65
8917 78
8918 34
8919 112
8920 17
8921 75
8922 49
8923 2
8924 83
8925 5
8926 107
8927 99
8928 5
8929 97
8930 34
8931 38
8932 99
8933 53
8934 51
8935 34
8936 78
8937 30
8938 47
8939 17
8940 34
8941 78
8942 99
8943 121
8944 35
8945 97
8946 13
8947 121
8948 78
8949 64
8950 83
8951 38
8952 35
8953 96
8954 26
8955 31
8956 38
8957 92
8958 18
8959 17
8960 35
8961 60
8962 35
8963 18
8964 5
8965 34
8966 106
8967 109
8968 47
8969 31
8970 85
8971 17
8972 6
8973 63
8974 96
8975 10
8976 51
8977 38
8978 16
8979 46
8980 64
8981 21
8982 84
8983 6
8984 34
8985 80
8986 17
8987 83
8988 5
8989 121
8990 38
8991 53
8992 2
8993 68
8994 111
8995 34
8996 46
8997 16
8998 69
8999 30
9000 92
9001 64
9002 21
9003 17
9004 80
9005 14
9006 28
9007 74
9008 99
9009 24
9010 13
9011 81
9012 135
9013 77
9014 51
9015 38
9016 53
9017 7
9018 29
9019 81
9020 93
9021 5
9022 29
9023 34
9024 60
9025 117
9026 27
9027 31
9028 53
9029 49
9030 83
9031 97
9032 53
9033 63
9034 81
9035 60
9036 5
9037 30
9038 49
9039 38
9040 20
9041 2
9042 38
9043 116
9044 27
9045 43
9046 60
9047 21
9048 17
9049 35
9050 88
9051 17
9052 71
9053 80
9054 80
9055 97
9056 46
9057 29
9058 97
9059 34
9060 78
9061 28
9062 60
9063 27
9064 47
9065 46
9066 86
9067 16
9068 27
9069 31
9070 53
9071 18
9072 26
9073 66
9074 97
9075 60
9076 38
9077 144
9078 88
9079 47
9080 53
9081 109
9082 34
9083 120
9084 34
9085 35
9086 49
9087 27
9088 128
9089 78
9090 22
9091 83
9092 78
9093 138
9094 80
9095 21
9096 111
9097 38
9098 26
9099 5
9100 24
9101 5
9102 97
9103 97
9104 5
9105 80
9106 35
9107 93
9108 96
9109 76
9110 77
9111 15
9112 31
9113 41
9114 75
9115 43
9116 29
9117 16
9118 60
9119 26
9120 70
9121 17
9122 60
9123 5
9124 94
9125 17
9126 46
9127 35
9128 14
9129 53
9130 46
9131 140
9132 60
9133 31
9134 124
9135 47
9136 34
9137 24
9138 74
9139 24
9140 31
9141 31
9142 60
9143 31
9144 46
9145 21
9146 24
9147 121
9148 47
9149 21
9150 81
9151 51
9152 75
9153 5
9154 2
9155 66
9156 46
9157 26
9158 24
9159 31
9160 17
9161 34
9162 35
9163 21
9164 38
9165 29
9166 47
9167 34
9168 30
9169 21
9170 29
9171 81
9172 48
9173 34
9174 34
9175 34
9176 78
9177 51
9178 75
9179 47
9180 51
9181 97
9182 137
9183 113
9184 38
9185 17
9186 75
9187 95
9188 56
9189 19
9190 75
9191 66
9192 51
9193 5
9194 5
9195 49
9196 65
9197 78
9198 2
9199 75
9200 31
9201 26
9202 97
9203 38
9204 74
9205 21
9206 38
9207 38
9208 53
9209 27
9210 93
9211 80
9212 49
9213 97
9214 97
9215 42
9216 120
9217 48
9218 29
9219 24
9220 81
9221 2
9222 70
9223 47
9224 99
9225 2
9226 29
9227 10
9228 27
9229 17
9230 30
9231 35
9232 38
9233 113
9234 28
9235 53
9236 62
9237 38
9238 12
9239 36
9240 90
9241 35
9242 50
9243 5
9244 27
9245 34
9246 29
9247 25
9248 91
9249 24
9250 132
9251 35
9252 35
9253 35
9254 27
9255 51
9256 51
9257 38
9258 29
9259 71
9260 18
9261 12
9262 38
9263 121
9264 35
9265 65
9266 80
9267 49
9268 93
9269 70
9270 35
9271 35
9272 10
9273 18
9274 46
9275 96
9276 78
9277 65
9278 38
9279 21
9280 24
9281 26
9282 47
9283 47
9284 49
9285 46
9286 5
9287 24
9288 61
9289 74
9290 50
9291 35
9292 2
9293 21
9294 5
9295 27
9296 65
9297 56
9298 65
9299 17
9300 144
9301 81
9302 71
9303 2
9304 34
9305 37
9306 34
9307 5
9308 38
9309 2
9310 35
9311 21
9312 35
9313 51
9314 2
9315 22
9316 31
9317 30
9318 34
9319 50
9320 2
9321 121
9322 31
9323 18
9324 51
9325 110
9326 129
9327 17
9328 90
9329 2
9330 24
9331 30
9332 17
9333 22
9334 5
9335 43
9336 31
9337 75
9338 81
9339 78
9340 38
9341 140
9342 16
9343 2
9344 35
9345 21
9346 29
9347 78
9348 13
9349 21
9350 140
9351 140
9352 24
9353 15
9354 64
9355 22
9356 17
9357 140
9358 91
9359 101
9360 17
9361 74
9362 17
9363 79
9364 38
9365 92
9366 73
9367 43
9368 24
9369 34
9370 21
9371 38
9372 51
9373 40
9374 83
9375 128
9376 36
9377 29
9378 75
9379 24
9380 96
9381 29
9382 28
9383 99
9384 90
9385 68
9386 80
9387 0
9388 38
9389 5
9390 51
9391 92
9392 29
9393 14
9394 64
9395 75
9396 31
9397 13
9398 35
9399 31
9400 38
9401 29
9402 38
9403 51
9404 77
9405 51
9406 29
9407 76
9408 16
9409 5
9410 75
9411 90
9412 31
9413 131
9414 26
9415 38
9416 31
9417 98
9418 56
9419 5
9420 17
9421 59
9422 21
9423 35
9424 35
9425 99
9426 26
9427 28
9428 15
9429 125
9430 52
9431 63
9432 34
9433 66
9434 47
9435 68
9436 74
9437 19
9438 2
9439 81
9440 96
9441 76
9442 50
9443 92
9444 5
9445 106
9446 51
9447 35
9448 96
9449 5
9450 10
9451 27
9452 38
9453 58
9454 68
9455 38
9456 2
9457 13
9458 123
9459 51
9460 51
9461 65
9462 12
9463 51
9464 14
9465 38
9466 14
9467 38
9468 31
9469 31
9470 38
9471 104
9472 56
9473 31
9474 34
9475 19
9476 110
9477 2
9478 98
9479 30
9480 100
9481 139
9482 2
9483 64
9484 75
9485 53
9486 34
9487 38
9488 109
9489 51
9490 31
9491 121
9492 144
9493 14
9494 34
9495 29
9496 31
9497 53
9498 38
9499 5
9500 75
9501 5
9502 110
9503 51
9504 31
9505 111
9506 87
9507 5
9508 92
9509 143
9510 5
9511 77
9512 25
9513 26
9514 96
9515 19
9516 39
9517 58
9518 2
9519 86
9520 96
9521 62
9522 24
9523 83
9524 121
9525 51
9526 19
9527 30
9528 31
9529 99
9530 66
9531 2
9532 96
9533 13
9534 83
9535 2
9536 2
9537 91
9538 34
9539 87
9540 26
9541 17
9542 70
9543 77
9544 5
9545 5
9546 83
9547 5
9548 2
9549 90
9550 5
9551 21
9552 60
9553 39
9554 37
9555 34
9556 60
9557 126
9558 14
9559 5
9560 127
9561 53
9562 10
9563 89
9564 121
9565 116
9566 51
9567 90
9568 29
9569 31
9570 102
9571 68
9572 125
9573 5
9574 60
9575 93
9576 43
9577 31
9578 21
9579 78
9580 43
9581 5
9582 17
9583 96
9584 78
9585 16
9586 22
9587 110
9588 102
9589 34
9590 60
9591 16
9592 76
9593 2
9594 5
9595 70
9596 56
9597 17
9598 76
9599 121
9600 92
9601 35
9602 128
9603 100
9604 137
9605 51
9606 92
9607 34
9608 21
9609 140
9610 51
9611 51
9612 50
9613 83
9614 123
9615 28
9616 34
9617 140
9618 17
9619 43
9620 97
9621 136
9622 75
9623 21
9624 35
9625 38
9626 51
9627 97
9628 96
9629 2
9630 53
9631 125
9632 83
9633 15
9634 60
9635 51
9636 18
9637 38
9638 78
9639 3
9640 81
9641 47
9642 80
9643 78
9644 70
9645 21
9646 2
9647 51
9648 47
9649 126
9650 50
9651 79
9652 80
9653 66
9654 21
9655 21
9656 31
9657 26
9658 53
9659 43
9660 50
9661 31
9662 130
9663 12
9664 11
9665 5
9666 80
9667 31
9668 17
9669 31
9670 60
9671 51
9672 70
9673 35
9674 5
9675 60
9676 144
9677 17
9678 126
9679 92
9680 107
9681 97
9682 109
9683 46
9684 34
9685 145
9686 97
9687 142
9688 110
9689 47
9690 97
9691 35
9692 18
9693 44
9694 47
9695 79
9696 34
9697 38
9698 8
9699 60
9700 53
9701 34
9702 66
9703 25
9704 18
9705 60
9706 132
9707 80
9708 5
9709 10
9710 47
9711 80
9712 63
9713 48
9714 47
9715 64
9716 82
9717 31
9718 5
9719 60
9720 80
9721 60
9722 75
9723 21
9724 46
9725 97
9726 30
9727 115
9728 19
9729 14
9730 103
9731 7
9732 38
9733 38
9734 106
9735 106
9736 124
9737 7
9738 68
9739 35
9740 16
9741 142
9742 13
9743 126
9744 75
9745 93
9746 48
9747 113
9748 30
9749 78
9750 34
9751 2
9752 27
9753 94
9754 69
9755 63
9756 53
9757 75
9758 2
9759 121
9760 79
9761 5
9762 35
9763 58
9764 2
9765 88
9766 32
9767 87
9768 51
9769 35
9770 81
9771 71
9772 13
9773 51
9774 101
9775 51
9776 2
9777 18
9778 5
9779 2
9780 36
9781 123
9782 13
9783 51
9784 89
9785 36
9786 102
9787 77
9788 21
9789 35
9790 74
9791 95
9792 61
9793 1
9794 29
9795 31
9796 59
9797 71
9798 27
9799 31
9800 20
9801 57
9802 105
9803 63
9804 0
9805 13
9806 2
9807 102
9808 21
9809 38
9810 35
9811 57
9812 21
9813 55
9814 38
9815 31
9816 17
9817 35
9818 83
9819 38
9820 17
9821 44
9822 77
9823 79
9824 27
9825 10
9826 35
9827 35
9828 21
9829 2
9830 64
9831 37
9832 34
9833 49
9834 141
9835 19
9836 97
9837 43
9838 30
9839 38
9840 5
9841 71
9842 17
9843 70
9844 97
9845 10
9846 16
9847 35
9848 17
9849 34
9850 9
9851 2
9852 21
9853 97
9854 53
9855 16
9856 25
9857 51
9858 10
9859 51
9860 2
9861 18
9862 74
9863 109
9864 97
9865 109
9866 21
9867 53
9868 21
9869 60
9870 17
9871 64
9872 21
9873 98
9874 72
9875 2
9876 5
9877 77
9878 34
9879 64
9880 77
9881 31
9882 109
9883 54
9884 97
9885 28
9886 116
9887 34
9888 5
9889 35
9890 97
9891 92
9892 21
9893 77
9894 13
9895 47
9896 81
9897 38
9898 17
9899 12
9900 105
9901 111
9902 5
9903 5
9904 35
9905 132
9906 78
9907 78
9908 71
9909 47
9910 38
9911 47
9912 35
9913 16
9914 51
9915 89
9916 74
9917 5
9918 73
9919 34
9920 83
9921 15
9922 93
9923 47
9924 14
9925 94
9926 96
9927 17
9928 64
9929 38
9930 31
9931 60
9932 78
9933 97
9934 83
9935 63
9936 109
9937 5
9938 47
9939 78
9940 121
9941 24
9942 97
9943 139
9944 2
9945 96
9946 15
9947 87
9948 21
9949 77
9950 38
9951 45
9952 13
9953 25
9954 83
9955 17
9956 106
9957 47
9958 78
9959 77
9960 29
9961 34
9962 34
9963 53
9964 92
9965 31
9966 38
9967 60
9968 37
9969 78
9970 47
9971 60
9972 106
9973 107
9974 78
9975 97
9976 57
9977 97
9978 42
9979 47
9980 60
9981 3
9982 113
9983 2
9984 140
9985 97
9986 97
9987 42
9988 57
9989 93
9990 53
9991 93
9992 60
9993 103
9994 80
9995 97
9996 117
9997 21
9998 34
9999 53
