0 0
1 1
2 2
3 3
4 4
5 5
6 6
7 7
8 8
9 4
10 9
11 10
12 11
13 0
14 12
15 13
16 14
17 15
18 16
19 17
20 18
21 10
22 19
23 20
24 21
25 22
26 23
27 24
28 25
29 24
30 26
31 27
32 28
33 29
34 15
35 30
36 31
37 13
38 32
39 33
40 6
41 34
42 15
43 35
44 5
45 36
46 37
47 38
48 39
49 28
50 40
51 41
52 39
53 42
54 0
55 18
56 43
57 44
58 45
59 46
60 47
61 48
62 49
63 8
64 47
65 50
66 5
67 51
68 3
69 52
70 53
71 54
72 41
73 31
74 44
75 30
76 55
77 56
78 57
79 31
80 44
81 35
82 57
83 58
84 27
85 53
86 55
87 59
88 0
89 19
90 60
91 51
92 61
93 7
94 17
95 17
96 62
97 63
98 50
99 30
100 64
101 65
102 37
103 66
104 32
105 2
106 49
107 67
108 50
109 50
110 57
111 50
112 68
113 12
114 69
115 47
116 21
117 0
118 70
119 51
120 71
121 72
122 73
123 47
124 65
125 52
126 0
127 6
128 74
129 75
130 65
131 24
132 40
133 76
134 31
135 77
136 78
137 72
138 16
139 79
140 60
141 78
142 42
143 80
144 26
145 7
146 81
147 13
148 78
149 39
150 82
151 73
152 83
153 13
154 12
155 84
156 85
157 86
158 74
159 76
160 81
161 87
162 73
163 88
164 57
165 20
166 89
167 15
168 50
169 90
170 12
171 88
172 76
173 48
174 57
175 39
176 74
177 64
178 41
179 0
180 80
181 30
182 17
183 45
184 37
185 91
186 92
187 93
188 94
189 82
190 16
191 95
192 93
193 70
194 15
195 65
196 76
197 88
198 21
199 69
200 76
201 65
202 24
203 96
204 29
205 94
206 76
207 97
208 36
209 71
210 45
211 88
212 93
213 55
214 98
215 99
216 100
217 10
218 78
219 51
220 97
221 78
222 28
223 11
224 28
225 13
226 101
227 78
228 72
229 27
230 57
231 54
232 102
233 14
234 80
235 94
236 13
237 102
238 50
239 69
240 64
241 103
242 63
243 90
244 36
245 65
246 104
247 105
248 28
249 57
250 106
251 107
252 15
253 57
254 95
255 108
256 65
257 48
258 94
259 65
260 98
261 13
262 50
263 93
264 9
265 76
266 27
267 49
268 106
269 96
270 35
271 58
272 47
273 24
274 109
275 64
276 110
277 46
278 47
279 111
280 58
281 18
282 78
283 79
284 112
285 69
286 100
287 71
288 95
289 94
290 86
291 88
292 94
293 90
294 58
295 71
296 62
297 63
298 75
299 104
300 91
301 97
302 71
303 50
304 71
305 87
306 16
307 30
308 100
309 31
310 111
311 29
312 113
313 33
314 54
315 29
316 90
317 44
318 58
319 92
320 21
321 17
322 47
323 4
324 114
325 84
326 27
327 20
328 11
329 21
330 54
331 58
332 36
333 100
334 115
335 99
336 67
337 65
338 37
339 36
340 55
341 24
342 61
343 44
344 69
345 58
346 78
347 80
348 106
349 111
350 100
351 36
352 55
353 66
354 76
355 73
356 72
357 14
358 44
359 78
360 84
361 18
362 93
363 37
364 63
365 36
366 55
367 91
368 41
369 91
370 54
371 32
372 116
373 67
374 117
375 6
376 36
377 19
378 30
379 44
380 50
381 94
382 60
383 78
384 39
385 79
386 87
387 3
388 73
389 16
390 47
391 88
392 74
393 30
394 77
395 74
396 18
397 83
398 50
399 118
400 23
401 13
402 78
403 24
404 14
405 48
406 16
407 55
408 98
409 94
410 47
411 47
412 17
413 54
414 18
415 98
416 77
417 17
418 17
419 79
420 119
421 66
422 65
423 1
424 120
425 21
426 94
427 51
428 87
429 67
430 21
431 71
432 48
433 121
434 78
435 48
436 65
437 82
438 34
439 52
440 36
441 49
442 61
443 111
444 29
445 95
446 67
447 3
448 14
449 32
450 58
451 67
452 54
453 0
454 15
455 70
456 122
457 21
458 29
459 32
460 78
461 32
462 0
463 49
464 98
465 54
466 93
467 31
468 64
469 78
470 121
471 114
472 82
473 118
474 52
475 82
476 79
477 18
478 69
479 108
480 84
481 51
482 60
483 76
484 54
485 12
486 102
487 67
488 71
489 15
490 107
491 80
492 48
493 54
494 17
495 18
496 21
497 61
498 61
499 7
500 87
501 120
502 114
503 98
504 76
505 77
506 94
507 95
508 118
509 83
510 38
511 36
512 27
513 98
514 100
515 98
516 100
517 82
518 82
519 48
520 98
521 34
522 10
523 13
524 39
525 82
526 37
527 82
528 83
529 47
530 123
531 28
532 124
533 0
534 76
535 43
536 36
537 122
538 2
539 104
540 37
541 15
542 2
543 41
544 86
545 7
546 125
547 55
548 2
549 4
550 48
551 13
552 126
553 2
554 51
555 20
556 30
557 35
558 2
559 82
560 2
561 49
562 0
563 28
564 0
565 0
566 42
567 51
568 12
569 30
570 86
571 26
572 36
573 9
574 81
575 43
576 72
577 61
578 52
579 21
580 42
581 1
582 83
583 67
584 88
585 35
586 73
587 71
588 14
589 4
590 6
591 52
592 84
593 127
594 34
595 32
596 54
597 35
598 52
599 88
600 31
601 57
602 62
603 66
604 36
605 52
606 51
607 121
608 7
609 124
610 6
611 28
612 48
613 74
614 36
615 13
616 125
617 35
618 43
619 93
620 71
621 52
622 78
623 30
624 21
625 66
626 93
627 74
628 60
629 93
630 54
631 66
632 57
633 118
634 22
635 77
636 21
637 41
638 21
639 105
640 0
641 121
642 92
643 44
644 44
645 52
646 39
647 78
648 31
649 109
650 109
651 112
652 32
653 101
654 75
655 21
656 125
657 78
658 126
659 16
660 93
661 82
662 93
663 109
664 98
665 54
666 98
667 21
668 103
669 22
670 30
671 128
672 67
673 76
674 96
675 90
676 39
677 75
678 70
679 48
680 7
681 93
682 35
683 31
684 69
685 24
686 54
687 129
688 30
689 77
690 39
691 97
692 26
693 48
694 62
695 89
696 39
697 63
698 78
699 39
700 84
701 107
702 79
703 24
704 51
705 90
706 121
707 29
708 21
709 98
710 2
711 73
712 22
713 35
714 18
715 21
716 14
717 65
718 36
719 35
720 2
721 5
722 50
723 78
724 106
725 56
726 60
727 89
728 28
729 54
730 61
731 106
732 121
733 65
734 35
735 10
736 50
737 76
738 93
739 75
740 97
741 102
742 94
743 50
744 5
745 103
746 96
747 114
748 32
749 64
750 126
751 27
752 117
753 13
754 54
755 122
756 58
757 81
758 104
759 123
760 31
761 5
762 35
763 111
764 39
765 122
766 65
767 24
768 69
769 21
770 35
771 79
772 100
773 130
774 5
775 30
776 83
777 69
778 16
779 122
780 61
781 65
782 27
783 27
784 81
785 2
786 100
787 111
788 72
789 40
790 39
791 79
792 29
793 32
794 17
795 65
796 131
797 21
798 66
799 91
800 21
801 71
802 21
803 71
804 121
805 37
806 31
807 79
808 24
809 2
810 5
811 54
812 82
813 58
814 47
815 52
816 78
817 5
818 76
819 76
820 71
821 84
822 78
823 75
824 94
825 38
826 10
827 16
828 36
829 98
830 52
831 36
832 52
833 52
834 132
835 13
836 17
837 32
838 61
839 48
840 62
841 59
842 82
843 48
844 37
845 21
846 36
847 28
848 17
849 122
850 65
851 17
852 100
853 79
854 16
855 16
856 71
857 133
858 57
859 72
860 67
861 48
862 78
863 122
864 84
865 93
866 17
867 16
868 106
869 5
870 28
871 36
872 61
873 134
874 21
875 90
876 81
877 24
878 32
879 35
880 77
881 44
882 67
883 54
884 50
885 5
886 79
887 77
888 12
889 81
890 73
891 76
892 2
893 81
894 60
895 39
896 97
897 30
898 13
899 16
900 122
901 50
902 18
903 116
904 97
905 76
906 5
907 81
908 93
909 97
910 76
911 48
912 54
913 28
914 16
915 5
916 76
917 77
918 122
919 28
920 36
921 28
922 54
923 17
924 16
925 18
926 54
927 75
928 32
929 52
930 24
931 27
932 132
933 126
934 82
935 75
936 14
937 19
938 79
939 69
940 52
941 54
942 5
943 122
944 47
945 16
946 28
947 61
948 72
949 106
950 75
951 0
952 52
953 54
954 114
955 0
956 32
957 17
958 76
959 25
960 79
961 21
962 94
963 39
964 21
965 48
966 61
967 57
968 106
969 90
970 60
971 11
972 109
973 35
974 50
975 54
976 31
977 50
978 73
979 35
980 107
981 109
982 82
983 108
984 32
985 44
986 32
987 61
988 0
989 47
990 32
991 107
992 39
993 10
994 48
995 122
996 55
997 39
998 15
999 28
1000 67
1001 67
1002 103
1003 54
1004 0
1005 54
1006 79
1007 132
1008 17
1009 69
1010 31
1011 5
1012 75
1013 5
1014 24
1015 28
1016 76
1017 5
1018 50
1019 21
1020 27
1021 49
1022 107
1023 30
1024 47
1025 114
1026 61
1027 64
1028 82
1029 0
1030 50
1031 39
1032 56
1033 48
1034 28
1035 66
1036 24
1037 39
1038 71
1039 70
1040 15
1041 54
1042 32
1043 36
1044 98
1045 47
1046 48
1047 24
1048 19
1049 5
1050 17
1051 135
1052 2
1053 136
1054 67
1055 48
1056 7
1057 137
1058 27
1059 39
1060 51
1061 31
1062 5
1063 54
1064 66
1065 15
1066 52
1067 44
1068 18
1069 91
1070 39
1071 18
1072 61
1073 122
1074 41
1075 51
1076 47
1077 44
1078 119
1079 69
1080 15
1081 50
1082 18
1083 49
1084 66
1085 82
1086 32
1087 111
1088 57
1089 82
1090 5
1091 76
1092 33
1093 76
1094 21
1095 35
1096 24
1097 29
1098 135
1099 54
1100 16
1101 50
1102 122
1103 76
1104 111
1105 24
1106 78
1107 32
1108 100
1109 91
1110 30
1111 24
1112 21
1113 138
1114 81
1115 119
1116 55
1117 24
1118 2
1119 35
1120 78
1121 21
1122 81
1123 45
1124 133
1125 88
1126 72
1127 76
1128 32
1129 35
1130 61
1131 54
1132 52
1133 54
1134 133
1135 5
1136 22
1137 7
1138 123
1139 21
1140 50
1141 105
1142 66
1143 32
1144 88
1145 74
1146 2
1147 122
1148 106
1149 15
1150 32
1151 53
1152 78
1153 67
1154 39
1155 19
1156 0
1157 52
1158 51
1159 36
1160 79
1161 11
1162 2
1163 43
1164 93
1165 5
1166 109
1167 21
1168 75
1169 36
1170 2
1171 79
1172 88
1173 21
1174 82
1175 5
1176 15
1177 35
1178 84
1179 57
1180 49
1181 7
1182 121
1183 36
1184 2
1185 90
1186 36
1187 2
1188 139
1189 84
1190 1
1191 90
1192 80
1193 13
1194 90
1195 69
1196 120
1197 24
1198 39
1199 52
1200 114
1201 21
1202 43
1203 97
1204 90
1205 63
1206 66
1207 94
1208 59
1209 96
1210 36
1211 121
1212 0
1213 140
1214 94
1215 35
1216 78
1217 77
1218 69
1219 84
1220 65
1221 35
1222 73
1223 69
1224 96
1225 71
1226 104
1227 84
1228 52
1229 39
1230 44
1231 39
1232 18
1233 78
1234 17
1235 27
1236 16
1237 26
1238 108
1239 35
1240 55
1241 21
1242 38
1243 17
1244 16
1245 28
1246 122
1247 29
1248 88
1249 94
1250 65
1251 28
1252 2
1253 60
1254 69
1255 30
1256 126
1257 61
1258 39
1259 131
1260 94
1261 65
1262 27
1263 32
1264 5
1265 94
1266 0
1267 46
1268 21
1269 78
1270 122
1271 132
1272 22
1273 67
1274 66
1275 10
1276 36
1277 52
1278 55
1279 64
1280 87
1281 75
1282 48
1283 24
1284 17
1285 24
1286 115
1287 19
1288 104
1289 97
1290 2
1291 31
1292 2
1293 18
1294 121
1295 17
1296 94
1297 126
1298 100
1299 43
1300 47
1301 78
1302 82
1303 78
1304 39
1305 111
1306 17
1307 76
1308 54
1309 35
1310 52
1311 102
1312 111
1313 94
1314 97
1315 97
1316 24
1317 43
1318 16
1319 2
1320 129
1321 71
1322 77
1323 81
1324 96
1325 17
1326 52
1327 17
1328 65
1329 50
1330 81
1331 14
1332 2
1333 65
1334 97
1335 27
1336 110
1337 28
1338 5
1339 81
1340 44
1341 94
1342 42
1343 111
1344 110
1345 35
1346 27
1347 90
1348 21
1349 17
1350 17
1351 109
1352 2
1353 135
1354 84
1355 110
1356 126
1357 65
1358 39
1359 58
1360 36
1361 122
1362 18
1363 62
1364 89
1365 129
1366 118
1367 36
1368 44
1369 84
1370 67
1371 110
1372 52
1373 111
1374 21
1375 17
1376 65
1377 83
1378 82
1379 54
1380 61
1381 18
1382 100
1383 19
1384 17
1385 59
1386 2
1387 94
1388 32
1389 36
1390 57
1391 55
1392 17
1393 61
1394 21
1395 32
1396 35
1397 7
1398 2
1399 116
1400 2
1401 120
1402 111
1403 49
1404 22
1405 45
1406 52
1407 41
1408 3
1409 80
1410 48
1411 73
1412 121
1413 50
1414 18
1415 35
1416 47
1417 117
1418 43
1419 67
1420 125
1421 32
1422 58
1423 17
1424 97
1425 125
1426 84
1427 36
1428 116
1429 126
1430 32
1431 39
1432 85
1433 109
1434 21
1435 29
1436 97
1437 98
1438 22
1439 30
1440 94
1441 39
1442 30
1443 81
1444 32
1445 80
1446 137
1447 15
1448 5
1449 0
1450 17
1451 0
1452 99
1453 2
1454 81
1455 123
1456 52
1457 2
1458 52
1459 82
1460 36
1461 81
1462 36
1463 114
1464 78
1465 112
1466 2
1467 12
1468 52
1469 27
1470 47
1471 29
1472 36
1473 36
1474 98
1475 98
1476 61
1477 21
1478 141
1479 54
1480 15
1481 2
1482 81
1483 67
1484 17
1485 48
1486 31
1487 98
1488 53
1489 67
1490 21
1491 14
1492 39
1493 97
1494 44
1495 134
1496 15
1497 48
1498 52
1499 98
1500 5
1501 76
1502 35
1503 31
1504 82
1505 81
1506 106
1507 54
1508 29
1509 35
1510 32
1511 2
1512 74
1513 3
1514 63
1515 24
1516 48
1517 79
1518 109
1519 54
1520 32
1521 75
1522 47
1523 82
1524 100
1525 6
1526 51
1527 18
1528 48
1529 108
1530 35
1531 76
1532 122
1533 109
1534 32
1535 117
1536 39
1537 67
1538 3
1539 21
1540 0
1541 59
1542 61
1543 34
1544 23
1545 22
1546 61
1547 80
1548 43
1549 6
1550 106
1551 81
1552 39
1553 27
1554 81
1555 109
1556 17
1557 76
1558 69
1559 126
1560 139
1561 28
1562 124
1563 122
1564 81
1565 67
1566 7
1567 28
1568 61
1569 116
1570 52
1571 49
1572 43
1573 105
1574 5
1575 105
1576 2
1577 12
1578 57
1579 28
1580 109
1581 47
1582 47
1583 75
1584 61
1585 51
1586 5
1587 81
1588 39
1589 21
1590 39
1591 35
1592 44
1593 134
1594 35
1595 48
1596 66
1597 15
1598 2
1599 77
1600 98
1601 36
1602 18
1603 0
1604 15
1605 28
1606 66
1607 42
1608 126
1609 46
1610 131
1611 0
1612 24
1613 24
1614 35
1615 42
1616 44
1617 21
1618 24
1619 4
1620 55
1621 30
1622 71
1623 5
1624 24
1625 78
1626 63
1627 98
1628 60
1629 39
1630 126
1631 125
1632 142
1633 118
1634 0
1635 32
1636 24
1637 87
1638 88
1639 52
1640 31
1641 35
1642 36
1643 93
1644 28
1645 57
1646 48
1647 81
1648 5
1649 67
1650 16
1651 2
1652 5
1653 98
1654 5
1655 35
1656 50
1657 2
1658 94
1659 21
1660 78
1661 28
1662 50
1663 59
1664 5
1665 32
1666 65
1667 51
1668 32
1669 82
1670 109
1671 32
1672 109
1673 39
1674 78
1675 36
1676 98
1677 67
1678 36
1679 54
1680 2
1681 16
1682 35
1683 61
1684 84
1685 111
1686 98
1687 98
1688 5
1689 65
1690 106
1691 30
1692 26
1693 2
1694 84
1695 76
1696 84
1697 25
1698 98
1699 25
1700 84
1701 24
1702 93
1703 119
1704 36
1705 69
1706 28
1707 97
1708 75
1709 36
1710 31
1711 32
1712 98
1713 122
1714 114
1715 76
1716 14
1717 2
1718 22
1719 78
1720 65
1721 17
1722 90
1723 52
1724 5
1725 5
1726 57
1727 76
1728 57
1729 16
1730 14
1731 27
1732 32
1733 66
1734 12
1735 52
1736 2
1737 76
1738 14
1739 88
1740 27
1741 57
1742 61
1743 0
1744 45
1745 5
1746 122
1747 35
1748 118
1749 97
1750 35
1751 27
1752 18
1753 109
1754 54
1755 36
1756 98
1757 101
1758 16
1759 32
1760 84
1761 17
1762 65
1763 48
1764 109
1765 21
1766 65
1767 100
1768 39
1769 63
1770 79
1771 5
1772 107
1773 32
1774 135
1775 24
1776 54
1777 81
1778 94
1779 36
1780 82
1781 94
1782 65
1783 52
1784 49
1785 114
1786 18
1787 73
1788 13
1789 49
1790 117
1791 97
1792 79
1793 58
1794 48
1795 21
1796 81
1797 121
1798 46
1799 79
1800 97
1801 39
1802 54
1803 75
1804 7
1805 36
1806 94
1807 39
1808 58
1809 94
1810 78
1811 84
1812 79
1813 52
1814 78
1815 21
1816 82
1817 79
1818 36
1819 125
1820 19
1821 54
1822 17
1823 21
1824 39
1825 32
1826 94
1827 26
1828 54
1829 122
1830 94
1831 43
1832 79
1833 81
1834 36
1835 79
1836 54
1837 5
1838 94
1839 52
1840 82
1841 82
1842 39
1843 122
1844 21
1845 79
1846 126
1847 28
1848 2
1849 28
1850 123
1851 32
1852 39
1853 79
1854 82
1855 32
1856 73
1857 5
1858 32
1859 35
1860 30
1861 36
1862 58
1863 54
1864 98
1865 30
1866 47
1867 21
1868 2
1869 39
1870 67
1871 73
1872 61
1873 78
1874 30
1875 2
1876 48
1877 32
1878 32
1879 62
1880 21
1881 98
1882 10
1883 61
1884 27
1885 61
1886 65
1887 5
1888 107
1889 61
1890 52
1891 54
1892 21
1893 5
1894 16
1895 14
1896 74
1897 47
1898 36
1899 61
1900 36
1901 84
1902 2
1903 54
1904 124
1905 43
1906 79
1907 14
1908 21
1909 39
1910 50
1911 84
1912 13
1913 30
1914 122
1915 35
1916 58
1917 36
1918 14
1919 100
1920 17
1921 79
1922 90
1923 47
1924 35
1925 69
1926 42
1927 17
1928 52
1929 5
1930 76
1931 35
1932 39
1933 35
1934 30
1935 70
1936 79
1937 28
1938 24
1939 99
1940 32
1941 48
1942 54
1943 61
1944 18
1945 30
1946 24
1947 55
1948 98
1949 79
1950 17
1951 17
1952 30
1953 82
1954 36
1955 2
1956 79
1957 79
1958 5
1959 122
1960 54
1961 36
1962 98
1963 54
1964 141
1965 0
1966 36
1967 27
1968 81
1969 21
1970 39
1971 86
1972 87
1973 69
1974 80
1975 2
1976 62
1977 21
1978 17
1979 21
1980 71
1981 71
1982 65
1983 121
1984 24
1985 51
1986 52
1987 2
1988 76
1989 25
1990 2
1991 28
1992 76
1993 79
1994 17
1995 17
1996 79
1997 94
1998 82
1999 50
2000 69
2001 30
2002 49
2003 61
2004 35
2005 0
2006 80
2007 79
2008 30
2009 48
2010 28
2011 5
2012 97
2013 82
2014 30
2015 130
2016 48
2017 21
2018 98
2019 31
2020 111
2021 5
2022 28
2023 61
2024 31
2025 98
2026 30
2027 61
2028 4
2029 32
2030 81
2031 35
2032 17
2033 81
2034 39
2035 69
2036 82
2037 44
2038 5
2039 5
2040 100
2041 44
2042 65
2043 13
2044 2
2045 7
2046 84
2047 15
2048 96
2049 117
2050 76
2051 78
2052 94
2053 28
2054 61
2055 76
2056 5
2057 27
2058 30
2059 2
2060 37
2061 64
2062 48
2063 53
2064 19
2065 94
2066 61
2067 106
2068 121
2069 79
2070 30
2071 50
2072 125
2073 11
2074 5
2075 28
2076 92
2077 98
2078 91
2079 58
2080 30
2081 107
2082 27
2083 43
2084 0
2085 130
2086 28
2087 66
2088 47
2089 81
2090 98
2091 39
2092 50
2093 82
2094 5
2095 48
2096 2
2097 112
2098 127
2099 50
2100 45
2101 91
2102 106
2103 28
2104 128
2105 71
2106 39
2107 35
2108 50
2109 94
2110 50
2111 43
2112 60
2113 134
2114 119
2115 32
2116 0
2117 13
2118 90
2119 79
2120 71
2121 66
2122 107
2123 56
2124 31
2125 91
2126 88
2127 112
2128 27
2129 47
2130 28
2131 98
2132 111
2133 89
2134 122
2135 72
2136 67
2137 121
2138 78
2139 63
2140 57
2141 125
2142 84
2143 66
2144 76
2145 65
2146 24
2147 38
2148 71
2149 80
2150 97
2151 72
2152 100
2153 39
2154 137
2155 71
2156 81
2157 134
2158 73
2159 31
2160 28
2161 35
2162 80
2163 70
2164 7
2165 116
2166 122
2167 66
2168 30
2169 34
2170 63
2171 83
2172 93
2173 13
2174 94
2175 121
2176 98
2177 54
2178 139
2179 73
2180 42
2181 116
2182 121
2183 35
2184 5
2185 42
2186 24
2187 74
2188 102
2189 83
2190 7
2191 106
2192 4
2193 94
2194 82
2195 107
2196 41
2197 109
2198 98
2199 39
2200 65
2201 78
2202 65
2203 131
2204 140
2205 84
2206 67
2207 121
2208 120
2209 50
2210 109
2211 126
2212 80
2213 75
2214 0
2215 77
2216 30
2217 24
2218 35
2219 84
2220 81
2221 50
2222 16
2223 31
2224 88
2225 72
2226 54
2227 5
2228 87
2229 57
2230 77
2231 63
2232 39
2233 110
2234 76
2235 61
2236 27
2237 76
2238 94
2239 13
2240 95
2241 65
2242 143
2243 67
2244 93
2245 50
2246 42
2247 26
2248 76
2249 125
2250 78
2251 105
2252 43
2253 24
2254 126
2255 69
2256 30
2257 13
2258 22
2259 121
2260 84
2261 93
2262 82
2263 98
2264 78
2265 19
2266 119
2267 78
2268 30
2269 100
2270 14
2271 25
2272 97
2273 69
2274 73
2275 36
2276 78
2277 10
2278 39
2279 5
2280 14
2281 102
2282 122
2283 133
2284 81
2285 97
2286 93
2287 74
2288 69
2289 109
2290 49
2291 30
2292 82
2293 124
2294 53
2295 88
2296 21
2297 78
2298 82
2299 75
2300 39
2301 21
2302 17
2303 109
2304 17
2305 46
2306 21
2307 57
2308 97
2309 29
2310 37
2311 94
2312 19
2313 125
2314 93
2315 18
2316 36
2317 88
2318 49
2319 30
2320 54
2321 65
2322 94
2323 51
2324 122
2325 39
2326 81
2327 90
2328 37
2329 27
2330 39
2331 36
2332 122
2333 5
2334 6
2335 30
2336 17
2337 54
2338 88
2339 97
2340 76
2341 14
2342 39
2343 66
2344 121
2345 39
2346 97
2347 54
2348 27
2349 68
2350 39
2351 111
2352 106
2353 131
2354 97
2355 39
2356 50
2357 57
2358 17
2359 24
2360 17
2361 25
2362 61
2363 47
2364 44
2365 73
2366 94
2367 90
2368 30
2369 127
2370 14
2371 61
2372 44
2373 81
2374 24
2375 82
2376 61
2377 26
2378 50
2379 18
2380 36
2381 61
2382 134
2383 65
2384 52
2385 111
2386 82
2387 54
2388 89
2389 94
2390 42
2391 39
2392 52
2393 13
2394 65
2395 101
2396 58
2397 46
2398 122
2399 80
2400 17
2401 39
2402 108
2403 17
2404 19
2405 58
2406 93
2407 50
2408 75
2409 39
2410 12
2411 32
2412 27
2413 78
2414 110
2415 33
2416 4
2417 39
2418 21
2419 21
2420 76
2421 46
2422 32
2423 17
2424 18
2425 32
2426 137
2427 79
2428 66
2429 54
2430 39
2431 32
2432 122
2433 5
2434 135
2435 121
2436 128
2437 79
2438 28
2439 117
2440 126
2441 34
2442 79
2443 80
2444 47
2445 39
2446 94
2447 109
2448 36
2449 61
2450 21
2451 107
2452 21
2453 47
2454 18
2455 48
2456 122
2457 79
2458 48
2459 48
2460 14
2461 48
2462 37
2463 138
2464 67
2465 105
2466 17
2467 52
2468 17
2469 64
2470 52
2471 67
2472 76
2473 43
2474 98
2475 37
2476 82
2477 51
2478 27
2479 36
2480 64
2481 120
2482 36
2483 87
2484 134
2485 54
2486 67
2487 48
2488 62
2489 109
2490 44
2491 61
2492 73
2493 48
2494 39
2495 54
2496 17
2497 21
2498 16
2499 54
2500 98
2501 15
2502 65
2503 81
2504 77
2505 114
2506 82
2507 31
2508 82
2509 109
2510 93
2511 61
2512 106
2513 36
2514 52
2515 4
2516 65
2517 82
2518 48
2519 77
2520 114
2521 32
2522 48
2523 0
2524 46
2525 97
2526 81
2527 17
2528 81
2529 137
2530 61
2531 81
2532 74
2533 44
2534 67
2535 36
2536 39
2537 44
2538 47
2539 17
2540 101
2541 46
2542 51
2543 76
2544 61
2545 3
2546 6
2547 32
2548 46
2549 19
2550 61
2551 96
2552 47
2553 81
2554 107
2555 31
2556 82
2557 52
2558 124
2559 32
2560 82
2561 31
2562 47
2563 81
2564 14
2565 102
2566 36
2567 2
2568 70
2569 43
2570 39
2571 0
2572 69
2573 39
2574 4
2575 107
2576 79
2577 67
2578 114
2579 39
2580 84
2581 94
2582 76
2583 1
2584 2
2585 54
2586 27
2587 82
2588 2
2589 30
2590 48
2591 49
2592 136
2593 43
2594 98
2595 76
2596 2
2597 84
2598 71
2599 84
2600 125
2601 141
2602 52
2603 88
2604 72
2605 107
2606 88
2607 96
2608 112
2609 49
2610 48
2611 71
2612 28
2613 37
2614 61
2615 52
2616 13
2617 35
2618 112
2619 130
2620 29
2621 107
2622 52
2623 5
2624 36
2625 114
2626 9
2627 5
2628 3
2629 21
2630 15
2631 66
2632 34
2633 36
2634 118
2635 31
2636 48
2637 52
2638 134
2639 50
2640 67
2641 35
2642 31
2643 43
2644 39
2645 79
2646 51
2647 5
2648 66
2649 25
2650 132
2651 90
2652 66
2653 0
2654 37
2655 52
2656 37
2657 35
2658 28
2659 2
2660 114
2661 98
2662 48
2663 36
2664 4
2665 31
2666 36
2667 50
2668 89
2669 17
2670 16
2671 21
2672 94
2673 21
2674 67
2675 76
2676 5
2677 76
2678 16
2679 30
2680 15
2681 93
2682 111
2683 137
2684 54
2685 2
2686 3
2687 21
2688 86
2689 98
2690 65
2691 36
2692 54
2693 88
2694 2
2695 35
2696 80
2697 44
2698 65
2699 35
2700 98
2701 0
2702 84
2703 107
2704 98
2705 67
2706 49
2707 72
2708 61
2709 57
2710 54
2711 109
2712 100
2713 17
2714 90
2715 31
2716 2
2717 39
2718 35
2719 24
2720 17
2721 32
2722 44
2723 50
2724 86
2725 5
2726 54
2727 16
2728 79
2729 93
2730 52
2731 13
2732 52
2733 39
2734 17
2735 52
2736 52
2737 17
2738 71
2739 75
2740 35
2741 79
2742 48
2743 36
2744 121
2745 35
2746 110
2747 21
2748 21
2749 5
2750 79
2751 14
2752 28
2753 61
2754 39
2755 56
2756 16
2757 140
2758 92
2759 88
2760 21
2761 52
2762 79
2763 27
2764 15
2765 49
2766 21
2767 78
2768 122
2769 93
2770 44
2771 107
2772 39
2773 25
2774 134
2775 54
2776 107
2777 39
2778 21
2779 39
2780 122
2781 57
2782 94
2783 18
2784 100
2785 119
2786 98
2787 5
2788 24
2789 49
2790 14
2791 18
2792 126
2793 68
2794 35
2795 79
2796 78
2797 81
2798 103
2799 66
2800 69
2801 32
2802 98
2803 79
2804 52
2805 84
2806 39
2807 93
2808 54
2809 98
2810 84
2811 32
2812 98
2813 36
2814 52
2815 17
2816 81
2817 37
2818 39
2819 101
2820 35
2821 52
2822 61
2823 93
2824 2
2825 35
2826 111
2827 54
2828 111
2829 39
2830 52
2831 27
2832 17
2833 79
2834 36
2835 138
2836 82
2837 61
2838 116
2839 5
2840 5
2841 5
2842 30
2843 122
2844 128
2845 86
2846 48
2847 100
2848 79
2849 15
2850 50
2851 52
2852 35
2853 36
2854 52
2855 39
2856 17
2857 84
2858 12
2859 54
2860 75
2861 54
2862 39
2863 82
2864 48
2865 97
2866 79
2867 17
2868 51
2869 2
2870 72
2871 69
2872 13
2873 39
2874 14
2875 36
2876 71
2877 36
2878 78
2879 3
2880 61
2881 81
2882 5
2883 140
2884 17
2885 39
2886 60
2887 81
2888 81
2889 82
2890 48
2891 39
2892 28
2893 84
2894 82
2895 81
2896 17
2897 122
2898 58
2899 48
2900 30
2901 28
2902 2
2903 2
2904 98
2905 35
2906 61
2907 30
2908 48
2909 44
2910 30
2911 21
2912 79
2913 39
2914 78
2915 50
2916 2
2917 17
2918 92
2919 48
2920 98
2921 17
2922 15
2923 84
2924 52
2925 9
2926 32
2927 30
2928 80
2929 111
2930 54
2931 32
2932 30
2933 76
2934 30
2935 54
2936 36
2937 76
2938 47
2939 77
2940 94
2941 81
2942 36
2943 27
2944 48
2945 82
2946 28
2947 98
2948 35
2949 61
2950 61
2951 39
2952 42
2953 2
2954 35
2955 98
2956 2
2957 82
2958 30
2959 35
2960 98
2961 28
2962 138
2963 48
2964 21
2965 17
2966 50
2967 24
2968 18
2969 57
2970 21
2971 28
2972 15
2973 54
2974 81
2975 113
2976 44
2977 76
2978 2
2979 27
2980 91
2981 0
2982 81
2983 82
2984 48
2985 16
2986 30
2987 55
2988 48
2989 32
2990 30
2991 5
2992 52
2993 61
2994 30
2995 84
2996 86
2997 95
2998 82
2999 5
3000 114
3001 22
3002 2
3003 29
3004 0
3005 24
3006 21
3007 50
3008 28
3009 98
3010 76
3011 65
3012 52
3013 121
3014 48
3015 36
3016 98
3017 50
3018 76
3019 45
3020 24
3021 15
3022 5
3023 39
3024 15
3025 24
3026 99
3027 21
3028 21
3029 79
3030 61
3031 107
3032 39
3033 76
3034 82
3035 36
3036 52
3037 52
3038 32
3039 28
3040 28
3041 0
3042 28
3043 39
3044 81
3045 121
3046 24
3047 2
3048 18
3049 122
3050 130
3051 18
3052 24
3053 51
3054 48
3055 10
3056 15
3057 19
3058 15
3059 134
3060 2
3061 81
3062 79
3063 79
3064 126
3065 48
3066 3
3067 0
3068 67
3069 36
3070 67
3071 2
3072 105
3073 36
3074 70
3075 51
3076 44
3077 31
3078 64
3079 76
3080 39
3081 81
3082 15
3083 40
3084 36
3085 79
3086 2
3087 82
3088 15
3089 143
3090 28
3091 96
3092 43
3093 50
3094 54
3095 37
3096 32
3097 55
3098 81
3099 82
3100 57
3101 5
3102 104
3103 81
3104 36
3105 2
3106 61
3107 31
3108 81
3109 48
3110 36
3111 72
3112 28
3113 31
3114 24
3115 52
3116 38
3117 21
3118 98
3119 127
3120 47
3121 50
3122 122
3123 71
3124 5
3125 28
3126 87
3127 5
3128 35
3129 61
3130 76
3131 51
3132 122
3133 36
3134 98
3135 66
3136 36
3137 52
3138 2
3139 60
3140 90
3141 134
3142 89
3143 39
3144 5
3145 52
3146 60
3147 39
3148 0
3149 32
3150 75
3151 35
3152 51
3153 17
3154 2
3155 114
3156 2
3157 51
3158 97
3159 66
3160 78
3161 44
3162 21
3163 81
3164 35
3165 111
3166 28
3167 76
3168 24
3169 66
3170 0
3171 5
3172 2
3173 50
3174 51
3175 21
3176 4
3177 51
3178 24
3179 24
3180 32
3181 24
3182 21
3183 4
3184 36
3185 11
3186 78
3187 21
3188 31
3189 16
3190 28
3191 51
3192 110
3193 102
3194 66
3195 90
3196 106
3197 35
3198 81
3199 52
3200 21
3201 28
3202 141
3203 5
3204 83
3205 81
3206 51
3207 93
3208 80
3209 17
3210 35
3211 77
3212 36
3213 52
3214 98
3215 2
3216 21
3217 52
3218 36
3219 21
3220 30
3221 60
3222 84
3223 28
3224 78
3225 90
3226 48
3227 76
3228 41
3229 7
3230 65
3231 5
3232 28
3233 34
3234 95
3235 84
3236 47
3237 143
3238 98
3239 21
3240 34
3241 5
3242 127
3243 28
3244 95
3245 36
3246 99
3247 35
3248 2
3249 31
3250 84
3251 32
3252 32
3253 109
3254 108
3255 74
3256 75
3257 2
3258 16
3259 95
3260 8
3261 125
3262 94
3263 30
3264 32
3265 5
3266 81
3267 66
3268 118
3269 130
3270 13
3271 96
3272 16
3273 36
3274 97
3275 29
3276 64
3277 2
3278 77
3279 97
3280 84
3281 49
3282 39
3283 29
3284 5
3285 50
3286 101
3287 32
3288 0
3289 63
3290 42
3291 32
3292 81
3293 106
3294 84
3295 52
3296 65
3297 84
3298 18
3299 2
3300 49
3301 128
3302 75
3303 29
3304 52
3305 30
3306 17
3307 4
3308 35
3309 27
3310 36
3311 98
3312 5
3313 29
3314 39
3315 65
3316 39
3317 67
3318 36
3319 24
3320 17
3321 18
3322 76
3323 88
3324 35
3325 122
3326 32
3327 100
3328 94
3329 5
3330 36
3331 7
3332 2
3333 58
3334 25
3335 82
3336 29
3337 95
3338 114
3339 70
3340 21
3341 28
3342 16
3343 72
3344 11
3345 35
3346 7
3347 2
3348 27
3349 50
3350 5
3351 21
3352 84
3353 7
3354 88
3355 86
3356 5
3357 71
3358 2
3359 97
3360 6
3361 102
3362 32
3363 94
3364 35
3365 25
3366 59
3367 93
3368 17
3369 17
3370 68
3371 0
3372 81
3373 65
3374 16
3375 69
3376 5
3377 5
3378 94
3379 17
3380 14
3381 5
3382 0
3383 52
3384 54
3385 82
3386 28
3387 27
3388 35
3389 28
3390 76
3391 111
3392 84
3393 114
3394 73
3395 43
3396 111
3397 19
3398 67
3399 39
3400 4
3401 39
3402 6
3403 48
3404 112
3405 84
3406 103
3407 50
3408 32
3409 55
3410 2
3411 35
3412 115
3413 100
3414 117
3415 24
3416 54
3417 106
3418 37
3419 36
3420 17
3421 122
3422 118
3423 58
3424 56
3425 41
3426 80
3427 5
3428 4
3429 72
3430 58
3431 32
3432 117
3433 57
3434 61
3435 88
3436 124
3437 67
3438 66
3439 126
3440 61
3441 9
3442 35
3443 106
3444 39
3445 61
3446 77
3447 37
3448 35
3449 58
3450 61
3451 97
3452 58
3453 22
3454 69
3455 91
3456 79
3457 48
3458 21
3459 36
3460 55
3461 52
3462 2
3463 52
3464 79
3465 122
3466 97
3467 94
3468 50
3469 39
3470 74
3471 29
3472 80
3473 80
3474 11
3475 39
3476 90
3477 79
3478 115
3479 17
3480 72
3481 5
3482 48
3483 52
3484 27
3485 48
3486 48
3487 94
3488 54
3489 48
3490 98
3491 52
3492 102
3493 80
3494 52
3495 93
3496 18
3497 21
3498 51
3499 90
3500 61
3501 78
3502 122
3503 95
3504 98
3505 98
3506 15
3507 79
3508 52
3509 52
3510 77
3511 58
3512 51
3513 82
3514 2
3515 48
3516 35
3517 103
3518 36
3519 96
3520 82
3521 139
3522 5
3523 136
3524 84
3525 134
3526 17
3527 47
3528 21
3529 4
3530 79
3531 52
3532 54
3533 36
3534 21
3535 10
3536 129
3537 111
3538 35
3539 75
3540 100
3541 81
3542 51
3543 51
3544 22
3545 61
3546 23
3547 119
3548 77
3549 78
3550 94
3551 82
3552 52
3553 82
3554 32
3555 114
3556 82
3557 5
3558 10
3559 17
3560 79
3561 76
3562 76
3563 48
3564 106
3565 79
3566 48
3567 49
3568 21
3569 21
3570 36
3571 21
3572 97
3573 10
3574 2
3575 98
3576 82
3577 27
3578 28
3579 13
3580 117
3581 32
3582 27
3583 27
3584 5
3585 13
3586 67
3587 37
3588 125
3589 116
3590 39
3591 94
3592 35
3593 37
3594 36
3595 124
3596 21
3597 97
3598 122
3599 106
3600 106
3601 101
3602 12
3603 27
3604 52
3605 19
3606 64
3607 125
3608 66
3609 97
3610 37
3611 13
3612 100
3613 71
3614 125
3615 21
3616 76
3617 30
3618 0
3619 28
3620 90
3621 30
3622 88
3623 21
3624 97
3625 66
3626 21
3627 51
3628 22
3629 22
3630 52
3631 86
3632 39
3633 60
3634 133
3635 31
3636 39
3637 39
3638 37
3639 6
3640 126
3641 39
3642 47
3643 106
3644 39
3645 48
3646 82
3647 50
3648 90
3649 129
3650 5
3651 28
3652 19
3653 5
3654 72
3655 5
3656 61
3657 92
3658 5
3659 21
3660 111
3661 39
3662 5
3663 121
3664 35
3665 44
3666 122
3667 35
3668 51
3669 72
3670 114
3671 5
3672 2
3673 101
3674 125
3675 114
3676 60
3677 73
3678 140
3679 81
3680 52
3681 65
3682 73
3683 78
3684 17
3685 17
3686 2
3687 50
3688 43
3689 132
3690 78
3691 21
3692 98
3693 141
3694 51
3695 46
3696 35
3697 73
3698 37
3699 52
3700 30
3701 80
3702 102
3703 139
3704 5
3705 32
3706 77
3707 81
3708 132
3709 35
3710 25
3711 94
3712 76
3713 110
3714 35
3715 5
3716 2
3717 54
3718 98
3719 91
3720 5
3721 52
3722 52
3723 36
3724 65
3725 5
3726 77
3727 5
3728 98
3729 54
3730 35
3731 139
3732 15
3733 84
3734 52
3735 5
3736 32
3737 25
3738 101
3739 2
3740 21
3741 36
3742 50
3743 65
3744 121
3745 140
3746 121
3747 30
3748 35
3749 52
3750 98
3751 17
3752 52
3753 48
3754 17
3755 17
3756 30
3757 81
3758 15
3759 16
3760 139
3761 66
3762 21
3763 21
3764 44
3765 94
3766 32
3767 35
3768 72
3769 114
3770 128
3771 69
3772 96
3773 98
3774 21
3775 79
3776 29
3777 2
3778 121
3779 5
3780 114
3781 39
3782 109
3783 36
3784 98
3785 52
3786 35
3787 35
3788 48
3789 143
3790 49
3791 86
3792 5
3793 54
3794 21
3795 5
3796 48
3797 59
3798 35
3799 98
3800 54
3801 25
3802 48
3803 84
3804 32
3805 17
3806 36
3807 28
3808 96
3809 93
3810 36
3811 27
3812 36
3813 84
3814 93
3815 52
3816 61
3817 35
3818 122
3819 48
3820 2
3821 35
3822 113
3823 75
3824 137
3825 7
3826 16
3827 84
3828 76
3829 108
3830 82
3831 61
3832 16
3833 124
3834 39
3835 39
3836 50
3837 36
3838 11
3839 2
3840 84
3841 36
3842 128
3843 39
3844 54
3845 79
3846 58
3847 39
3848 5
3849 24
3850 52
3851 39
3852 5
3853 52
3854 48
3855 17
3856 30
3857 88
3858 36
3859 122
3860 2
3861 81
3862 64
3863 39
3864 54
3865 22
3866 61
3867 98
3868 21
3869 78
3870 2
3871 48
3872 81
3873 82
3874 131
3875 51
3876 72
3877 21
3878 39
3879 82
3880 39
3881 98
3882 17
3883 129
3884 54
3885 39
3886 17
3887 2
3888 98
3889 65
3890 54
3891 54
3892 79
3893 113
3894 27
3895 30
3896 111
3897 69
3898 48
3899 94
3900 78
3901 30
3902 73
3903 50
3904 28
3905 97
3906 49
3907 2
3908 21
3909 3
3910 53
3911 54
3912 98
3913 93
3914 48
3915 18
3916 35
3917 111
3918 35
3919 36
3920 79
3921 98
3922 52
3923 5
3924 81
3925 61
3926 39
3927 16
3928 48
3929 122
3930 30
3931 30
3932 39
3933 21
3934 118
3935 59
3936 61
3937 54
3938 61
3939 2
3940 58
3941 52
3942 3
3943 21
3944 28
3945 35
3946 5
3947 42
3948 24
3949 81
3950 74
3951 79
3952 56
3953 54
3954 79
3955 79
3956 30
3957 30
3958 48
3959 29
3960 79
3961 36
3962 52
3963 58
3964 82
3965 57
3966 22
3967 10
3968 67
3969 52
3970 24
3971 60
3972 18
3973 98
3974 42
3975 39
3976 36
3977 36
3978 52
3979 79
3980 79
3981 5
3982 102
3983 32
3984 81
3985 76
3986 27
3987 30
3988 48
3989 81
3990 15
3991 24
3992 79
3993 109
3994 2
3995 82
3996 97
3997 50
3998 81
3999 84
4000 17
4001 80
4002 2
4003 36
4004 116
4005 35
4006 21
4007 35
4008 24
4009 54
4010 5
4011 22
4012 81
4013 67
4014 2
4015 24
4016 52
4017 32
4018 48
4019 39
4020 35
4021 32
4022 48
4023 30
4024 79
4025 54
4026 98
4027 75
4028 25
4029 63
4030 98
4031 61
4032 5
4033 82
4034 63
4035 35
4036 107
4037 54
4038 52
4039 35
4040 7
4041 10
4042 141
4043 98
4044 30
4045 5
4046 36
4047 21
4048 98
4049 52
4050 36
4051 61
4052 98
4053 5
4054 97
4055 110
4056 2
4057 10
4058 97
4059 2
4060 2
4061 118
4062 32
4063 17
4064 36
4065 21
4066 81
4067 5
4068 109
4069 31
4070 36
4071 90
4072 54
4073 82
4074 74
4075 52
4076 83
4077 79
4078 132
4079 74
4080 14
4081 17
4082 28
4083 32
4084 21
4085 32
4086 17
4087 32
4088 96
4089 13
4090 50
4091 82
4092 54
4093 79
4094 28
4095 34
4096 65
4097 83
4098 110
4099 28
4100 40
4101 14
4102 39
4103 51
4104 82
4105 54
4106 53
4107 47
4108 30
4109 19
4110 76
4111 30
4112 16
4113 109
4114 50
4115 35
4116 108
4117 81
4118 61
4119 30
4120 50
4121 39
4122 10
4123 76
4124 20
4125 43
4126 49
4127 39
4128 0
4129 13
4130 40
4131 15
4132 51
4133 103
4134 0
4135 88
4136 119
4137 25
4138 66
4139 90
4140 50
4141 37
4142 125
4143 96
4144 88
4145 12
4146 125
4147 60
4148 82
4149 97
4150 79
4151 71
4152 18
4153 15
4154 6
4155 90
4156 54
4157 34
4158 76
4159 15
4160 39
4161 30
4162 25
4163 140
4164 15
4165 0
4166 47
4167 0
4168 57
4169 119
4170 81
4171 140
4172 66
4173 63
4174 67
4175 61
4176 30
4177 86
4178 133
4179 66
4180 13
4181 107
4182 30
4183 130
4184 78
4185 118
4186 82
4187 55
4188 13
4189 72
4190 37
4191 39
4192 79
4193 35
4194 43
4195 50
4196 81
4197 79
4198 5
4199 74
4200 65
4201 88
4202 57
4203 51
4204 89
4205 52
4206 54
4207 48
4208 38
4209 80
4210 31
4211 104
4212 13
4213 48
4214 31
4215 109
4216 16
4217 51
4218 44
4219 50
4220 69
4221 22
4222 35
4223 116
4224 89
4225 51
4226 41
4227 39
4228 83
4229 16
4230 40
4231 48
4232 77
4233 19
4234 61
4235 111
4236 16
4237 30
4238 35
4239 5
4240 65
4241 84
4242 55
4243 16
4244 61
4245 22
4246 75
4247 39
4248 48
4249 65
4250 57
4251 90
4252 39
4253 47
4254 132
4255 51
4256 30
4257 85
4258 107
4259 39
4260 54
4261 98
4262 85
4263 30
4264 52
4265 50
4266 28
4267 73
4268 14
4269 73
4270 88
4271 121
4272 92
4273 39
4274 129
4275 97
4276 105
4277 97
4278 12
4279 24
4280 28
4281 109
4282 66
4283 100
4284 84
4285 5
4286 22
4287 66
4288 39
4289 89
4290 94
4291 84
4292 95
4293 84
4294 97
4295 75
4296 16
4297 90
4298 82
4299 22
4300 13
4301 98
4302 12
4303 57
4304 36
4305 50
4306 27
4307 1
4308 39
4309 118
4310 36
4311 18
4312 90
4313 39
4314 101
4315 105
4316 27
4317 66
4318 91
4319 77
4320 96
4321 78
4322 108
4323 38
4324 14
4325 77
4326 119
4327 78
4328 48
4329 27
4330 28
4331 88
4332 90
4333 104
4334 66
4335 4
4336 78
4337 82
4338 114
4339 54
4340 54
4341 100
4342 31
4343 130
4344 35
4345 2
4346 13
4347 78
4348 30
4349 128
4350 94
4351 17
4352 14
4353 93
4354 15
4355 71
4356 121
4357 84
4358 95
4359 41
4360 58
4361 30
4362 125
4363 103
4364 58
4365 63
4366 40
4367 36
4368 17
4369 28
4370 39
4371 17
4372 27
4373 24
4374 11
4375 58
4376 57
4377 12
4378 47
4379 16
4380 96
4381 17
4382 49
4383 104
4384 71
4385 126
4386 70
4387 16
4388 110
4389 64
4390 54
4391 24
4392 72
4393 85
4394 28
4395 36
4396 93
4397 107
4398 21
4399 19
4400 28
4401 35
4402 90
4403 100
4404 14
4405 65
4406 17
4407 66
4408 50
4409 67
4410 90
4411 104
4412 59
4413 84
4414 43
4415 21
4416 95
4417 94
4418 85
4419 61
4420 94
4421 31
4422 4
4423 52
4424 65
4425 26
4426 54
4427 86
4428 138
4429 94
4430 118
4431 138
4432 39
4433 39
4434 20
4435 61
4436 61
4437 122
4438 16
4439 47
4440 14
4441 17
4442 111
4443 21
4444 78
4445 52
4446 65
4447 115
4448 16
4449 52
4450 36
4451 16
4452 22
4453 36
4454 122
4455 79
4456 119
4457 111
4458 22
4459 94
4460 21
4461 76
4462 39
4463 6
4464 89
4465 113
4466 36
4467 80
4468 32
4469 51
4470 32
4471 36
4472 21
4473 36
4474 52
4475 50
4476 1
4477 79
4478 32
4479 54
4480 122
4481 32
4482 54
4483 21
4484 58
4485 79
4486 66
4487 65
4488 50
4489 36
4490 10
4491 135
4492 117
4493 139
4494 108
4495 6
4496 85
4497 80
4498 39
4499 93
4500 111
4501 54
4502 88
4503 55
4504 16
4505 17
4506 140
4507 73
4508 36
4509 18
4510 15
4511 79
4512 109
4513 71
4514 126
4515 39
4516 81
4517 133
4518 59
4519 39
4520 67
4521 21
4522 32
4523 36
4524 84
4525 98
4526 113
4527 17
4528 131
4529 51
4530 47
4531 82
4532 29
4533 47
4534 25
4535 26
4536 17
4537 82
4538 39
4539 36
4540 100
4541 36
4542 75
4543 52
4544 21
4545 54
4546 79
4547 81
4548 36
4549 137
4550 41
4551 115
4552 32
4553 96
4554 4
4555 81
4556 0
4557 51
4558 63
4559 36
4560 57
4561 79
4562 98
4563 52
4564 97
4565 81
4566 4
4567 27
4568 15
4569 67
4570 39
4571 129
4572 1
4573 17
4574 52
4575 45
4576 81
4577 17
4578 94
4579 8
4580 52
4581 14
4582 17
4583 32
4584 53
4585 54
4586 65
4587 109
4588 128
4589 124
4590 63
4591 112
4592 39
4593 61
4594 80
4595 82
4596 54
4597 19
4598 32
4599 13
4600 121
4601 36
4602 85
4603 83
4604 98
4605 19
4606 2
4607 39
4608 79
4609 18
4610 109
4611 2
4612 126
4613 122
4614 81
4615 2
4616 118
4617 51
4618 39
4619 39
4620 81
4621 18
4622 36
4623 20
4624 102
4625 66
4626 36
4627 18
4628 2
4629 36
4630 2
4631 123
4632 97
4633 6
4634 48
4635 64
4636 15
4637 74
4638 38
4639 2
4640 16
4641 31
4642 2
4643 98
4644 73
4645 13
4646 36
4647 54
4648 111
4649 91
4650 39
4651 36
4652 88
4653 39
4654 136
4655 16
4656 30
4657 88
4658 38
4659 18
4660 61
4661 67
4662 111
4663 25
4664 81
4665 79
4666 51
4667 15
4668 139
4669 30
4670 132
4671 31
4672 88
4673 97
4674 36
4675 35
4676 5
4677 95
4678 7
4679 57
4680 18
4681 134
4682 36
4683 35
4684 53
4685 54
4686 21
4687 40
4688 81
4689 36
4690 57
4691 21
4692 21
4693 17
4694 28
4695 67
4696 89
4697 17
4698 0
4699 103
4700 52
4701 39
4702 76
4703 15
4704 43
4705 28
4706 17
4707 30
4708 52
4709 5
4710 82
4711 5
4712 0
4713 98
4714 24
4715 52
4716 39
4717 65
4718 50
4719 98
4720 65
4721 39
4722 36
4723 79
4724 9
4725 88
4726 22
4727 31
4728 90
4729 32
4730 71
4731 15
4732 2
4733 106
4734 35
4735 65
4736 36
4737 39
4738 119
4739 0
4740 103
4741 43
4742 52
4743 139
4744 32
4745 88
4746 93
4747 54
4748 98
4749 47
4750 81
4751 36
4752 32
4753 107
4754 54
4755 36
4756 21
4757 5
4758 39
4759 21
4760 21
4761 52
4762 21
4763 98
4764 21
4765 61
4766 54
4767 5
4768 32
4769 130
4770 66
4771 117
4772 16
4773 35
4774 84
4775 98
4776 28
4777 48
4778 41
4779 48
4780 42
4781 50
4782 16
4783 69
4784 44
4785 61
4786 32
4787 66
4788 116
4789 98
4790 17
4791 78
4792 39
4793 88
4794 50
4795 98
4796 35
4797 54
4798 134
4799 114
4800 98
4801 48
4802 22
4803 2
4804 65
4805 39
4806 39
4807 94
4808 109
4809 54
4810 66
4811 2
4812 88
4813 77
4814 27
4815 18
4816 21
4817 36
4818 52
4819 18
4820 35
4821 18
4822 97
4823 39
4824 39
4825 48
4826 39
4827 52
4828 122
4829 2
4830 16
4831 95
4832 32
4833 84
4834 117
4835 39
4836 61
4837 32
4838 17
4839 36
4840 52
4841 17
4842 39
4843 27
4844 98
4845 122
4846 25
4847 79
4848 81
4849 39
4850 61
4851 5
4852 98
4853 21
4854 48
4855 41
4856 13
4857 79
4858 36
4859 45
4860 52
4861 28
4862 98
4863 75
4864 108
4865 2
4866 40
4867 81
4868 48
4869 84
4870 94
4871 39
4872 32
4873 106
4874 79
4875 36
4876 39
4877 21
4878 81
4879 115
4880 47
4881 31
4882 34
4883 27
4884 36
4885 32
4886 54
4887 81
4888 82
4889 48
4890 84
4891 61
4892 18
4893 27
4894 5
4895 81
4896 39
4897 36
4898 32
4899 52
4900 81
4901 5
4902 98
4903 2
4904 2
4905 69
4906 14
4907 2
4908 75
4909 39
4910 18
4911 94
4912 48
4913 122
4914 48
4915 35
4916 100
4917 35
4918 24
4919 91
4920 48
4921 36
4922 2
4923 32
4924 39
4925 21
4926 17
4927 21
4928 50
4929 21
4930 79
4931 111
4932 47
4933 111
4934 39
4935 18
4936 84
4937 49
4938 52
4939 17
4940 32
4941 110
4942 28
4943 36
4944 5
4945 98
4946 99
4947 79
4948 30
4949 81
4950 32
4951 81
4952 30
4953 81
4954 28
4955 99
4956 61
4957 43
4958 44
4959 42
4960 48
4961 98
4962 98
4963 50
4964 67
4965 5
4966 82
4967 17
4968 81
4969 79
4970 94
4971 48
4972 125
4973 89
4974 97
4975 36
4976 57
4977 2
4978 36
4979 139
4980 76
4981 88
4982 11
4983 50
4984 35
4985 36
4986 30
4987 98
4988 98
4989 82
4990 61
4991 30
4992 50
4993 52
4994 24
4995 36
4996 82
4997 21
4998 24
4999 2
5000 61
5001 39
5002 82
5003 24
5004 124
5005 79
5006 35
5007 54
5008 2
5009 28
5010 79
5011 119
5012 32
5013 27
5014 91
5015 143
5016 50
5017 48
5018 111
5019 76
5020 67
5021 44
5022 16
5023 36
5024 29
5025 97
5026 71
5027 30
5028 81
5029 5
5030 28
5031 0
5032 54
5033 81
5034 17
5035 5
5036 24
5037 61
5038 30
5039 52
5040 54
5041 54
5042 51
5043 36
5044 15
5045 24
5046 79
5047 110
5048 67
5049 54
5050 76
5051 32
5052 21
5053 64
5054 48
5055 44
5056 28
5057 98
5058 30
5059 45
5060 98
5061 98
5062 32
5063 32
5064 45
5065 48
5066 0
5067 76
5068 135
5069 35
5070 35
5071 54
5072 52
5073 17
5074 43
5075 52
5076 81
5077 30
5078 84
5079 52
5080 48
5081 122
5082 22
5083 24
5084 82
5085 52
5086 143
5087 35
5088 32
5089 5
5090 5
5091 81
5092 98
5093 52
5094 82
5095 50
5096 17
5097 2
5098 24
5099 35
5100 28
5101 54
5102 87
5103 14
5104 82
5105 39
5106 88
5107 35
5108 76
5109 47
5110 118
5111 36
5112 82
5113 96
5114 21
5115 81
5116 98
5117 51
5118 30
5119 32
5120 50
5121 28
5122 82
5123 61
5124 6
5125 49
5126 51
5127 27
5128 11
5129 54
5130 36
5131 51
5132 30
5133 82
5134 50
5135 66
5136 124
5137 36
5138 19
5139 51
5140 82
5141 20
5142 98
5143 24
5144 24
5145 103
5146 25
5147 28
5148 7
5149 72
5150 2
5151 43
5152 6
5153 6
5154 24
5155 102
5156 39
5157 82
5158 31
5159 51
5160 41
5161 7
5162 61
5163 24
5164 49
5165 6
5166 30
5167 106
5168 47
5169 5
5170 21
5171 61
5172 27
5173 2
5174 36
5175 129
5176 42
5177 106
5178 52
5179 49
5180 72
5181 5
5182 97
5183 39
5184 69
5185 48
5186 15
5187 79
5188 91
5189 57
5190 116
5191 48
5192 35
5193 35
5194 50
5195 35
5196 120
5197 30
5198 35
5199 2
5200 50
5201 0
5202 2
5203 82
5204 36
5205 2
5206 30
5207 30
5208 78
5209 78
5210 31
5211 100
5212 78
5213 2
5214 35
5215 44
5216 65
5217 21
5218 126
5219 76
5220 39
5221 135
5222 93
5223 80
5224 24
5225 35
5226 17
5227 72
5228 78
5229 35
5230 36
5231 77
5232 41
5233 81
5234 51
5235 93
5236 82
5237 78
5238 90
5239 21
5240 98
5241 40
5242 93
5243 21
5244 93
5245 121
5246 52
5247 30
5248 74
5249 77
5250 44
5251 39
5252 58
5253 66
5254 90
5255 123
5256 39
5257 35
5258 13
5259 21
5260 66
5261 15
5262 79
5263 5
5264 5
5265 142
5266 88
5267 45
5268 115
5269 52
5270 32
5271 32
5272 75
5273 35
5274 89
5275 1
5276 28
5277 16
5278 90
5279 17
5280 80
5281 90
5282 10
5283 88
5284 84
5285 88
5286 25
5287 78
5288 101
5289 28
5290 36
5291 76
5292 36
5293 0
5294 16
5295 74
5296 17
5297 16
5298 36
5299 35
5300 109
5301 107
5302 52
5303 57
5304 15
5305 100
5306 52
5307 17
5308 132
5309 74
5310 82
5311 36
5312 5
5313 109
5314 39
5315 36
5316 52
5317 14
5318 39
5319 17
5320 98
5321 32
5322 94
5323 5
5324 130
5325 13
5326 66
5327 38
5328 16
5329 132
5330 14
5331 87
5332 35
5333 14
5334 39
5335 21
5336 21
5337 28
5338 69
5339 97
5340 94
5341 113
5342 93
5343 21
5344 66
5345 52
5346 131
5347 17
5348 57
5349 30
5350 17
5351 5
5352 35
5353 2
5354 50
5355 94
5356 32
5357 18
5358 13
5359 2
5360 27
5361 52
5362 130
5363 118
5364 65
5365 36
5366 84
5367 102
5368 36
5369 14
5370 39
5371 2
5372 58
5373 36
5374 66
5375 111
5376 17
5377 63
5378 10
5379 121
5380 17
5381 21
5382 35
5383 103
5384 111
5385 78
5386 130
5387 111
5388 29
5389 52
5390 84
5391 92
5392 57
5393 36
5394 47
5395 112
5396 57
5397 97
5398 97
5399 36
5400 77
5401 36
5402 32
5403 18
5404 36
5405 39
5406 18
5407 91
5408 131
5409 32
5410 21
5411 131
5412 32
5413 32
5414 21
5415 17
5416 32
5417 37
5418 63
5419 6
5420 18
5421 2
5422 77
5423 32
5424 39
5425 2
5426 37
5427 122
5428 21
5429 91
5430 39
5431 27
5432 39
5433 16
5434 12
5435 44
5436 47
5437 90
5438 16
5439 86
5440 44
5441 39
5442 62
5443 61
5444 54
5445 17
5446 54
5447 32
5448 18
5449 5
5450 57
5451 17
5452 80
5453 100
5454 2
5455 113
5456 36
5457 89
5458 31
5459 73
5460 11
5461 99
5462 72
5463 16
5464 32
5465 42
5466 44
5467 91
5468 67
5469 50
5470 32
5471 50
5472 5
5473 2
5474 39
5475 36
5476 58
5477 47
5478 76
5479 72
5480 117
5481 36
5482 36
5483 54
5484 33
5485 32
5486 17
5487 32
5488 16
5489 36
5490 80
5491 35
5492 79
5493 55
5494 122
5495 21
5496 54
5497 58
5498 112
5499 82
5500 52
5501 39
5502 24
5503 82
5504 48
5505 90
5506 36
5507 5
5508 21
5509 79
5510 93
5511 79
5512 98
5513 36
5514 61
5515 47
5516 74
5517 47
5518 5
5519 79
5520 48
5521 52
5522 54
5523 109
5524 2
5525 39
5526 61
5527 23
5528 27
5529 39
5530 14
5531 88
5532 66
5533 48
5534 50
5535 79
5536 61
5537 98
5538 71
5539 5
5540 60
5541 124
5542 61
5543 58
5544 36
5545 48
5546 84
5547 21
5548 0
5549 5
5550 51
5551 54
5552 61
5553 21
5554 5
5555 94
5556 79
5557 17
5558 0
5559 2
5560 134
5561 5
5562 39
5563 35
5564 17
5565 17
5566 12
5567 39
5568 99
5569 75
5570 39
5571 32
5572 132
5573 54
5574 52
5575 61
5576 79
5577 35
5578 106
5579 11
5580 98
5581 35
5582 98
5583 82
5584 32
5585 86
5586 89
5587 32
5588 2
5589 48
5590 17
5591 54
5592 31
5593 0
5594 120
5595 2
5596 70
5597 79
5598 48
5599 1
5600 10
5601 65
5602 48
5603 98
5604 98
5605 91
5606 105
5607 97
5608 48
5609 137
5610 121
5611 32
5612 2
5613 76
5614 102
5615 17
5616 0
5617 79
5618 35
5619 79
5620 5
5621 54
5622 79
5623 36
5624 122
5625 104
5626 112
5627 49
5628 95
5629 17
5630 51
5631 97
5632 94
5633 13
5634 97
5635 76
5636 79
5637 122
5638 54
5639 82
5640 29
5641 114
5642 53
5643 117
5644 13
5645 39
5646 81
5647 13
5648 122
5649 51
5650 82
5651 72
5652 35
5653 36
5654 31
5655 27
5656 28
5657 0
5658 32
5659 58
5660 72
5661 65
5662 81
5663 54
5664 96
5665 52
5666 67
5667 52
5668 54
5669 98
5670 2
5671 107
5672 58
5673 112
5674 76
5675 39
5676 76
5677 52
5678 28
5679 90
5680 1
5681 107
5682 119
5683 92
5684 36
5685 82
5686 91
5687 35
5688 13
5689 130
5690 60
5691 66
5692 81
5693 41
5694 53
5695 140
5696 104
5697 81
5698 31
5699 52
5700 43
5701 61
5702 2
5703 28
5704 47
5705 32
5706 5
5707 35
5708 46
5709 70
5710 89
5711 32
5712 67
5713 5
5714 78
5715 112
5716 73
5717 31
5718 51
5719 2
5720 52
5721 117
5722 86
5723 32
5724 129
5725 35
5726 59
5727 30
5728 114
5729 37
5730 2
5731 55
5732 39
5733 36
5734 28
5735 32
5736 128
5737 31
5738 15
5739 13
5740 39
5741 57
5742 32
5743 84
5744 88
5745 139
5746 5
5747 44
5748 87
5749 32
5750 17
5751 32
5752 40
5753 7
5754 116
5755 8
5756 111
5757 136
5758 57
5759 2
5760 109
5761 110
5762 123
5763 54
5764 65
5765 93
5766 52
5767 30
5768 42
5769 130
5770 39
5771 61
5772 98
5773 65
5774 39
5775 36
5776 84
5777 98
5778 35
5779 61
5780 52
5781 30
5782 5
5783 78
5784 17
5785 2
5786 48
5787 35
5788 60
5789 39
5790 29
5791 90
5792 29
5793 51
5794 98
5795 93
5796 36
5797 98
5798 20
5799 39
5800 14
5801 2
5802 5
5803 5
5804 123
5805 35
5806 65
5807 2
5808 32
5809 25
5810 43
5811 41
5812 90
5813 41
5814 66
5815 100
5816 32
5817 84
5818 52
5819 5
5820 21
5821 21
5822 94
5823 17
5824 52
5825 79
5826 52
5827 52
5828 21
5829 63
5830 27
5831 17
5832 53
5833 32
5834 100
5835 54
5836 5
5837 79
5838 79
5839 84
5840 98
5841 61
5842 48
5843 36
5844 63
5845 48
5846 52
5847 57
5848 61
5849 17
5850 61
5851 35
5852 61
5853 79
5854 52
5855 0
5856 48
5857 54
5858 94
5859 28
5860 10
5861 48
5862 47
5863 18
5864 4
5865 17
5866 24
5867 39
5868 141
5869 21
5870 143
5871 97
5872 17
5873 36
5874 7
5875 14
5876 96
5877 52
5878 32
5879 17
5880 78
5881 14
5882 48
5883 78
5884 43
5885 32
5886 124
5887 79
5888 32
5889 114
5890 35
5891 98
5892 98
5893 125
5894 81
5895 2
5896 98
5897 2
5898 35
5899 98
5900 32
5901 39
5902 117
5903 17
5904 90
5905 2
5906 98
5907 104
5908 81
5909 35
5910 48
5911 30
5912 98
5913 106
5914 98
5915 127
5916 2
5917 61
5918 100
5919 65
5920 39
5921 17
5922 52
5923 61
5924 21
5925 52
5926 61
5927 18
5928 52
5929 94
5930 21
5931 98
5932 87
5933 5
5934 79
5935 122
5936 98
5937 71
5938 79
5939 5
5940 9
5941 2
5942 30
5943 79
5944 14
5945 32
5946 63
5947 39
5948 32
5949 69
5950 119
5951 48
5952 94
5953 75
5954 2
5955 61
5956 30
5957 100
5958 78
5959 79
5960 81
5961 61
5962 32
5963 109
5964 2
5965 42
5966 100
5967 52
5968 28
5969 3
5970 98
5971 44
5972 32
5973 54
5974 50
5975 79
5976 48
5977 50
5978 81
5979 48
5980 21
5981 2
5982 21
5983 14
5984 89
5985 32
5986 97
5987 97
5988 69
5989 17
5990 30
5991 84
5992 54
5993 17
5994 18
5995 50
5996 54
5997 63
5998 110
5999 130
6000 36
6001 106
6002 6
6003 2
6004 54
6005 44
6006 65
6007 2
6008 54
6009 50
6010 67
6011 79
6012 52
6013 76
6014 79
6015 79
6016 39
6017 44
6018 16
6019 48
6020 94
6021 22
6022 28
6023 81
6024 80
6025 81
6026 48
6027 24
6028 102
6029 98
6030 32
6031 39
6032 24
6033 84
6034 24
6035 52
6036 50
6037 36
6038 126
6039 54
6040 30
6041 52
6042 83
6043 47
6044 34
6045 78
6046 97
6047 67
6048 50
6049 44
6050 61
6051 76
6052 76
6053 93
6054 6
6055 5
6056 48
6057 36
6058 30
6059 28
6060 61
6061 15
6062 15
6063 54
6064 61
6065 36
6066 82
6067 95
6068 35
6069 18
6070 30
6071 36
6072 88
6073 48
6074 5
6075 2
6076 61
6077 107
6078 84
6079 81
6080 28
6081 82
6082 24
6083 27
6084 76
6085 15
6086 81
6087 22
6088 15
6089 138
6090 50
6091 98
6092 19
6093 32
6094 28
6095 35
6096 52
6097 24
6098 82
6099 50
6100 72
6101 12
6102 82
6103 61
6104 36
6105 54
6106 5
6107 67
6108 32
6109 98
6110 35
6111 61
6112 48
6113 30
6114 72
6115 48
6116 61
6117 74
6118 61
6119 31
6120 101
6121 76
6122 39
6123 19
6124 10
6125 98
6126 39
6127 96
6128 21
6129 82
6130 110
6131 55
6132 61
6133 0
6134 117
6135 2
6136 32
6137 54
6138 54
6139 2
6140 39
6141 55
6142 43
6143 94
6144 52
6145 47
6146 50
6147 69
6148 89
6149 49
6150 57
6151 98
6152 11
6153 16
6154 76
6155 64
6156 123
6157 78
6158 85
6159 51
6160 126
6161 0
6162 28
6163 75
6164 47
6165 2
6166 107
6167 130
6168 10
6169 15
6170 20
6171 94
6172 76
6173 39
6174 15
6175 20
6176 66
6177 65
6178 41
6179 43
6180 54
6181 33
6182 30
6183 33
6184 98
6185 47
6186 98
6187 1
6188 18
6189 0
6190 51
6191 39
6192 43
6193 48
6194 13
6195 48
6196 71
6197 39
6198 67
6199 68
6200 49
6201 90
6202 10
6203 60
6204 90
6205 39
6206 39
6207 54
6208 130
6209 37
6210 28
6211 82
6212 49
6213 26
6214 24
6215 13
6216 99
6217 51
6218 79
6219 76
6220 76
6221 18
6222 91
6223 58
6224 110
6225 24
6226 115
6227 2
6228 125
6229 7
6230 50
6231 107
6232 27
6233 39
6234 39
6235 76
6236 90
6237 55
6238 49
6239 76
6240 100
6241 108
6242 122
6243 120
6244 10
6245 46
6246 76
6247 117
6248 51
6249 76
6250 82
6251 10
6252 13
6253 106
6254 80
6255 39
6256 70
6257 24
6258 82
6259 77
6260 66
6261 39
6262 98
6263 28
6264 15
6265 43
6266 73
6267 39
6268 89
6269 98
6270 91
6271 33
6272 2
6273 39
6274 50
6275 25
6276 112
6277 13
6278 39
6279 0
6280 44
6281 57
6282 57
6283 81
6284 31
6285 15
6286 0
6287 84
6288 31
6289 42
6290 34
6291 66
6292 6
6293 89
6294 112
6295 39
6296 39
6297 20
6298 16
6299 30
6300 21
6301 80
6302 39
6303 136
6304 100
6305 77
6306 50
6307 6
6308 13
6309 121
6310 116
6311 89
6312 24
6313 100
6314 60
6315 29
6316 51
6317 143
6318 44
6319 115
6320 47
6321 24
6322 61
6323 13
6324 98
6325 126
6326 13
6327 114
6328 64
6329 91
6330 32
6331 32
6332 129
6333 125
6334 27
6335 111
6336 39
6337 76
6338 80
6339 29
6340 16
6341 39
6342 69
6343 97
6344 29
6345 16
6346 29
6347 18
6348 75
6349 39
6350 22
6351 50
6352 27
6353 29
6354 98
6355 65
6356 16
6357 0
6358 61
6359 131
6360 141
6361 36
6362 18
6363 113
6364 36
6365 22
6366 4
6367 27
6368 95
6369 95
6370 118
6371 73
6372 5
6373 32
6374 78
6375 94
6376 93
6377 101
6378 133
6379 24
6380 74
6381 76
6382 50
6383 36
6384 9
6385 14
6386 78
6387 49
6388 46
6389 17
6390 106
6391 30
6392 48
6393 28
6394 116
6395 18
6396 54
6397 66
6398 96
6399 6
6400 111
6401 66
6402 39
6403 28
6404 89
6405 79
6406 16
6407 58
6408 1
6409 58
6410 54
6411 19
6412 36
6413 106
6414 69
6415 54
6416 21
6417 130
6418 17
6419 54
6420 68
6421 17
6422 90
6423 48
6424 65
6425 122
6426 10
6427 18
6428 15
6429 77
6430 77
6431 81
6432 28
6433 69
6434 50
6435 17
6436 21
6437 107
6438 50
6439 139
6440 123
6441 129
6442 21
6443 87
6444 50
6445 84
6446 39
6447 82
6448 97
6449 132
6450 54
6451 27
6452 24
6453 54
6454 63
6455 7
6456 36
6457 120
6458 18
6459 98
6460 110
6461 17
6462 67
6463 47
6464 97
6465 81
6466 125
6467 33
6468 93
6469 13
6470 139
6471 57
6472 20
6473 114
6474 88
6475 114
6476 36
6477 56
6478 59
6479 42
6480 111
6481 45
6482 29
6483 46
6484 47
6485 19
6486 75
6487 103
6488 84
6489 38
6490 4
6491 44
6492 52
6493 5
6494 31
6495 84
6496 97
6497 62
6498 57
6499 72
6500 67
6501 138
6502 61
6503 52
6504 17
6505 21
6506 21
6507 55
6508 54
6509 54
6510 54
6511 79
6512 39
6513 94
6514 61
6515 84
6516 16
6517 44
6518 42
6519 36
6520 47
6521 3
6522 36
6523 17
6524 54
6525 1
6526 79
6527 122
6528 17
6529 39
6530 122
6531 84
6532 61
6533 86
6534 25
6535 43
6536 111
6537 54
6538 116
6539 89
6540 78
6541 126
6542 22
6543 57
6544 32
6545 65
6546 107
6547 89
6548 50
6549 98
6550 36
6551 73
6552 71
6553 142
6554 68
6555 32
6556 10
6557 17
6558 126
6559 109
6560 70
6561 15
6562 90
6563 127
6564 36
6565 48
6566 70
6567 3
6568 75
6569 82
6570 14
6571 81
6572 71
6573 25
6574 119
6575 65
6576 81
6577 58
6578 39
6579 100
6580 54
6581 39
6582 114
6583 44
6584 52
6585 78
6586 107
6587 107
6588 29
6589 32
6590 61
6591 138
6592 81
6593 16
6594 98
6595 78
6596 122
6597 39
6598 39
6599 16
6600 32
6601 36
6602 54
6603 81
6604 107
6605 23
6606 81
6607 53
6608 79
6609 39
6610 94
6611 11
6612 54
6613 18
6614 66
6615 48
6616 32
6617 98
6618 49
6619 12
6620 97
6621 118
6622 32
6623 50
6624 121
6625 84
6626 106
6627 101
6628 98
6629 44
6630 98
6631 10
6632 33
6633 79
6634 82
6635 36
6636 81
6637 52
6638 39
6639 124
6640 98
6641 106
6642 21
6643 48
6644 141
6645 6
6646 82
6647 34
6648 76
6649 79
6650 100
6651 116
6652 110
6653 32
6654 61
6655 99
6656 62
6657 123
6658 37
6659 23
6660 31
6661 28
6662 111
6663 121
6664 67
6665 36
6666 48
6667 45
6668 25
6669 24
6670 3
6671 48
6672 81
6673 2
6674 48
6675 55
6676 76
6677 115
6678 4
6679 76
6680 14
6681 36
6682 79
6683 7
6684 30
6685 51
6686 18
6687 91
6688 41
6689 48
6690 31
6691 90
6692 114
6693 92
6694 36
6695 66
6696 76
6697 18
6698 82
6699 1
6700 39
6701 81
6702 52
6703 6
6704 39
6705 48
6706 36
6707 47
6708 34
6709 10
6710 51
6711 12
6712 39
6713 79
6714 90
6715 125
6716 105
6717 84
6718 44
6719 39
6720 140
6721 32
6722 39
6723 43
6724 128
6725 12
6726 3
6727 54
6728 21
6729 67
6730 52
6731 132
6732 35
6733 24
6734 36
6735 2
6736 139
6737 138
6738 61
6739 58
6740 21
6741 78
6742 33
6743 57
6744 17
6745 17
6746 98
6747 31
6748 17
6749 57
6750 32
6751 78
6752 54
6753 32
6754 24
6755 65
6756 17
6757 2
6758 44
6759 36
6760 21
6761 14
6762 141
6763 47
6764 79
6765 81
6766 52
6767 39
6768 78
6769 32
6770 2
6771 126
6772 8
6773 28
6774 52
6775 28
6776 21
6777 86
6778 36
6779 93
6780 5
6781 141
6782 130
6783 67
6784 57
6785 51
6786 52
6787 65
6788 6
6789 78
6790 72
6791 36
6792 50
6793 21
6794 65
6795 32
6796 25
6797 32
6798 40
6799 52
6800 25
6801 17
6802 78
6803 36
6804 17
6805 12
6806 36
6807 96
6808 54
6809 54
6810 39
6811 52
6812 44
6813 36
6814 2
6815 107
6816 47
6817 69
6818 17
6819 5
6820 36
6821 82
6822 12
6823 48
6824 14
6825 32
6826 107
6827 98
6828 25
6829 79
6830 100
6831 93
6832 97
6833 62
6834 21
6835 59
6836 5
6837 36
6838 97
6839 97
6840 136
6841 81
6842 24
6843 18
6844 2
6845 84
6846 78
6847 75
6848 15
6849 48
6850 98
6851 17
6852 59
6853 78
6854 44
6855 50
6856 18
6857 95
6858 78
6859 36
6860 18
6861 24
6862 19
6863 36
6864 29
6865 21
6866 97
6867 30
6868 97
6869 36
6870 17
6871 39
6872 16
6873 35
6874 105
6875 28
6876 32
6877 35
6878 61
6879 99
6880 2
6881 79
6882 122
6883 15
6884 77
6885 67
6886 2
6887 32
6888 2
6889 36
6890 117
6891 44
6892 36
6893 79
6894 98
6895 81
6896 54
6897 27
6898 69
6899 2
6900 93
6901 96
6902 66
6903 58
6904 2
6905 81
6906 98
6907 32
6908 30
6909 21
6910 35
6911 105
6912 52
6913 17
6914 21
6915 98
6916 28
6917 84
6918 48
6919 52
6920 83
6921 88
6922 55
6923 94
6924 100
6925 32
6926 50
6927 40
6928 24
6929 121
6930 47
6931 108
6932 29
6933 48
6934 27
6935 78
6936 69
6937 17
6938 54
6939 93
6940 84
6941 79
6942 32
6943 78
6944 17
6945 17
6946 35
6947 35
6948 81
6949 6
6950 3
6951 79
6952 17
6953 0
6954 28
6955 96
6956 98
6957 39
6958 5
6959 17
6960 2
6961 107
6962 54
6963 94
6964 47
6965 5
6966 18
6967 37
6968 32
6969 79
6970 104
6971 35
6972 82
6973 54
6974 59
6975 98
6976 21
6977 50
6978 50
6979 49
6980 8
6981 52
6982 82
6983 32
6984 58
6985 4
6986 5
6987 28
6988 78
6989 17
6990 18
6991 32
6992 5
6993 82
6994 16
6995 50
6996 36
6997 21
6998 54
6999 140
7000 30
7001 70
7002 39
7003 24
7004 57
7005 28
7006 98
7007 122
7008 48
7009 39
7010 48
7011 98
7012 24
7013 97
7014 61
7015 36
7016 48
7017 18
7018 28
7019 61
7020 36
7021 65
7022 98
7023 48
7024 61
7025 52
7026 98
7027 76
7028 76
7029 17
7030 5
7031 24
7032 109
7033 54
7034 21
7035 61
7036 2
7037 21
7038 50
7039 38
7040 36
7041 44
7042 94
7043 89
7044 52
7045 50
7046 24
7047 82
7048 39
7049 52
7050 32
7051 24
7052 14
7053 106
7054 39
7055 81
7056 82
7057 81
7058 58
7059 35
7060 79
7061 54
7062 36
7063 30
7064 39
7065 39
7066 50
7067 5
7068 27
7069 109
7070 27
7071 28
7072 50
7073 17
7074 81
7075 53
7076 30
7077 104
7078 52
7079 98
7080 74
7081 54
7082 26
7083 0
7084 82
7085 82
7086 51
7087 81
7088 61
7089 50
7090 16
7091 17
7092 48
7093 54
7094 79
7095 65
7096 42
7097 39
7098 52
7099 98
7100 136
7101 97
7102 32
7103 48
7104 32
7105 15
7106 32
7107 30
7108 32
7109 30
7110 32
7111 58
7112 36
7113 35
7114 78
7115 17
7116 99
7117 32
7118 48
7119 35
7120 28
7121 29
7122 21
7123 54
7124 61
7125 36
7126 115
7127 122
7128 36
7129 27
7130 30
7131 50
7132 98
7133 2
7134 0
7135 115
7136 35
7137 35
7138 82
7139 94
7140 81
7141 96
7142 48
7143 35
7144 78
7145 5
7146 35
7147 82
7148 50
7149 82
7150 48
7151 50
7152 32
7153 36
7154 15
7155 50
7156 82
7157 73
7158 30
7159 35
7160 39
7161 21
7162 5
7163 32
7164 36
7165 88
7166 17
7167 44
7168 27
7169 82
7170 79
7171 39
7172 48
7173 35
7174 21
7175 105
7176 2
7177 58
7178 71
7179 83
7180 2
7181 94
7182 30
7183 77
7184 35
7185 24
7186 82
7187 83
7188 43
7189 6
7190 15
7191 5
7192 31
7193 30
7194 24
7195 31
7196 61
7197 84
7198 39
7199 130
7200 36
7201 104
7202 82
7203 0
7204 29
7205 81
7206 98
7207 61
7208 14
7209 107
7210 83
7211 6
7212 2
7213 2
7214 94
7215 39
7216 95
7217 82
7218 51
7219 13
7220 21
7221 39
7222 32
7223 54
7224 27
7225 66
7226 52
7227 90
7228 36
7229 35
7230 50
7231 82
7232 39
7233 8
7234 39
7235 12
7236 48
7237 2
7238 52
7239 5
7240 21
7241 82
7242 0
7243 43
7244 35
7245 2
7246 37
7247 98
7248 23
7249 79
7250 52
7251 35
7252 15
7253 39
7254 103
7255 35
7256 21
7257 5
7258 21
7259 101
7260 128
7261 50
7262 57
7263 35
7264 90
7265 137
7266 55
7267 65
7268 21
7269 99
7270 2
7271 51
7272 5
7273 0
7274 35
7275 82
7276 81
7277 51
7278 39
7279 50
7280 121
7281 132
7282 35
7283 122
7284 44
7285 52
7286 57
7287 17
7288 52
7289 16
7290 80
7291 21
7292 57
7293 72
7294 21
7295 56
7296 17
7297 2
7298 35
7299 31
7300 93
7301 79
7302 80
7303 7
7304 24
7305 44
7306 44
7307 2
7308 13
7309 94
7310 74
7311 17
7312 21
7313 78
7314 39
7315 2
7316 5
7317 66
7318 2
7319 17
7320 108
7321 61
7322 52
7323 13
7324 50
7325 69
7326 0
7327 21
7328 72
7329 32
7330 32
7331 67
7332 5
7333 77
7334 2
7335 24
7336 24
7337 5
7338 98
7339 76
7340 47
7341 2
7342 93
7343 55
7344 51
7345 35
7346 114
7347 21
7348 86
7349 93
7350 72
7351 20
7352 24
7353 51
7354 36
7355 100
7356 84
7357 52
7358 82
7359 35
7360 16
7361 17
7362 2
7363 32
7364 114
7365 36
7366 81
7367 2
7368 2
7369 135
7370 13
7371 39
7372 16
7373 39
7374 50
7375 84
7376 18
7377 2
7378 36
7379 18
7380 18
7381 106
7382 81
7383 16
7384 5
7385 90
7386 139
7387 5
7388 75
7389 94
7390 32
7391 21
7392 32
7393 96
7394 39
7395 69
7396 1
7397 30
7398 0
7399 109
7400 78
7401 27
7402 94
7403 17
7404 117
7405 5
7406 93
7407 35
7408 36
7409 137
7410 53
7411 32
7412 36
7413 45
7414 17
7415 100
7416 29
7417 69
7418 54
7419 79
7420 86
7421 32
7422 2
7423 30
7424 111
7425 18
7426 110
7427 17
7428 88
7429 107
7430 54
7431 52
7432 23
7433 52
7434 84
7435 54
7436 93
7437 56
7438 22
7439 5
7440 5
7441 39
7442 2
7443 14
7444 43
7445 76
7446 31
7447 111
7448 17
7449 5
7450 55
7451 75
7452 32
7453 35
7454 75
7455 36
7456 122
7457 98
7458 94
7459 86
7460 97
7461 58
7462 35
7463 2
7464 27
7465 5
7466 36
7467 106
7468 16
7469 52
7470 86
7471 9
7472 47
7473 12
7474 2
7475 2
7476 47
7477 17
7478 50
7479 24
7480 58
7481 39
7482 35
7483 50
7484 2
7485 45
7486 60
7487 122
7488 32
7489 111
7490 12
7491 5
7492 35
7493 32
7494 2
7495 7
7496 32
7497 47
7498 67
7499 36
7500 1
7501 39
7502 88
7503 52
7504 115
7505 65
7506 2
7507 32
7508 21
7509 122
7510 78
7511 89
7512 35
7513 117
7514 67
7515 69
7516 100
7517 21
7518 5
7519 87
7520 16
7521 68
7522 27
7523 2
7524 32
7525 21
7526 60
7527 75
7528 35
7529 16
7530 91
7531 87
7532 88
7533 54
7534 123
7535 79
7536 17
7537 84
7538 80
7539 5
7540 76
7541 36
7542 36
7543 61
7544 35
7545 17
7546 100
7547 36
7548 77
7549 35
7550 39
7551 61
7552 37
7553 21
7554 87
7555 43
7556 39
7557 17
7558 27
7559 67
7560 97
7561 35
7562 48
7563 79
7564 2
7565 80
7566 76
7567 17
7568 2
7569 7
7570 52
7571 126
7572 52
7573 49
7574 2
7575 47
7576 44
7577 109
7578 61
7579 17
7580 39
7581 95
7582 35
7583 98
7584 98
7585 121
7586 52
7587 32
7588 39
7589 77
7590 121
7591 52
7592 48
7593 52
7594 79
7595 32
7596 44
7597 52
7598 5
7599 124
7600 48
7601 105
7602 2
7603 12
7604 109
7605 75
7606 39
7607 74
7608 5
7609 21
7610 2
7611 79
7612 94
7613 22
7614 51
7615 35
7616 126
7617 89
7618 121
7619 67
7620 5
7621 74
7622 5
7623 5
7624 131
7625 98
7626 75
7627 2
7628 108
7629 27
7630 49
7631 35
7632 47
7633 27
7634 2
7635 98
7636 93
7637 21
7638 98
7639 61
7640 94
7641 81
7642 21
7643 35
7644 39
7645 128
7646 79
7647 48
7648 17
7649 29
7650 98
7651 52
7652 14
7653 48
7654 52
7655 21
7656 129
7657 36
7658 79
7659 79
7660 1
7661 117
7662 0
7663 98
7664 106
7665 104
7666 2
7667 109
7668 82
7669 82
7670 78
7671 137
7672 93
7673 69
7674 52
7675 130
7676 50
7677 61
7678 5
7679 118
7680 84
7681 17
7682 67
7683 58
7684 79
7685 2
7686 24
7687 13
7688 61
7689 14
7690 39
7691 5
7692 39
7693 15
7694 27
7695 2
7696 79
7697 2
7698 66
7699 49
7700 15
7701 31
7702 125
7703 114
7704 5
7705 76
7706 49
7707 126
7708 142
7709 2
7710 54
7711 66
7712 64
7713 76
7714 44
7715 30
7716 61
7717 22
7718 48
7719 109
7720 13
7721 36
7722 36
7723 52
7724 102
7725 48
7726 47
7727 21
7728 5
7729 2
7730 39
7731 17
7732 26
7733 28
7734 15
7735 45
7736 81
7737 52
7738 31
7739 7
7740 52
7741 79
7742 81
7743 0
7744 91
7745 15
7746 2
7747 21
7748 2
7749 67
7750 29
7751 97
7752 35
7753 8
7754 21
7755 36
7756 88
7757 36
7758 61
7759 30
7760 5
7761 90
7762 67
7763 13
7764 90
7765 32
7766 57
7767 35
7768 31
7769 36
7770 63
7771 91
7772 35
7773 58
7774 60
7775 37
7776 17
7777 102
7778 17
7779 106
7780 32
7781 61
7782 75
7783 52
7784 32
7785 111
7786 78
7787 98
7788 5
7789 42
7790 0
7791 64
7792 61
7793 17
7794 52
7795 35
7796 77
7797 98
7798 110
7799 31
7800 16
7801 54
7802 35
7803 5
7804 36
7805 65
7806 36
7807 5
7808 121
7809 19
7810 2
7811 54
7812 39
7813 21
7814 35
7815 139
7816 82
7817 82
7818 139
7819 98
7820 98
7821 17
7822 35
7823 109
7824 66
7825 5
7826 36
7827 77
7828 17
7829 51
7830 98
7831 36
7832 65
7833 51
7834 21
7835 2
7836 117
7837 39
7838 2
7839 112
7840 21
7841 39
7842 39
7843 54
7844 81
7845 21
7846 2
7847 91
7848 2
7849 48
7850 54
7851 13
7852 66
7853 139
7854 52
7855 97
7856 98
7857 58
7858 28
7859 77
7860 61
7861 94
7862 31
7863 14
7864 30
7865 98
7866 100
7867 21
7868 36
7869 66
7870 24
7871 36
7872 98
7873 61
7874 89
7875 93
7876 2
7877 72
7878 79
7879 95
7880 21
7881 79
7882 98
7883 84
7884 2
7885 52
7886 14
7887 52
7888 28
7889 35
7890 28
7891 35
7892 17
7893 106
7894 5
7895 48
7896 14
7897 75
7898 30
7899 61
7900 75
7901 79
7902 139
7903 54
7904 2
7905 15
7906 79
7907 27
7908 65
7909 65
7910 39
7911 79
7912 36
7913 83
7914 2
7915 39
7916 36
7917 81
7918 27
7919 36
7920 35
7921 76
7922 32
7923 35
7924 98
7925 2
7926 39
7927 13
7928 21
7929 36
7930 81
7931 48
7932 50
7933 2
7934 98
7935 39
7936 17
7937 69
7938 52
7939 32
7940 79
7941 81
7942 81
7943 35
7944 30
7945 48
7946 69
7947 64
7948 82
7949 96
7950 39
7951 69
7952 17
7953 97
7954 66
7955 27
7956 16
7957 58
7958 54
7959 17
7960 34
7961 111
7962 47
7963 71
7964 82
7965 96
7966 35
7967 18
7968 5
7969 32
7970 81
7971 7
7972 21
7973 17
7974 30
7975 17
7976 81
7977 71
7978 54
7979 66
7980 41
7981 32
7982 32
7983 2
7984 65
7985 52
7986 61
7987 82
7988 79
7989 2
7990 30
7991 54
7992 14
7993 52
7994 97
7995 138
7996 67
7997 58
7998 58
7999 6
8000 81
8001 2
8002 71
8003 61
8004 61
8005 24
8006 1
8007 39
8008 106
8009 48
8010 67
8011 2
8012 44
8013 52
8014 98
8015 18
8016 36
8017 100
8018 36
8019 21
8020 5
8021 1
8022 81
8023 90
8024 98
8025 61
8026 50
8027 21
8028 81
8029 21
8030 81
8031 17
8032 22
8033 52
8034 71
8035 69
8036 17
8037 52
8038 98
8039 78
8040 21
8041 54
8042 67
8043 48
8044 39
8045 39
8046 98
8047 30
8048 52
8049 52
8050 80
8051 90
8052 5
8053 21
8054 98
8055 79
8056 17
8057 21
8058 44
8059 2
8060 28
8061 61
8062 21
8063 55
8064 25
8065 36
8066 79
8067 39
8068 30
8069 48
8070 79
8071 48
8072 83
8073 5
8074 30
8075 32
8076 79
8077 76
8078 67
8079 123
8080 50
8081 82
8082 30
8083 35
8084 28
8085 50
8086 24
8087 48
8088 94
8089 2
8090 28
8091 35
8092 50
8093 17
8094 23
8095 65
8096 76
8097 17
8098 30
8099 78
8100 39
8101 21
8102 44
8103 82
8104 100
8105 82
8106 98
8107 82
8108 81
8109 30
8110 98
8111 82
8112 50
8113 61
8114 18
8115 2
8116 28
8117 28
8118 76
8119 5
8120 50
8121 39
8122 52
8123 27
8124 2
8125 52
8126 134
8127 2
8128 121
8129 39
8130 39
8131 54
8132 54
8133 18
8134 61
8135 61
8136 37
8137 2
8138 50
8139 54
8140 84
8141 82
8142 4
8143 28
8144 48
8145 48
8146 2
8147 35
8148 127
8149 54
8150 96
8151 54
8152 17
8153 35
8154 61
8155 2
8156 112
8157 79
8158 48
8159 100
8160 48
8161 95
8162 50
8163 35
8164 122
8165 76
8166 46
8167 96
8168 61
8169 2
8170 39
8171 36
8172 81
8173 115
8174 67
8175 50
8176 131
8177 43
8178 142
8179 61
8180 119
8181 2
8182 30
8183 4
8184 33
8185 69
8186 24
8187 18
8188 44
8189 31
8190 55
8191 98
8192 79
8193 3
8194 98
8195 24
8196 79
8197 52
8198 82
8199 10
8200 3
8201 28
8202 52
8203 106
8204 111
8205 66
8206 95
8207 50
8208 114
8209 43
8210 5
8211 43
8212 61
8213 71
8214 66
8215 92
8216 76
8217 30
8218 79
8219 71
8220 82
8221 44
8222 76
8223 39
8224 82
8225 81
8226 31
8227 69
8228 26
8229 27
8230 95
8231 50
8232 30
8233 59
8234 28
8235 59
8236 39
8237 54
8238 43
8239 114
8240 0
8241 15
8242 122
8243 64
8244 79
8245 79
8246 116
8247 48
8248 61
8249 17
8250 50
8251 13
8252 33
8253 127
8254 44
8255 37
8256 39
8257 50
8258 59
8259 27
8260 24
8261 59
8262 14
8263 41
8264 69
8265 7
8266 76
8267 39
8268 42
8269 88
8270 90
8271 26
8272 134
8273 88
8274 10
8275 78
8276 47
8277 114
8278 91
8279 35
8280 18
8281 81
8282 43
8283 76
8284 50
8285 30
8286 125
8287 90
8288 115
8289 80
8290 102
8291 49
8292 86
8293 29
8294 142
8295 58
8296 44
8297 21
8298 116
8299 52
8300 50
8301 76
8302 71
8303 102
8304 111
8305 71
8306 78
8307 128
8308 64
8309 24
8310 123
8311 98
8312 53
8313 24
8314 94
8315 63
8316 65
8317 79
8318 24
8319 40
8320 60
8321 122
8322 13
8323 61
8324 13
8325 74
8326 88
8327 39
8328 111
8329 56
8330 0
8331 3
8332 57
8333 15
8334 81
8335 82
8336 83
8337 101
8338 90
8339 139
8340 65
8341 76
8342 39
8343 65
8344 54
8345 39
8346 89
8347 1
8348 61
8349 5
8350 29
8351 139
8352 86
8353 106
8354 97
8355 104
8356 24
8357 126
8358 14
8359 0
8360 2
8361 142
8362 39
8363 84
8364 32
8365 78
8366 90
8367 71
8368 125
8369 90
8370 100
8371 78
8372 24
8373 27
8374 68
8375 57
8376 124
8377 25
8378 110
8379 61
8380 28
8381 94
8382 73
8383 60
8384 20
8385 24
8386 0
8387 39
8388 13
8389 57
8390 44
8391 66
8392 79
8393 93
8394 88
8395 118
8396 59
8397 121
8398 26
8399 115
8400 36
8401 95
8402 97
8403 90
8404 129
8405 65
8406 105
8407 73
8408 36
8409 122
8410 78
8411 36
8412 4
8413 16
8414 57
8415 41
8416 51
8417 36
8418 94
8419 67
8420 0
8421 39
8422 97
8423 25
8424 77
8425 12
8426 109
8427 30
8428 69
8429 66
8430 94
8431 69
8432 94
8433 95
8434 27
8435 100
8436 39
8437 18
8438 96
8439 45
8440 27
8441 97
8442 69
8443 17
8444 79
8445 74
8446 54
8447 94
8448 17
8449 28
8450 66
8451 37
8452 37
8453 92
8454 19
8455 82
8456 66
8457 10
8458 37
8459 65
8460 20
8461 18
8462 88
8463 8
8464 21
8465 17
8466 54
8467 21
8468 88
8469 49
8470 10
8471 100
8472 97
8473 36
8474 21
8475 90
8476 39
8477 39
8478 28
8479 113
8480 36
8481 123
8482 5
8483 90
8484 54
8485 39
8486 5
8487 36
8488 63
8489 50
8490 54
8491 24
8492 96
8493 16
8494 138
8495 139
8496 11
8497 68
8498 77
8499 39
8500 36
8501 20
8502 27
8503 123
8504 132
8505 31
8506 101
8507 88
8508 39
8509 134
8510 36
8511 133
8512 63
8513 97
8514 5
8515 61
8516 49
8517 97
8518 97
8519 126
8520 36
8521 94
8522 17
8523 59
8524 17
8525 99
8526 60
8527 52
8528 47
8529 61
8530 88
8531 131
8532 58
8533 37
8534 93
8535 85
8536 54
8537 125
8538 111
8539 54
8540 96
8541 61
8542 60
8543 81
8544 122
8545 43
8546 62
8547 65
8548 80
8549 79
8550 49
8551 36
8552 79
8553 141
8554 39
8555 2
8556 79
8557 84
8558 125
8559 47
8560 44
8561 36
8562 36
8563 39
8564 120
8565 61
8566 39
8567 61
8568 143
8569 32
8570 100
8571 84
8572 36
8573 14
8574 79
8575 6
8576 54
8577 36
8578 54
8579 125
8580 124
8581 14
8582 39
8583 111
8584 58
8585 54
8586 122
8587 58
8588 42
8589 29
8590 111
8591 71
8592 79
8593 71
8594 98
8595 139
8596 39
8597 104
8598 67
8599 52
8600 71
8601 48
8602 65
8603 29
8604 74
8605 18
8606 39
8607 104
8608 60
8609 15
8610 67
8611 61
8612 61
8613 18
8614 61
8615 95
8616 47
8617 82
8618 39
8619 75
8620 98
8621 54
8622 17
8623 42
8624 39
8625 1
8626 32
8627 131
8628 7
8629 45
8630 0
8631 125
8632 29
8633 47
8634 98
8635 100
8636 105
8637 61
8638 55
8639 48
8640 21
8641 131
8642 52
8643 63
8644 80
8645 47
8646 75
8647 6
8648 21
8649 78
8650 39
8651 110
8652 61
8653 77
8654 17
8655 51
8656 72
8657 139
8658 32
8659 82
8660 21
8661 60
8662 77
8663 53
8664 17
8665 44
8666 93
8667 54
8668 117
8669 17
8670 17
8671 54
8672 52
8673 76
8674 101
8675 23
8676 54
8677 110
8678 36
8679 15
8680 41
8681 39
8682 21
8683 32
8684 15
8685 81
8686 54
8687 79
8688 79
8689 10
8690 39
8691 97
8692 7
8693 19
8694 28
8695 61
8696 79
8697 54
8698 21
8699 44
8700 39
8701 32
8702 79
8703 52
8704 39
8705 27
8706 56
8707 122
8708 0
8709 39
8710 0
8711 44
8712 114
8713 112
8714 0
8715 47
8716 94
8717 81
8718 94
8719 44
8720 2
8721 130
8722 72
8723 2
8724 49
8725 70
8726 73
8727 2
8728 2
8729 36
8730 58
8731 122
8732 133
8733 48
8734 105
8735 76
8736 51
8737 96
8738 44
8739 67
8740 79
8741 76
8742 81
8743 98
8744 0
8745 116
8746 49
8747 26
8748 82
8749 121
8750 87
8751 90
8752 5
8753 82
8754 51
8755 76
8756 42
8757 36
8758 76
8759 29
8760 97
8761 90
8762 90
8763 39
8764 35
8765 37
8766 35
8767 2
8768 132
8769 71
8770 36
8771 35
8772 134
8773 81
8774 36
8775 19
8776 110
8777 106
8778 43
8779 126
8780 36
8781 68
8782 39
8783 76
8784 35
8785 126
8786 67
8787 21
8788 24
8789 24
8790 39
8791 78
8792 5
8793 0
8794 52
8795 13
8796 35
8797 21
8798 47
8799 98
8800 52
8801 32
8802 120
8803 88
8804 93
8805 17
8806 17
8807 89
8808 60
8809 93
8810 37
8811 21
8812 52
8813 11
8814 98
8815 90
8816 78
8817 17
8818 16
8819 54
8820 28
8821 61
8822 52
8823 80
8824 16
8825 16
8826 32
8827 52
8828 37
8829 121
8830 5
8831 65
8832 106
8833 72
8834 2
8835 35
8836 81
8837 32
8838 25
8839 67
8840 36
8841 52
8842 39
8843 54
8844 65
8845 39
8846 119
8847 36
8848 121
8849 52
8850 21
8851 60
8852 81
8853 36
8854 44
8855 118
8856 79
8857 21
8858 21
8859 88
8860 36
8861 25
8862 2
8863 21
8864 52
8865 17
8866 32
8867 5
8868 102
8869 41
8870 97
8871 11
8872 101
8873 37
8874 48
8875 25
8876 77
8877 32
8878 35
8879 62
8880 48
8881 79
8882 109
8883 89
8884 32
8885 67
8886 28
8887 16
8888 66
8889 77
8890 52
8891 21
8892 5
8893 61
8894 36
8895 32
8896 2
8897 25
8898 114
8899 120
8900 39
8901 32
8902 84
8903 68
8904 69
8905 94
8906 93
8907 98
8908 52
8909 36
8910 79
8911 122
8912 2
8913 103
8914 16
8915 35
8916 66
8917 79
8918 35
8919 113
8920 17
8921 76
8922 50
8923 2
8924 84
8925 5
8926 107
8927 100
8928 5
8929 98
8930 35
8931 39
8932 100
8933 54
8934 52
8935 35
8936 79
8937 31
8938 48
8939 17
8940 35
8941 79
8942 100
8943 122
8944 36
8945 98
8946 13
8947 122
8948 79
8949 65
8950 84
8951 39
8952 36
8953 97
8954 27
8955 32
8956 39
8957 93
8958 18
8959 17
8960 36
8961 61
8962 36
8963 18
8964 5
8965 35
8966 106
8967 109
8968 48
8969 32
8970 86
8971 17
8972 6
8973 64
8974 97
8975 10
8976 52
8977 39
8978 16
8979 47
8980 65
8981 21
8982 85
8983 6
8984 35
8985 81
8986 17
8987 84
8988 5
8989 122
8990 39
8991 54
8992 2
8993 69
8994 112
8995 35
8996 47
8997 16
8998 70
8999 31
9000 93
9001 65
9002 21
9003 17
9004 81
9005 14
9006 29
9007 75
9008 100
9009 24
9010 13
9011 82
9012 134
9013 78
9014 52
9015 39
9016 54
9017 7
9018 30
9019 82
9020 94
9021 5
9022 30
9023 35
9024 61
9025 118
9026 28
9027 32
9028 54
9029 50
9030 84
9031 98
9032 54
9033 64
9034 82
9035 61
9036 5
9037 31
9038 50
9039 39
9040 20
9041 2
9042 39
9043 117
9044 28
9045 44
9046 61
9047 21
9048 17
9049 36
9050 89
9051 17
9052 72
9053 81
9054 81
9055 98
9056 47
9057 30
9058 98
9059 35
9060 79
9061 29
9062 61
9063 28
9064 48
9065 47
9066 87
9067 16
9068 28
9069 32
9070 54
9071 18
9072 27
9073 67
9074 98
9075 61
9076 39
9077 142
9078 89
9079 48
9080 54
9081 109
9082 35
9083 121
9084 35
9085 36
9086 50
9087 28
9088 105
9089 79
9090 22
9091 84
9092 79
9093 137
9094 81
9095 21
9096 112
9097 39
9098 27
9099 5
9100 24
9101 5
9102 98
9103 98
9104 5
9105 81
9106 36
9107 94
9108 97
9109 77
9110 78
9111 15
9112 32
9113 42
9114 76
9115 44
9116 30
9117 16
9118 61
9119 27
9120 71
9121 17
9122 61
9123 5
9124 95
9125 17
9126 47
9127 36
9128 14
9129 54
9130 47
9131 139
9132 61
9133 32
9134 125
9135 48
9136 35
9137 24
9138 75
9139 24
9140 32
9141 32
9142 61
9143 32
9144 47
9145 21
9146 24
9147 122
9148 48
9149 21
9150 82
9151 52
9152 76
9153 5
9154 2
9155 67
9156 47
9157 27
9158 24
9159 32
9160 17
9161 35
9162 36
9163 21
9164 39
9165 30
9166 48
9167 35
9168 31
9169 21
9170 30
9171 82
9172 49
9173 35
9174 35
9175 35
9176 79
9177 52
9178 76
9179 48
9180 52
9181 98
9182 136
9183 114
9184 39
9185 17
9186 76
9187 96
9188 57
9189 19
9190 76
9191 67
9192 52
9193 5
9194 5
9195 50
9196 66
9197 79
9198 2
9199 76
9200 32
9201 27
9202 98
9203 39
9204 75
9205 21
9206 39
9207 39
9208 54
9209 28
9210 94
9211 81
9212 50
9213 98
9214 98
9215 43
9216 121
9217 49
9218 30
9219 24
9220 82
9221 2
9222 71
9223 48
9224 100
9225 2
9226 30
9227 10
9228 28
9229 17
9230 31
9231 36
9232 39
9233 114
9234 29
9235 54
9236 63
9237 39
9238 12
9239 37
9240 91
9241 36
9242 51
9243 5
9244 28
9245 35
9246 30
9247 25
9248 92
9249 24
9250 131
9251 36
9252 36
9253 36
9254 28
9255 52
9256 52
9257 39
9258 30
9259 72
9260 18
9261 12
9262 39
9263 122
9264 36
9265 66
9266 81
9267 50
9268 94
9269 71
9270 36
9271 36
9272 10
9273 18
9274 47
9275 97
9276 79
9277 66
9278 39
9279 21
9280 24
9281 27
9282 48
9283 48
9284 50
9285 47
9286 5
9287 24
9288 62
9289 75
9290 51
9291 36
9292 2
9293 21
9294 5
9295 28
9296 66
9297 57
9298 66
9299 17
9300 142
9301 82
9302 72
9303 2
9304 35
9305 38
9306 35
9307 5
9308 39
9309 2
9310 36
9311 21
9312 36
9313 52
9314 2
9315 22
9316 32
9317 31
9318 35
9319 51
9320 2
9321 122
9322 32
9323 18
9324 52
9325 111
9326 128
9327 17
9328 91
9329 2
9330 24
9331 31
9332 17
9333 22
9334 5
9335 44
9336 32
9337 76
9338 82
9339 79
9340 39
9341 139
9342 16
9343 2
9344 36
9345 21
9346 30
9347 79
9348 13
9349 21
9350 139
9351 139
9352 24
9353 15
9354 65
9355 22
9356 17
9357 139
9358 92
9359 101
9360 17
9361 75
9362 17
9363 80
9364 39
9365 93
9366 74
9367 44
9368 24
9369 35
9370 21
9371 39
9372 52
9373 41
9374 84
9375 105
9376 37
9377 30
9378 76
9379 24
9380 97
9381 30
9382 29
9383 100
9384 91
9385 69
9386 81
9387 0
9388 39
9389 5
9390 52
9391 93
9392 30
9393 14
9394 65
9395 76
9396 32
9397 13
9398 36
9399 32
9400 39
9401 30
9402 39
9403 52
9404 78
9405 52
9406 30
9407 77
9408 16
9409 5
9410 76
9411 91
9412 32
9413 130
9414 27
9415 39
9416 32
9417 99
9418 57
9419 5
9420 17
9421 60
9422 21
9423 36
9424 36
9425 100
9426 27
9427 29
9428 15
9429 111
9430 53
9431 64
9432 35
9433 67
9434 48
9435 69
9436 75
9437 19
9438 2
9439 82
9440 97
9441 77
9442 51
9443 93
9444 5
9445 106
9446 52
9447 36
9448 97
9449 5
9450 10
9451 28
9452 39
9453 59
9454 69
9455 39
9456 2
9457 13
9458 124
9459 52
9460 52
9461 66
9462 12
9463 52
9464 14
9465 39
9466 14
9467 39
9468 32
9469 32
9470 39
9471 104
9472 57
9473 32
9474 35
9475 19
9476 111
9477 2
9478 99
9479 31
9480 11
9481 138
9482 2
9483 65
9484 76
9485 54
9486 35
9487 39
9488 109
9489 52
9490 32
9491 122
9492 142
9493 14
9494 35
9495 30
9496 32
9497 54
9498 39
9499 5
9500 76
9501 5
9502 111
9503 52
9504 32
9505 112
9506 88
9507 5
9508 93
9509 141
9510 5
9511 78
9512 25
9513 27
9514 97
9515 19
9516 40
9517 59
9518 2
9519 87
9520 97
9521 63
9522 24
9523 84
9524 122
9525 52
9526 19
9527 31
9528 32
9529 100
9530 67
9531 2
9532 97
9533 13
9534 84
9535 2
9536 2
9537 92
9538 35
9539 88
9540 27
9541 17
9542 71
9543 78
9544 5
9545 5
9546 84
9547 5
9548 2
9549 91
9550 5
9551 21
9552 61
9553 40
9554 38
9555 35
9556 61
9557 1
9558 14
9559 5
9560 127
9561 54
9562 10
9563 90
9564 122
9565 117
9566 52
9567 91
9568 30
9569 32
9570 102
9571 69
9572 126
9573 5
9574 61
9575 94
9576 44
9577 32
9578 21
9579 79
9580 44
9581 5
9582 17
9583 97
9584 79
9585 16
9586 22
9587 111
9588 102
9589 35
9590 61
9591 16
9592 77
9593 2
9594 5
9595 71
9596 57
9597 17
9598 77
9599 122
9600 93
9601 36
9602 105
9603 11
9604 136
9605 52
9606 93
9607 35
9608 21
9609 139
9610 52
9611 52
9612 51
9613 84
9614 124
9615 29
9616 35
9617 139
9618 17
9619 44
9620 98
9621 135
9622 76
9623 21
9624 36
9625 39
9626 52
9627 98
9628 97
9629 2
9630 54
9631 126
9632 84
9633 15
9634 61
9635 52
9636 18
9637 39
9638 79
9639 3
9640 82
9641 48
9642 81
9643 79
9644 71
9645 21
9646 2
9647 52
9648 48
9649 1
9650 51
9651 80
9652 81
9653 67
9654 21
9655 21
9656 32
9657 27
9658 54
9659 44
9660 51
9661 32
9662 129
9663 12
9664 11
9665 5
9666 81
9667 32
9668 17
9669 32
9670 61
9671 52
9672 71
9673 36
9674 5
9675 61
9676 142
9677 17
9678 1
9679 93
9680 107
9681 98
9682 109
9683 47
9684 35
9685 143
9686 98
9687 126
9688 111
9689 48
9690 98
9691 36
9692 18
9693 45
9694 48
9695 80
9696 35
9697 39
9698 26
9699 61
9700 54
9701 35
9702 67
9703 25
9704 18
9705 61
9706 131
9707 81
9708 5
9709 10
9710 48
9711 81
9712 64
9713 49
9714 48
9715 65
9716 83
9717 32
9718 5
9719 61
9720 81
9721 61
9722 76
9723 21
9724 47
9725 98
9726 31
9727 116
9728 19
9729 14
9730 103
9731 7
9732 39
9733 39
9734 106
9735 106
9736 125
9737 7
9738 69
9739 36
9740 16
9741 126
9742 13
9743 1
9744 76
9745 94
9746 49
9747 114
9748 31
9749 79
9750 35
9751 2
9752 28
9753 95
9754 70
9755 64
9756 54
9757 76
9758 2
9759 122
9760 80
9761 5
9762 36
9763 59
9764 2
9765 89
9766 33
9767 88
9768 52
9769 36
9770 82
9771 72
9772 13
9773 52
9774 101
9775 52
9776 2
9777 18
9778 5
9779 2
9780 37
9781 124
9782 13
9783 52
9784 90
9785 37
9786 102
9787 78
9788 21
9789 36
9790 75
9791 96
9792 62
9793 110
9794 30
9795 32
9796 60
9797 72
9798 28
9799 32
9800 20
9801 58
9802 105
9803 64
9804 0
9805 13
9806 2
9807 102
9808 21
9809 39
9810 36
9811 58
9812 21
9813 56
9814 39
9815 32
9816 17
9817 36
9818 84
9819 39
9820 17
9821 45
9822 78
9823 80
9824 28
9825 10
9826 36
9827 36
9828 21
9829 2
9830 65
9831 38
9832 35
9833 50
9834 140
9835 19
9836 98
9837 44
9838 31
9839 39
9840 5
9841 72
9842 17
9843 71
9844 98
9845 10
9846 16
9847 36
9848 17
9849 35
9850 9
9851 2
9852 21
9853 98
9854 54
9855 16
9856 25
9857 52
9858 10
9859 52
9860 2
9861 18
9862 75
9863 109
9864 98
9865 109
9866 21
9867 54
9868 21
9869 61
9870 17
9871 65
9872 21
9873 99
9874 73
9875 2
9876 5
9877 78
9878 35
9879 65
9880 78
9881 32
9882 109
9883 55
9884 98
9885 29
9886 117
9887 35
9888 5
9889 36
9890 98
9891 93
9892 21
9893 78
9894 13
9895 48
9896 82
9897 39
9898 17
9899 12
9900 105
9901 112
9902 5
9903 5
9904 36
9905 131
9906 79
9907 79
9908 72
9909 48
9910 39
9911 48
9912 36
9913 16
9914 52
9915 90
9916 75
9917 5
9918 74
9919 35
9920 84
9921 15
9922 94
9923 48
9924 14
9925 95
9926 97
9927 17
9928 65
9929 39
9930 32
9931 61
9932 79
9933 98
9934 84
9935 64
9936 109
9937 5
9938 48
9939 79
9940 122
9941 24
9942 98
9943 138
9944 2
9945 97
9946 15
9947 88
9948 21
9949 78
9950 39
9951 46
9952 13
9953 25
9954 84
9955 17
9956 106
9957 48
9958 79
9959 78
9960 30
9961 35
9962 35
9963 54
9964 93
9965 32
9966 39
9967 61
9968 38
9969 79
9970 48
9971 61
9972 106
9973 107
9974 79
9975 98
9976 58
9977 98
9978 43
9979 48
9980 61
9981 3
9982 114
9983 2
9984 139
9985 98
9986 98
9987 43
9988 58
9989 94
9990 54
9991 94
9992 61
9993 103
9994 81
9995 98
9996 118
9997 21
9998 35
9999 54
