0 0
1 1
2 2
3 3
4 4
5 5
6 6
7 7
8 8
9 9
10 8
11 10
12 11
13 0
14 12
15 13
16 14
17 15
18 16
19 17
20 18
21 8
22 19
23 20
24 21
25 22
26 23
27 24
28 25
29 26
30 6
31 27
32 28
33 29
34 16
35 30
36 31
37 13
38 0
39 31
40 32
41 33
42 34
43 35
44 5
45 36
46 37
47 38
48 21
49 28
50 39
51 40
52 11
53 41
54 0
55 42
56 43
57 44
58 45
59 0
60 2
61 46
62 34
63 47
64 48
65 20
66 49
67 50
68 51
69 52
70 53
71 54
72 40
73 4
74 55
75 26
76 56
77 41
78 57
79 31
80 58
81 35
82 52
83 52
84 59
85 60
86 56
87 61
88 62
89 2
90 34
91 50
92 38
93 63
94 64
95 42
96 13
97 63
98 65
99 30
100 66
101 67
102 68
103 68
104 24
105 69
106 70
107 2
108 2
109 65
110 21
111 71
112 58
113 12
114 62
115 66
116 0
117 67
118 70
119 50
120 35
121 50
122 50
123 72
124 73
125 74
126 42
127 5
128 68
129 71
130 19
131 24
132 51
133 32
134 57
135 75
136 6
137 76
138 16
139 36
140 77
141 77
142 74
143 11
144 22
145 11
146 11
147 13
148 78
149 70
150 26
151 79
152 80
153 24
154 37
155 76
156 16
157 25
158 25
159 81
160 14
161 82
162 13
163 18
164 81
165 57
166 83
167 84
168 75
169 85
170 42
171 31
172 86
173 81
174 3
175 87
176 10
177 24
178 84
179 14
180 17
181 13
182 30
183 40
184 88
185 11
186 71
187 70
188 77
189 89
190 48
191 14
192 65
193 55
194 70
195 85
196 42
197 81
198 79
199 90
200 11
201 85
202 67
203 24
204 78
205 42
206 91
207 6
208 10
209 92
210 68
211 86
212 86
213 32
214 93
215 92
216 42
217 94
218 30
219 83
220 78
221 93
222 25
223 78
224 28
225 24
226 29
227 92
228 27
229 27
230 95
231 96
232 63
233 97
234 74
235 29
236 98
237 29
238 66
239 34
240 96
241 87
242 11
243 83
244 73
245 25
246 61
247 99
248 67
249 66
250 61
251 100
252 48
253 86
254 99
255 66
256 11
257 65
258 13
259 67
260 32
261 54
262 67
263 24
264 2
265 101
266 21
267 59
268 102
269 93
270 87
271 92
272 75
273 33
274 24
275 86
276 102
277 21
278 96
279 96
280 103
281 17
282 57
283 89
284 18
285 73
286 73
287 102
288 73
289 85
290 86
291 50
292 54
293 65
294 104
295 51
296 55
297 11
298 59
299 54
300 27
301 68
302 47
303 54
304 87
305 17
306 67
307 4
308 17
309 90
310 10
311 72
312 74
313 92
314 14
315 93
316 23
317 105
318 38
319 18
320 67
321 103
322 14
323 43
324 65
325 86
326 42
327 71
328 106
329 59
330 62
331 87
332 102
333 42
334 22
335 67
336 21
337 11
338 20
339 74
340 62
341 60
342 51
343 18
344 26
345 51
346 58
347 16
348 35
349 102
350 11
351 57
352 51
353 37
354 92
355 42
356 18
357 44
358 54
359 82
360 21
361 51
362 71
363 56
364 18
365 11
366 32
367 21
368 102
369 53
370 107
371 100
372 14
373 100
374 23
375 107
376 59
377 108
378 92
379 92
380 2
381 54
382 62
383 58
384 108
385 54
386 17
387 102
388 59
389 104
390 19
391 92
392 109
393 87
394 6
395 40
396 57
397 54
398 58
399 68
400 93
401 17
402 98
403 110
404 35
405 111
406 54
407 67
408 112
409 30
410 87
411 51
412 76
413 36
414 102
415 33
416 33
417 34
418 18
419 51
420 33
421 1
422 17
423 85
424 92
425 14
426 11
427 6
428 105
429 94
430 93
431 11
432 94
433 74
434 75
435 97
436 94
437 33
438 23
439 68
440 85
441 74
442 90
443 51
444 90
445 105
446 68
447 74
448 63
449 103
450 103
451 13
452 4
453 68
454 84
455 93
456 108
457 0
458 37
459 6
460 74
461 21
462 11
463 92
464 16
465 15
466 60
467 94
468 21
469 0
470 13
471 31
472 2
473 81
474 33
475 2
476 50
477 60
478 90
479 93
480 97
481 40
482 113
483 81
484 93
485 68
486 60
487 93
488 11
489 12
490 58
491 2
492 60
493 70
494 114
495 23
496 68
497 108
498 70
499 92
500 17
501 50
502 76
503 23
504 102
505 2
506 115
507 51
508 65
509 55
510 2
511 71
512 4
513 11
514 11
515 88
516 13
517 51
518 116
519 51
520 81
521 33
522 55
523 90
524 51
525 2
526 86
527 61
528 11
529 48
530 76
531 90
532 104
533 87
534 37
535 28
536 31
537 2
538 103
539 28
540 92
541 28
542 45
543 42
544 6
545 10
546 0
547 68
548 81
549 39
550 84
551 17
552 68
553 75
554 68
555 12
556 114
557 2
558 116
559 28
560 2
561 90
562 48
563 52
564 2
565 100
566 50
567 52
568 61
569 33
570 65
571 29
572 32
573 60
574 110
575 92
576 34
577 115
578 117
579 59
580 56
581 102
582 23
583 26
584 36
585 108
586 41
587 5
588 85
589 62
590 74
591 2
592 11
593 73
594 61
595 14
596 49
597 67
598 30
599 118
600 92
601 110
602 72
603 101
604 40
605 119
606 67
607 56
608 120
609 60
610 67
611 110
612 94
613 67
614 55
615 42
616 21
617 23
618 17
619 121
620 10
621 51
622 17
623 103
624 57
625 81
626 30
627 21
628 116
629 58
630 29
631 61
632 32
633 90
634 89
635 13
636 122
637 78
638 81
639 55
640 76
641 13
642 51
643 17
644 84
645 43
646 34
647 30
648 14
649 78
650 2
651 104
652 21
653 30
654 51
655 23
656 104
657 102
658 17
659 31
660 55
661 32
662 77
663 16
664 78
665 75
666 122
667 51
668 68
669 51
670 49
671 51
672 58
673 2
674 116
675 21
676 36
677 108
678 11
679 11
680 63
681 48
682 33
683 87
684 1
685 21
686 84
687 78
688 84
689 16
690 2
691 32
692 30
693 90
694 51
695 14
696 13
697 46
698 76
699 77
700 8
701 103
702 2
703 87
704 100
705 67
706 68
707 37
708 14
709 67
710 104
711 0
712 89
713 2
714 108
715 61
716 17
717 92
718 87
719 22
720 67
721 76
722 96
723 2
724 105
725 74
726 69
727 87
728 17
729 12
730 108
731 65
732 27
733 17
734 122
735 1
736 67
737 87
738 2
739 121
740 90
741 108
742 10
743 87
744 63
745 66
746 32
747 5
748 35
749 41
750 0
751 66
752 68
753 60
754 90
755 18
756 35
757 96
758 77
759 2
760 61
761 102
762 90
763 89
764 61
765 35
766 14
767 30
768 61
769 91
770 33
771 97
772 92
773 68
774 90
775 83
776 49
777 5
778 41
779 66
780 12
781 21
782 28
783 92
784 59
785 93
786 108
787 55
788 6
789 17
790 27
791 54
792 61
793 123
794 96
795 10
796 104
797 54
798 27
799 16
800 21
801 54
802 21
803 80
804 23
805 23
806 58
807 2
808 93
809 51
810 90
811 55
812 92
813 5
814 108
815 32
816 28
817 51
818 111
819 93
820 48
821 35
822 78
823 35
824 2
825 74
826 54
827 11
828 19
829 16
830 40
831 92
832 81
833 5
834 25
835 11
836 90
837 124
838 11
839 89
840 26
841 76
842 121
843 30
844 36
845 48
846 68
847 44
848 73
849 4
850 19
851 57
852 34
853 12
854 109
855 27
856 90
857 65
858 116
859 30
860 11
861 43
862 87
863 104
864 61
865 30
866 18
867 90
868 92
869 48
870 109
871 76
872 67
873 16
874 92
875 76
876 90
877 21
878 52
879 67
880 24
881 90
882 4
883 34
884 18
885 2
886 73
887 18
888 93
889 16
890 65
891 111
892 68
893 85
894 61
895 2
896 65
897 51
898 54
899 108
900 11
901 6
902 106
903 25
904 39
905 103
906 67
907 2
908 65
909 54
910 123
911 7
912 58
913 81
914 55
915 108
916 104
917 61
918 47
919 90
920 2
921 28
922 21
923 108
924 88
925 59
926 5
927 56
928 57
929 100
930 110
931 26
932 61
933 81
934 29
935 25
936 21
937 78
938 108
939 5
940 124
941 24
942 5
943 61
944 30
945 5
946 71
947 86
948 11
949 28
950 108
951 35
952 54
953 64
954 63
955 21
956 90
957 92
958 92
959 79
960 17
961 81
962 92
963 50
964 30
965 51
966 81
967 87
968 11
969 76
970 104
971 48
972 16
973 0
974 51
975 11
976 46
977 16
978 5
979 96
980 0
981 65
982 21
983 93
984 51
985 89
986 27
987 21
988 74
989 74
990 27
991 104
992 24
993 28
994 68
995 5
996 90
997 94
998 90
999 11
1000 5
1001 61
1002 29
1003 118
1004 16
1005 75
1006 77
1007 65
1008 11
1009 60
1010 17
1011 96
1012 18
1013 108
1014 6
1015 122
1016 24
1017 51
1018 52
1019 5
1020 74
1021 89
1022 54
1023 83
1024 55
1025 30
1026 99
1027 108
1028 78
1029 55
1030 60
1031 76
1032 65
1033 42
1034 55
1035 89
1036 68
1037 118
1038 24
1039 68
1040 92
1041 19
1042 2
1043 6
1044 0
1045 92
1046 24
1047 24
1048 13
1049 97
1050 2
1051 65
1052 96
1053 41
1054 68
1055 30
1056 59
1057 109
1058 19
1059 58
1060 20
1061 47
1062 116
1063 51
1064 13
1065 60
1066 37
1067 61
1068 11
1069 65
1070 92
1071 58
1072 31
1073 68
1074 18
1075 113
1076 28
1077 70
1078 124
1079 87
1080 11
1081 11
1082 114
1083 24
1084 113
1085 29
1086 105
1087 4
1088 43
1089 46
1090 3
1091 61
1092 23
1093 103
1094 14
1095 42
1096 54
1097 38
1098 21
1099 2
1100 37
1101 43
1102 48
1103 42
1104 81
1105 77
1106 92
1107 24
1108 67
1109 90
1110 26
1111 11
1112 19
1113 76
1114 0
1115 81
1116 48
1117 17
1118 92
1119 23
1120 67
1121 55
1122 92
1123 66
1124 42
1125 57
1126 17
1127 105
1128 65
1129 27
1130 23
1131 35
1132 92
1133 67
1134 32
1135 37
1136 24
1137 5
1138 11
1139 56
1140 81
1141 2
1142 21
1143 27
1144 31
1145 2
1146 61
1147 21
1148 2
1149 96
1150 28
1151 24
1152 6
1153 101
1154 78
1155 92
1156 88
1157 92
1158 81
1159 2
1160 2
1161 50
1162 98
1163 32
1164 2
1165 51
1166 11
1167 86
1168 51
1169 67
1170 28
1171 17
1172 97
1173 33
1174 55
1175 8
1176 14
1177 67
1178 68
1179 16
1180 104
1181 75
1182 62
1183 79
1184 81
1185 11
1186 23
1187 11
1188 16
1189 2
1190 47
1191 30
1192 68
1193 110
1194 16
1195 35
1196 21
1197 27
1198 42
1199 99
1200 17
1201 33
1202 87
1203 79
1204 62
1205 24
1206 86
1207 104
1208 110
1209 89
1210 21
1211 13
1212 86
1213 29
1214 30
1215 46
1216 2
1217 35
1218 89
1219 81
1220 95
1221 93
1222 5
1223 65
1224 4
1225 97
1226 42
1227 74
1228 93
1229 61
1230 87
1231 11
1232 60
1233 18
1234 18
1235 68
1236 17
1237 35
1238 83
1239 75
1240 44
1241 55
1242 4
1243 5
1244 21
1245 18
1246 23
1247 87
1248 29
1249 81
1250 61
1251 92
1252 63
1253 73
1254 10
1255 23
1256 60
1257 78
1258 97
1259 11
1260 93
1261 50
1262 31
1263 78
1264 11
1265 63
1266 5
1267 93
1268 38
1269 28
1270 78
1271 46
1272 5
1273 28
1274 86
1275 67
1276 17
1277 5
1278 5
1279 18
1280 18
1281 69
1282 92
1283 39
1284 61
1285 17
1286 19
1287 48
1288 8
1289 93
1290 18
1291 28
1292 77
1293 38
1294 19
1295 109
1296 104
1297 21
1298 86
1299 102
1300 89
1301 93
1302 61
1303 11
1304 95
1305 90
1306 100
1307 108
1308 11
1309 24
1310 59
1311 2
1312 61
1313 32
1314 34
1315 92
1316 125
1317 34
1318 21
1319 102
1320 73
1321 67
1322 112
1323 29
1324 108
1325 123
1326 17
1327 108
1328 87
1329 92
1330 23
1331 78
1332 27
1333 71
1334 89
1335 21
1336 61
1337 74
1338 5
1339 108
1340 108
1341 83
1342 93
1343 1
1344 108
1345 4
1346 102
1347 123
1348 32
1349 12
1350 78
1351 17
1352 76
1353 2
1354 61
1355 78
1356 65
1357 77
1358 108
1359 11
1360 27
1361 92
1362 27
1363 94
1364 57
1365 76
1366 81
1367 59
1368 92
1369 21
1370 50
1371 78
1372 108
1373 61
1374 16
1375 21
1376 0
1377 36
1378 86
1379 76
1380 108
1381 74
1382 16
1383 21
1384 5
1385 58
1386 51
1387 77
1388 61
1389 102
1390 17
1391 126
1392 60
1393 110
1394 2
1395 27
1396 0
1397 25
1398 56
1399 2
1400 74
1401 54
1402 9
1403 84
1404 55
1405 86
1406 31
1407 61
1408 104
1409 0
1410 96
1411 17
1412 11
1413 88
1414 40
1415 86
1416 51
1417 42
1418 110
1419 25
1420 96
1421 65
1422 27
1423 93
1424 31
1425 18
1426 117
1427 35
1428 26
1429 27
1430 90
1431 90
1432 11
1433 31
1434 102
1435 21
1436 33
1437 94
1438 42
1439 89
1440 0
1441 88
1442 61
1443 29
1444 51
1445 23
1446 21
1447 70
1448 10
1449 5
1450 87
1451 17
1452 76
1453 35
1454 2
1455 102
1456 102
1457 23
1458 53
1459 27
1460 33
1461 65
1462 93
1463 92
1464 54
1465 67
1466 18
1467 88
1468 74
1469 8
1470 21
1471 11
1472 87
1473 33
1474 92
1475 56
1476 33
1477 35
1478 14
1479 5
1480 76
1481 71
1482 78
1483 126
1484 75
1485 35
1486 61
1487 81
1488 11
1489 118
1490 108
1491 21
1492 61
1493 11
1494 14
1495 85
1496 116
1497 90
1498 60
1499 8
1500 55
1501 94
1502 117
1503 102
1504 87
1505 48
1506 7
1507 97
1508 108
1509 2
1510 121
1511 21
1512 76
1513 104
1514 64
1515 35
1516 35
1517 111
1518 90
1519 92
1520 108
1521 23
1522 18
1523 70
1524 76
1525 108
1526 67
1527 97
1528 11
1529 68
1530 17
1531 55
1532 81
1533 86
1534 122
1535 52
1536 34
1537 80
1538 5
1539 18
1540 27
1541 81
1542 28
1543 29
1544 114
1545 81
1546 61
1547 86
1548 92
1549 12
1550 75
1551 42
1552 106
1553 11
1554 58
1555 108
1556 2
1557 94
1558 42
1559 41
1560 2
1561 43
1562 58
1563 43
1564 92
1565 68
1566 84
1567 49
1568 94
1569 0
1570 54
1571 68
1572 108
1573 114
1574 17
1575 83
1576 2
1577 48
1578 2
1579 31
1580 37
1581 92
1582 28
1583 35
1584 28
1585 55
1586 63
1587 5
1588 11
1589 48
1590 61
1591 0
1592 11
1593 35
1594 6
1595 89
1596 81
1597 51
1598 2
1599 55
1600 58
1601 62
1602 61
1603 55
1604 90
1605 23
1606 10
1607 11
1608 18
1609 60
1610 87
1611 92
1612 11
1613 17
1614 91
1615 78
1616 47
1617 5
1618 17
1619 120
1620 31
1621 55
1622 81
1623 11
1624 65
1625 102
1626 81
1627 61
1628 55
1629 5
1630 11
1631 19
1632 66
1633 54
1634 84
1635 60
1636 23
1637 127
1638 10
1639 0
1640 70
1641 57
1642 35
1643 92
1644 18
1645 106
1646 115
1647 11
1648 92
1649 81
1650 43
1651 79
1652 39
1653 5
1654 113
1655 97
1656 61
1657 35
1658 47
1659 31
1660 21
1661 37
1662 119
1663 21
1664 54
1665 5
1666 76
1667 37
1668 89
1669 23
1670 9
1671 62
1672 58
1673 49
1674 78
1675 20
1676 34
1677 51
1678 104
1679 16
1680 20
1681 2
1682 61
1683 35
1684 68
1685 104
1686 11
1687 50
1688 101
1689 23
1690 87
1691 77
1692 49
1693 2
1694 104
1695 31
1696 11
1697 52
1698 17
1699 35
1700 2
1701 52
1702 42
1703 30
1704 68
1705 92
1706 61
1707 68
1708 33
1709 61
1710 92
1711 11
1712 104
1713 51
1714 104
1715 21
1716 50
1717 65
1718 78
1719 12
1720 97
1721 0
1722 17
1723 0
1724 90
1725 2
1726 23
1727 90
1728 21
1729 5
1730 11
1731 38
1732 11
1733 6
1734 65
1735 10
1736 92
1737 104
1738 97
1739 67
1740 35
1741 65
1742 42
1743 81
1744 86
1745 58
1746 67
1747 68
1748 90
1749 68
1750 11
1751 92
1752 83
1753 18
1754 23
1755 1
1756 20
1757 68
1758 93
1759 11
1760 23
1761 61
1762 17
1763 21
1764 104
1765 104
1766 70
1767 66
1768 48
1769 11
1770 97
1771 125
1772 104
1773 28
1774 86
1775 61
1776 16
1777 108
1778 2
1779 92
1780 99
1781 52
1782 18
1783 61
1784 35
1785 39
1786 71
1787 43
1788 108
1789 68
1790 35
1791 65
1792 5
1793 76
1794 54
1795 16
1796 21
1797 78
1798 92
1799 92
1800 30
1801 104
1802 18
1803 108
1804 19
1805 35
1806 94
1807 48
1808 11
1809 75
1810 11
1811 67
1812 2
1813 123
1814 28
1815 14
1816 90
1817 1
1818 12
1819 92
1820 61
1821 93
1822 108
1823 35
1824 68
1825 11
1826 35
1827 34
1828 104
1829 11
1830 18
1831 128
1832 30
1833 78
1834 48
1835 76
1836 90
1837 78
1838 23
1839 35
1840 99
1841 80
1842 27
1843 96
1844 120
1845 30
1846 48
1847 27
1848 2
1849 18
1850 74
1851 92
1852 11
1853 11
1854 61
1855 48
1856 23
1857 34
1858 8
1859 17
1860 7
1861 93
1862 57
1863 23
1864 2
1865 51
1866 114
1867 14
1868 21
1869 2
1870 102
1871 30
1872 16
1873 26
1874 55
1875 90
1876 2
1877 90
1878 55
1879 83
1880 35
1881 17
1882 51
1883 35
1884 15
1885 90
1886 21
1887 11
1888 68
1889 28
1890 102
1891 89
1892 3
1893 21
1894 48
1895 35
1896 49
1897 108
1898 11
1899 63
1900 23
1901 54
1902 54
1903 16
1904 11
1905 35
1906 28
1907 90
1908 16
1909 20
1910 51
1911 32
1912 76
1913 71
1914 36
1915 26
1916 108
1917 125
1918 23
1919 61
1920 92
1921 6
1922 92
1923 30
1924 11
1925 87
1926 67
1927 31
1928 81
1929 107
1930 5
1931 54
1932 87
1933 11
1934 35
1935 30
1936 92
1937 61
1938 108
1939 24
1940 74
1941 23
1942 54
1943 108
1944 76
1945 108
1946 23
1947 23
1948 90
1949 51
1950 102
1951 37
1952 48
1953 29
1954 48
1955 102
1956 108
1957 90
1958 108
1959 17
1960 75
1961 55
1962 65
1963 81
1964 108
1965 21
1966 56
1967 23
1968 65
1969 11
1970 76
1971 92
1972 102
1973 95
1974 35
1975 76
1976 23
1977 124
1978 51
1979 34
1980 108
1981 74
1982 59
1983 76
1984 30
1985 21
1986 48
1987 13
1988 69
1989 21
1990 92
1991 104
1992 92
1993 81
1994 55
1995 97
1996 54
1997 92
1998 28
1999 111
2000 81
2001 13
2002 30
2003 81
2004 11
2005 102
2006 44
2007 60
2008 90
2009 29
2010 79
2011 23
2012 118
2013 65
2014 5
2015 116
2016 11
2017 68
2018 60
2019 51
2020 28
2021 2
2022 13
2023 35
2024 96
2025 5
2026 76
2027 68
2028 51
2029 96
2030 63
2031 11
2032 28
2033 17
2034 55
2035 108
2036 31
2037 2
2038 81
2039 48
2040 55
2041 0
2042 108
2043 17
2044 2
2045 2
2046 52
2047 16
2048 84
2049 11
2050 61
2051 76
2052 0
2053 28
2054 48
2055 90
2056 73
2057 78
2058 87
2059 129
2060 48
2061 43
2062 118
2063 18
2064 84
2065 23
2066 108
2067 89
2068 47
2069 104
2070 55
2071 81
2072 59
2073 71
2074 24
2075 43
2076 41
2077 76
2078 24
2079 100
2080 102
2081 63
2082 13
2083 81
2084 24
2085 18
2086 90
2087 59
2088 81
2089 17
2090 64
2091 42
2092 73
2093 100
2094 48
2095 48
2096 35
2097 74
2098 5
2099 66
2100 84
2101 11
2102 73
2103 29
2104 20
2105 68
2106 77
2107 130
2108 48
2109 68
2110 3
2111 28
2112 30
2113 62
2114 44
2115 57
2116 65
2117 13
2118 13
2119 65
2120 78
2121 26
2122 65
2123 30
2124 103
2125 1
2126 69
2127 35
2128 97
2129 17
2130 65
2131 94
2132 51
2133 111
2134 42
2135 1
2136 36
2137 103
2138 124
2139 125
2140 36
2141 28
2142 30
2143 24
2144 51
2145 40
2146 106
2147 13
2148 107
2149 48
2150 31
2151 34
2152 57
2153 78
2154 67
2155 57
2156 11
2157 109
2158 84
2159 68
2160 37
2161 65
2162 46
2163 93
2164 10
2165 79
2166 36
2167 68
2168 108
2169 0
2170 55
2171 108
2172 37
2173 103
2174 24
2175 42
2176 77
2177 67
2178 11
2179 66
2180 41
2181 77
2182 11
2183 50
2184 36
2185 67
2186 101
2187 125
2188 2
2189 65
2190 108
2191 30
2192 49
2193 48
2194 104
2195 48
2196 84
2197 88
2198 14
2199 89
2200 67
2201 88
2202 16
2203 2
2204 67
2205 20
2206 2
2207 6
2208 89
2209 67
2210 67
2211 128
2212 104
2213 84
2214 3
2215 50
2216 103
2217 113
2218 2
2219 5
2220 70
2221 43
2222 66
2223 2
2224 16
2225 6
2226 77
2227 20
2228 90
2229 61
2230 60
2231 10
2232 81
2233 11
2234 116
2235 89
2236 61
2237 71
2238 106
2239 65
2240 32
2241 105
2242 32
2243 78
2244 46
2245 86
2246 121
2247 60
2248 117
2249 80
2250 16
2251 16
2252 110
2253 59
2254 115
2255 124
2256 44
2257 83
2258 86
2259 104
2260 93
2261 78
2262 92
2263 80
2264 11
2265 18
2266 41
2267 89
2268 116
2269 12
2270 9
2271 62
2272 78
2273 8
2274 14
2275 87
2276 108
2277 48
2278 51
2279 65
2280 91
2281 25
2282 27
2283 85
2284 29
2285 107
2286 92
2287 99
2288 116
2289 103
2290 104
2291 96
2292 2
2293 94
2294 92
2295 2
2296 37
2297 75
2298 114
2299 29
2300 9
2301 27
2302 54
2303 72
2304 94
2305 67
2306 47
2307 63
2308 24
2309 9
2310 49
2311 123
2312 11
2313 25
2314 79
2315 129
2316 21
2317 11
2318 35
2319 65
2320 122
2321 2
2322 73
2323 114
2324 2
2325 114
2326 78
2327 21
2328 31
2329 86
2330 96
2331 35
2332 126
2333 79
2334 27
2335 32
2336 108
2337 127
2338 77
2339 87
2340 71
2341 104
2342 3
2343 31
2344 55
2345 21
2346 11
2347 19
2348 14
2349 18
2350 9
2351 43
2352 104
2353 114
2354 104
2355 62
2356 17
2357 83
2358 23
2359 17
2360 116
2361 34
2362 68
2363 104
2364 93
2365 111
2366 27
2367 4
2368 86
2369 102
2370 33
2371 17
2372 76
2373 26
2374 18
2375 96
2376 45
2377 17
2378 31
2379 14
2380 56
2381 74
2382 51
2383 119
2384 11
2385 87
2386 74
2387 63
2388 11
2389 37
2390 50
2391 92
2392 114
2393 93
2394 23
2395 23
2396 125
2397 23
2398 108
2399 0
2400 91
2401 59
2402 92
2403 58
2404 17
2405 17
2406 106
2407 23
2408 92
2409 65
2410 11
2411 32
2412 23
2413 104
2414 29
2415 65
2416 78
2417 77
2418 11
2419 108
2420 21
2421 121
2422 62
2423 119
2424 6
2425 23
2426 10
2427 26
2428 34
2429 74
2430 108
2431 49
2432 23
2433 11
2434 79
2435 51
2436 114
2437 69
2438 38
2439 20
2440 112
2441 16
2442 112
2443 65
2444 90
2445 0
2446 17
2447 92
2448 54
2449 57
2450 30
2451 0
2452 31
2453 21
2454 18
2455 78
2456 69
2457 86
2458 11
2459 5
2460 67
2461 23
2462 45
2463 11
2464 77
2465 108
2466 33
2467 78
2468 83
2469 16
2470 29
2471 54
2472 94
2473 110
2474 35
2475 97
2476 104
2477 79
2478 34
2479 23
2480 26
2481 106
2482 79
2483 90
2484 61
2485 31
2486 127
2487 25
2488 11
2489 68
2490 108
2491 87
2492 17
2493 90
2494 81
2495 68
2496 25
2497 108
2498 11
2499 21
2500 2
2501 27
2502 20
2503 11
2504 50
2505 108
2506 108
2507 81
2508 57
2509 38
2510 0
2511 88
2512 88
2513 83
2514 55
2515 79
2516 27
2517 78
2518 87
2519 83
2520 68
2521 68
2522 50
2523 23
2524 5
2525 0
2526 51
2527 65
2528 67
2529 7
2530 0
2531 28
2532 6
2533 55
2534 48
2535 51
2536 2
2537 13
2538 2
2539 28
2540 108
2541 9
2542 11
2543 11
2544 79
2545 100
2546 87
2547 76
2548 48
2549 27
2550 68
2551 51
2552 21
2553 53
2554 12
2555 48
2556 2
2557 93
2558 61
2559 42
2560 114
2561 31
2562 83
2563 100
2564 81
2565 27
2566 102
2567 85
2568 58
2569 74
2570 54
2571 68
2572 11
2573 58
2574 125
2575 10
2576 55
2577 78
2578 87
2579 4
2580 102
2581 23
2582 11
2583 41
2584 62
2585 84
2586 48
2587 80
2588 16
2589 90
2590 5
2591 2
2592 48
2593 8
2594 11
2595 2
2596 33
2597 75
2598 29
2599 55
2600 93
2601 73
2602 81
2603 29
2604 0
2605 49
2606 12
2607 48
2608 81
2609 5
2610 85
2611 42
2612 85
2613 30
2614 11
2615 21
2616 17
2617 37
2618 61
2619 13
2620 2
2621 14
2622 58
2623 92
2624 20
2625 52
2626 61
2627 92
2628 74
2629 110
2630 85
2631 50
2632 90
2633 28
2634 92
2635 48
2636 85
2637 28
2638 5
2639 120
2640 61
2641 51
2642 43
2643 50
2644 51
2645 1
2646 103
2647 84
2648 92
2649 60
2650 78
2651 41
2652 5
2653 56
2654 126
2655 48
2656 71
2657 61
2658 97
2659 57
2660 43
2661 2
2662 31
2663 31
2664 87
2665 92
2666 36
2667 104
2668 31
2669 2
2670 70
2671 3
2672 48
2673 102
2674 114
2675 74
2676 125
2677 68
2678 78
2679 30
2680 23
2681 6
2682 55
2683 104
2684 51
2685 25
2686 8
2687 14
2688 18
2689 21
2690 81
2691 21
2692 104
2693 16
2694 61
2695 78
2696 78
2697 130
2698 11
2699 51
2700 37
2701 130
2702 57
2703 11
2704 61
2705 68
2706 51
2707 108
2708 17
2709 65
2710 43
2711 70
2712 57
2713 88
2714 16
2715 58
2716 20
2717 5
2718 92
2719 87
2720 2
2721 56
2722 17
2723 23
2724 67
2725 11
2726 31
2727 89
2728 70
2729 2
2730 86
2731 65
2732 75
2733 87
2734 75
2735 66
2736 14
2737 28
2738 28
2739 17
2740 51
2741 2
2742 92
2743 17
2744 50
2745 92
2746 13
2747 70
2748 29
2749 21
2750 21
2751 23
2752 11
2753 83
2754 17
2755 120
2756 63
2757 51
2758 36
2759 85
2760 14
2761 16
2762 17
2763 51
2764 108
2765 61
2766 68
2767 83
2768 94
2769 58
2770 17
2771 32
2772 104
2773 85
2774 108
2775 66
2776 51
2777 108
2778 51
2779 11
2780 87
2781 90
2782 68
2783 86
2784 108
2785 5
2786 26
2787 91
2788 51
2789 11
2790 104
2791 28
2792 28
2793 59
2794 10
2795 59
2796 65
2797 87
2798 116
2799 69
2800 30
2801 20
2802 54
2803 52
2804 51
2805 102
2806 61
2807 11
2808 11
2809 108
2810 35
2811 61
2812 92
2813 94
2814 51
2815 12
2816 68
2817 102
2818 108
2819 97
2820 108
2821 92
2822 9
2823 14
2824 76
2825 2
2826 108
2827 48
2828 76
2829 11
2830 69
2831 43
2832 94
2833 68
2834 76
2835 21
2836 73
2837 61
2838 108
2839 48
2840 87
2841 47
2842 11
2843 55
2844 2
2845 23
2846 30
2847 76
2848 68
2849 67
2850 45
2851 51
2852 55
2853 87
2854 35
2855 21
2856 61
2857 11
2858 54
2859 65
2860 34
2861 86
2862 5
2863 108
2864 34
2865 31
2866 113
2867 11
2868 93
2869 58
2870 37
2871 37
2872 43
2873 40
2874 76
2875 55
2876 27
2877 64
2878 78
2879 56
2880 76
2881 11
2882 65
2883 67
2884 61
2885 115
2886 11
2887 11
2888 30
2889 61
2890 52
2891 48
2892 76
2893 108
2894 71
2895 61
2896 48
2897 34
2898 17
2899 108
2900 62
2901 68
2902 90
2903 67
2904 5
2905 11
2906 108
2907 6
2908 17
2909 35
2910 68
2911 2
2912 24
2913 74
2914 68
2915 24
2916 18
2917 65
2918 104
2919 23
2920 108
2921 54
2922 2
2923 76
2924 68
2925 90
2926 81
2927 81
2928 2
2929 100
2930 35
2931 26
2932 21
2933 81
2934 90
2935 54
2936 24
2937 51
2938 5
2939 65
2940 90
2941 60
2942 30
2943 35
2944 21
2945 92
2946 93
2947 106
2948 121
2949 55
2950 61
2951 24
2952 65
2953 28
2954 6
2955 17
2956 51
2957 51
2958 17
2959 17
2960 48
2961 24
2962 85
2963 0
2964 94
2965 68
2966 21
2967 81
2968 68
2969 24
2970 86
2971 28
2972 14
2973 28
2974 101
2975 31
2976 21
2977 90
2978 42
2979 126
2980 90
2981 68
2982 55
2983 124
2984 28
2985 2
2986 58
2987 38
2988 30
2989 61
2990 81
2991 17
2992 30
2993 5
2994 61
2995 17
2996 25
2997 5
2998 87
2999 90
3000 48
3001 65
3002 29
3003 2
3004 2
3005 68
3006 21
3007 23
3008 21
3009 59
3010 35
3011 24
3012 65
3013 17
3014 6
3015 102
3016 68
3017 92
3018 5
3019 65
3020 81
3021 26
3022 94
3023 108
3024 55
3025 2
3026 108
3027 65
3028 17
3029 65
3030 71
3031 23
3032 76
3033 38
3034 100
3035 54
3036 48
3037 61
3038 48
3039 94
3040 23
3041 96
3042 2
3043 61
3044 28
3045 21
3046 68
3047 33
3048 50
3049 50
3050 23
3051 24
3052 28
3053 102
3054 108
3055 90
3056 70
3057 90
3058 28
3059 55
3060 17
3061 65
3062 23
3063 61
3064 30
3065 92
3066 11
3067 28
3068 55
3069 52
3070 50
3071 92
3072 75
3073 15
3074 70
3075 8
3076 92
3077 100
3078 51
3079 79
3080 9
3081 42
3082 11
3083 65
3084 50
3085 28
3086 55
3087 31
3088 41
3089 21
3090 92
3091 11
3092 60
3093 11
3094 13
3095 58
3096 11
3097 57
3098 76
3099 11
3100 58
3101 49
3102 13
3103 61
3104 118
3105 17
3106 42
3107 84
3108 92
3109 61
3110 94
3111 114
3112 12
3113 61
3114 76
3115 2
3116 11
3117 61
3118 86
3119 17
3120 11
3121 5
3122 108
3123 24
3124 51
3125 35
3126 5
3127 2
3128 92
3129 67
3130 105
3131 5
3132 55
3133 2
3134 35
3135 28
3136 33
3137 43
3138 45
3139 24
3140 73
3141 2
3142 29
3143 51
3144 40
3145 37
3146 5
3147 54
3148 65
3149 14
3150 77
3151 121
3152 94
3153 103
3154 77
3155 2
3156 78
3157 30
3158 57
3159 61
3160 90
3161 55
3162 37
3163 61
3164 21
3165 68
3166 46
3167 35
3168 42
3169 56
3170 108
3171 6
3172 43
3173 93
3174 35
3175 35
3176 95
3177 23
3178 23
3179 66
3180 23
3181 92
3182 32
3183 81
3184 17
3185 76
3186 21
3187 28
3188 92
3189 30
3190 32
3191 24
3192 59
3193 27
3194 23
3195 55
3196 42
3197 5
3198 91
3199 92
3200 35
3201 125
3202 11
3203 61
3204 9
3205 2
3206 5
3207 31
3208 51
3209 79
3210 100
3211 58
3212 31
3213 16
3214 89
3215 113
3216 55
3217 28
3218 77
3219 48
3220 11
3221 42
3222 45
3223 24
3224 32
3225 23
3226 35
3227 106
3228 68
3229 48
3230 27
3231 21
3232 86
3233 33
3234 32
3235 23
3236 78
3237 66
3238 23
3239 5
3240 33
3241 21
3242 29
3243 92
3244 94
3245 5
3246 26
3247 86
3248 103
3249 12
3250 83
3251 39
3252 55
3253 33
3254 78
3255 23
3256 33
3257 6
3258 2
3259 29
3260 21
3261 75
3262 104
3263 82
3264 30
3265 40
3266 93
3267 11
3268 11
3269 23
3270 16
3271 23
3272 78
3273 38
3274 32
3275 16
3276 55
3277 78
3278 16
3279 104
3280 37
3281 91
3282 2
3283 50
3284 11
3285 77
3286 55
3287 65
3288 104
3289 92
3290 2
3291 35
3292 97
3293 35
3294 35
3295 120
3296 32
3297 51
3298 45
3299 30
3300 17
3301 36
3302 28
3303 86
3304 9
3305 13
3306 35
3307 5
3308 67
3309 14
3310 92
3311 2
3312 125
3313 35
3314 48
3315 5
3316 99
3317 51
3318 65
3319 54
3320 111
3321 35
3322 11
3323 61
3324 89
3325 30
3326 5
3327 102
3328 31
3329 120
3330 16
3331 92
3332 35
3333 83
3334 2
3335 92
3336 11
3337 23
3338 61
3339 61
3340 23
3341 11
3342 100
3343 17
3344 104
3345 2
3346 92
3347 104
3348 35
3349 21
3350 71
3351 84
3352 2
3353 126
3354 21
3355 43
3356 21
3357 30
3358 73
3359 2
3360 128
3361 108
3362 91
3363 2
3364 17
3365 65
3366 61
3367 33
3368 12
3369 26
3370 65
3371 5
3372 61
3373 23
3374 21
3375 68
3376 76
3377 70
3378 117
3379 74
3380 102
3381 35
3382 18
3383 119
3384 92
3385 52
3386 108
3387 129
3388 61
3389 18
3390 86
3391 66
3392 35
3393 35
3394 34
3395 59
3396 51
3397 17
3398 35
3399 57
3400 113
3401 99
3402 118
3403 65
3404 108
3405 105
3406 86
3407 43
3408 108
3409 72
3410 43
3411 92
3412 11
3413 92
3414 73
3415 89
3416 43
3417 21
3418 37
3419 17
3420 51
3421 78
3422 108
3423 86
3424 35
3425 2
3426 73
3427 11
3428 11
3429 105
3430 121
3431 27
3432 2
3433 70
3434 46
3435 81
3436 76
3437 61
3438 108
3439 74
3440 23
3441 91
3442 21
3443 33
3444 2
3445 65
3446 17
3447 6
3448 92
3449 92
3450 116
3451 96
3452 40
3453 17
3454 16
3455 76
3456 35
3457 2
3458 1
3459 21
3460 100
3461 21
3462 57
3463 21
3464 61
3465 104
3466 57
3467 61
3468 61
3469 31
3470 11
3471 2
3472 33
3473 56
3474 68
3475 51
3476 87
3477 28
3478 11
3479 58
3480 90
3481 71
3482 5
3483 7
3484 5
3485 78
3486 68
3487 1
3488 68
3489 21
3490 61
3491 75
3492 26
3493 50
3494 12
3495 92
3496 35
3497 108
3498 21
3499 8
3500 102
3501 121
3502 30
3503 58
3504 83
3505 61
3506 70
3507 49
3508 92
3509 103
3510 17
3511 8
3512 61
3513 21
3514 114
3515 61
3516 35
3517 27
3518 2
3519 2
3520 63
3521 35
3522 92
3523 50
3524 70
3525 18
3526 5
3527 94
3528 34
3529 34
3530 108
3531 5
3532 55
3533 68
3534 5
3535 13
3536 90
3537 92
3538 23
3539 11
3540 35
3541 90
3542 96
3543 21
3544 93
3545 60
3546 35
3547 92
3548 90
3549 35
3550 50
3551 96
3552 41
3553 14
3554 13
3555 76
3556 71
3557 5
3558 51
3559 28
3560 70
3561 5
3562 76
3563 5
3564 11
3565 81
3566 94
3567 68
3568 13
3569 94
3570 68
3571 53
3572 64
3573 11
3574 5
3575 21
3576 16
3577 66
3578 61
3579 46
3580 94
3581 28
3582 28
3583 66
3584 54
3585 19
3586 58
3587 24
3588 90
3589 2
3590 23
3591 28
3592 31
3593 27
3594 42
3595 70
3596 2
3597 114
3598 70
3599 81
3600 11
3601 81
3602 43
3603 67
3604 4
3605 27
3606 92
3607 27
3608 12
3609 76
3610 107
3611 89
3612 2
3613 71
3614 0
3615 68
3616 2
3617 109
3618 54
3619 59
3620 51
3621 102
3622 74
3623 70
3624 31
3625 35
3626 55
3627 86
3628 94
3629 32
3630 2
3631 2
3632 101
3633 16
3634 61
3635 5
3636 71
3637 75
3638 92
3639 16
3640 26
3641 72
3642 59
3643 127
3644 42
3645 40
3646 18
3647 50
3648 76
3649 68
3650 2
3651 60
3652 5
3653 92
3654 2
3655 76
3656 5
3657 70
3658 61
3659 35
3660 5
3661 81
3662 23
3663 23
3664 110
3665 18
3666 40
3667 32
3668 21
3669 58
3670 52
3671 17
3672 11
3673 38
3674 55
3675 5
3676 60
3677 35
3678 11
3679 65
3680 65
3681 11
3682 26
3683 35
3684 59
3685 21
3686 31
3687 2
3688 109
3689 78
3690 90
3691 117
3692 92
3693 65
3694 50
3695 108
3696 5
3697 110
3698 65
3699 76
3700 30
3701 23
3702 37
3703 103
3704 51
3705 113
3706 17
3707 4
3708 5
3709 5
3710 2
3711 92
3712 58
3713 108
3714 108
3715 108
3716 16
3717 113
3718 28
3719 3
3720 2
3721 51
3722 2
3723 13
3724 5
3725 36
3726 34
3727 57
3728 11
3729 78
3730 16
3731 86
3732 17
3733 51
3734 87
3735 117
3736 5
3737 2
3738 61
3739 16
3740 23
3741 31
3742 36
3743 81
3744 77
3745 23
3746 16
3747 56
3748 35
3749 14
3750 23
3751 2
3752 11
3753 102
3754 108
3755 102
3756 2
3757 76
3758 35
3759 51
3760 76
3761 35
3762 97
3763 0
3764 55
3765 61
3766 16
3767 77
3768 108
3769 48
3770 23
3771 11
3772 74
3773 93
3774 33
3775 35
3776 90
3777 92
3778 12
3779 75
3780 89
3781 60
3782 24
3783 71
3784 51
3785 23
3786 23
3787 51
3788 61
3789 16
3790 35
3791 120
3792 87
3793 35
3794 10
3795 76
3796 108
3797 108
3798 51
3799 117
3800 5
3801 11
3802 51
3803 16
3804 75
3805 68
3806 78
3807 68
3808 2
3809 33
3810 11
3811 2
3812 11
3813 92
3814 8
3815 92
3816 108
3817 87
3818 51
3819 92
3820 35
3821 32
3822 51
3823 2
3824 35
3825 2
3826 35
3827 90
3828 65
3829 90
3830 23
3831 6
3832 100
3833 50
3834 11
3835 93
3836 23
3837 11
3838 79
3839 97
3840 41
3841 32
3842 61
3843 67
3844 93
3845 76
3846 83
3847 35
3848 10
3849 51
3850 35
3851 61
3852 39
3853 90
3854 5
3855 48
3856 108
3857 27
3858 11
3859 48
3860 92
3861 55
3862 16
3863 51
3864 55
3865 122
3866 55
3867 76
3868 21
3869 35
3870 17
3871 35
3872 2
3873 68
3874 55
3875 35
3876 24
3877 89
3878 51
3879 5
3880 76
3881 84
3882 48
3883 6
3884 90
3885 29
3886 60
3887 40
3888 11
3889 18
3890 51
3891 30
3892 92
3893 48
3894 18
3895 40
3896 17
3897 21
3898 55
3899 129
3900 23
3901 110
3902 34
3903 37
3904 11
3905 54
3906 30
3907 48
3908 68
3909 104
3910 57
3911 21
3912 104
3913 62
3914 108
3915 51
3916 99
3917 59
3918 68
3919 11
3920 35
3921 108
3922 68
3923 21
3924 35
3925 17
3926 5
3927 55
3928 14
3929 27
3930 55
3931 87
3932 48
3933 30
3934 11
3935 76
3936 28
3937 24
3938 17
3939 16
3940 76
3941 2
3942 74
3943 61
3944 19
3945 51
3946 92
3947 35
3948 28
3949 104
3950 2
3951 55
3952 54
3953 2
3954 21
3955 89
3956 90
3957 90
3958 35
3959 89
3960 68
3961 30
3962 15
3963 51
3964 2
3965 28
3966 48
3967 30
3968 81
3969 104
3970 11
3971 41
3972 9
3973 24
3974 51
3975 51
3976 102
3977 54
3978 30
3979 52
3980 61
3981 48
3982 108
3983 51
3984 23
3985 28
3986 81
3987 90
3988 55
3989 35
3990 68
3991 0
3992 77
3993 68
3994 90
3995 54
3996 68
3997 54
3998 48
3999 5
4000 51
4001 108
4002 49
4003 11
4004 76
4005 92
4006 28
4007 61
4008 116
4009 70
4010 23
4011 59
4012 92
4013 31
4014 90
4015 61
4016 13
4017 116
4018 61
4019 51
4020 31
4021 2
4022 0
4023 10
4024 21
4025 30
4026 5
4027 108
4028 124
4029 51
4030 23
4031 28
4032 35
4033 74
4034 11
4035 48
4036 90
4037 51
4038 24
4039 108
4040 11
4041 63
4042 104
4043 17
4044 38
4045 30
4046 38
4047 92
4048 22
4049 55
4050 61
4051 33
4052 76
4053 2
4054 65
4055 103
4056 76
4057 2
4058 79
4059 23
4060 15
4061 30
4062 24
4063 48
4064 11
4065 23
4066 21
4067 30
4068 23
4069 61
4070 5
4071 18
4072 58
4073 2
4074 48
4075 5
4076 16
4077 55
4078 12
4079 31
4080 11
4081 18
4082 17
4083 28
4084 30
4085 0
4086 21
4087 21
4088 61
4089 16
4090 120
4091 10
4092 2
4093 5
4094 24
4095 66
4096 105
4097 59
4098 0
4099 22
4100 35
4101 34
4102 68
4103 52
4104 11
4105 55
4106 54
4107 52
4108 60
4109 65
4110 42
4111 50
4112 24
4113 77
4114 42
4115 53
4116 11
4117 22
4118 58
4119 70
4120 10
4121 108
4122 54
4123 54
4124 65
4125 55
4126 6
4127 49
4128 11
4129 50
4130 19
4131 11
4132 76
4133 28
4134 70
4135 35
4136 32
4137 30
4138 95
4139 30
4140 5
4141 70
4142 28
4143 53
4144 87
4145 55
4146 11
4147 11
4148 77
4149 30
4150 81
4151 66
4152 77
4153 85
4154 11
4155 31
4156 50
4157 30
4158 28
4159 90
4160 24
4161 110
4162 31
4163 81
4164 76
4165 30
4166 57
4167 93
4168 62
4169 2
4170 92
4171 112
4172 24
4173 78
4174 90
4175 65
4176 13
4177 24
4178 11
4179 90
4180 84
4181 55
4182 67
4183 42
4184 35
4185 31
4186 1
4187 68
4188 78
4189 36
4190 72
4191 11
4192 70
4193 13
4194 55
4195 24
4196 51
4197 128
4198 59
4199 103
4200 77
4201 0
4202 42
4203 70
4204 90
4205 86
4206 103
4207 77
4208 65
4209 60
4210 44
4211 3
4212 55
4213 26
4214 48
4215 81
4216 104
4217 5
4218 107
4219 62
4220 0
4221 36
4222 79
4223 55
4224 11
4225 122
4226 51
4227 113
4228 67
4229 23
4230 11
4231 22
4232 39
4233 120
4234 30
4235 22
4236 59
4237 30
4238 4
4239 11
4240 129
4241 14
4242 81
4243 110
4244 31
4245 30
4246 68
4247 68
4248 28
4249 68
4250 14
4251 79
4252 68
4253 108
4254 78
4255 39
4256 55
4257 11
4258 58
4259 17
4260 11
4261 31
4262 57
4263 116
4264 11
4265 11
4266 25
4267 66
4268 47
4269 43
4270 74
4271 33
4272 84
4273 83
4274 30
4275 58
4276 104
4277 90
4278 95
4279 129
4280 107
4281 6
4282 75
4283 68
4284 94
4285 75
4286 89
4287 93
4288 34
4289 28
4290 29
4291 28
4292 4
4293 5
4294 58
4295 13
4296 71
4297 16
4298 70
4299 77
4300 68
4301 34
4302 8
4303 87
4304 102
4305 82
4306 127
4307 30
4308 99
4309 16
4310 92
4311 58
4312 125
4313 42
4314 33
4315 93
4316 16
4317 105
4318 78
4319 94
4320 78
4321 32
4322 111
4323 11
4324 93
4325 61
4326 48
4327 87
4328 107
4329 45
4330 63
4331 11
4332 116
4333 99
4334 97
4335 90
4336 102
4337 65
4338 26
4339 11
4340 72
4341 27
4342 124
4343 87
4344 24
4345 54
4346 88
4347 70
4348 79
4349 55
4350 71
4351 62
4352 97
4353 12
4354 28
4355 54
4356 2
4357 92
4358 87
4359 50
4360 5
4361 106
4362 26
4363 8
4364 78
4365 23
4366 11
4367 18
4368 92
4369 30
4370 45
4371 84
4372 103
4373 56
4374 13
4375 65
4376 11
4377 58
4378 48
4379 37
4380 77
4381 59
4382 92
4383 43
4384 21
4385 16
4386 124
4387 47
4388 42
4389 45
4390 89
4391 11
4392 108
4393 36
4394 70
4395 108
4396 67
4397 17
4398 79
4399 81
4400 21
4401 16
4402 92
4403 35
4404 41
4405 89
4406 27
4407 76
4408 11
4409 59
4410 1
4411 35
4412 27
4413 92
4414 52
4415 17
4416 59
4417 125
4418 30
4419 8
4420 106
4421 16
4422 115
4423 92
4424 46
4425 87
4426 24
4427 110
4428 108
4429 87
4430 59
4431 22
4432 57
4433 11
4434 115
4435 81
4436 108
4437 76
4438 23
4439 55
4440 116
4441 23
4442 17
4443 71
4444 78
4445 58
4446 74
4447 24
4448 92
4449 28
4450 76
4451 78
4452 76
4453 42
4454 78
4455 72
4456 20
4457 87
4458 18
4459 58
4460 3
4461 107
4462 11
4463 92
4464 39
4465 94
4466 58
4467 32
4468 2
4469 11
4470 76
4471 77
4472 66
4473 59
4474 40
4475 11
4476 92
4477 92
4478 18
4479 58
4480 73
4481 103
4482 108
4483 36
4484 18
4485 60
4486 104
4487 27
4488 11
4489 76
4490 77
4491 24
4492 90
4493 90
4494 74
4495 92
4496 92
4497 21
4498 64
4499 17
4500 102
4501 96
4502 78
4503 108
4504 34
4505 5
4506 50
4507 37
4508 76
4509 5
4510 67
4511 63
4512 51
4513 5
4514 86
4515 21
4516 24
4517 43
4518 86
4519 21
4520 76
4521 67
4522 112
4523 17
4524 76
4525 93
4526 92
4527 50
4528 107
4529 75
4530 108
4531 21
4532 8
4533 90
4534 106
4535 92
4536 68
4537 25
4538 104
4539 50
4540 99
4541 48
4542 11
4543 76
4544 99
4545 2
4546 48
4547 102
4548 5
4549 5
4550 21
4551 55
4552 23
4553 8
4554 102
4555 23
4556 33
4557 81
4558 17
4559 61
4560 29
4561 10
4562 51
4563 61
4564 96
4565 38
4566 36
4567 91
4568 90
4569 63
4570 92
4571 83
4572 92
4573 13
4574 92
4575 94
4576 5
4577 23
4578 0
4579 48
4580 25
4581 11
4582 23
4583 61
4584 17
4585 92
4586 50
4587 102
4588 108
4589 116
4590 2
4591 90
4592 108
4593 67
4594 108
4595 2
4596 70
4597 27
4598 90
4599 55
4600 23
4601 14
4602 55
4603 11
4604 70
4605 44
4606 71
4607 68
4608 114
4609 77
4610 107
4611 21
4612 21
4613 76
4614 123
4615 68
4616 92
4617 43
4618 130
4619 46
4620 94
4621 83
4622 42
4623 63
4624 50
4625 68
4626 54
4627 87
4628 43
4629 81
4630 30
4631 75
4632 83
4633 11
4634 52
4635 81
4636 11
4637 10
4638 92
4639 84
4640 16
4641 81
4642 87
4643 11
4644 11
4645 74
4646 74
4647 96
4648 92
4649 33
4650 54
4651 0
4652 94
4653 68
4654 28
4655 130
4656 105
4657 76
4658 125
4659 42
4660 17
4661 10
4662 17
4663 74
4664 2
4665 30
4666 61
4667 5
4668 11
4669 55
4670 108
4671 55
4672 30
4673 21
4674 21
4675 102
4676 41
4677 103
4678 28
4679 116
4680 48
4681 30
4682 45
4683 61
4684 11
4685 17
4686 61
4687 47
4688 12
4689 102
4690 60
4691 5
4692 78
4693 65
4694 17
4695 55
4696 90
4697 13
4698 11
4699 96
4700 5
4701 2
4702 68
4703 55
4704 92
4705 81
4706 81
4707 46
4708 78
4709 71
4710 30
4711 15
4712 36
4713 48
4714 8
4715 92
4716 22
4717 54
4718 92
4719 108
4720 9
4721 17
4722 61
4723 21
4724 32
4725 96
4726 2
4727 67
4728 92
4729 30
4730 13
4731 87
4732 108
4733 61
4734 61
4735 6
4736 92
4737 92
4738 81
4739 66
4740 54
4741 93
4742 21
4743 78
4744 65
4745 111
4746 79
4747 100
4748 13
4749 0
4750 23
4751 11
4752 11
4753 42
4754 6
4755 42
4756 5
4757 81
4758 51
4759 126
4760 11
4761 120
4762 87
4763 68
4764 34
4765 5
4766 14
4767 14
4768 103
4769 17
4770 23
4771 60
4772 21
4773 23
4774 5
4775 94
4776 63
4777 68
4778 23
4779 61
4780 61
4781 108
4782 23
4783 108
4784 11
4785 8
4786 87
4787 8
4788 14
4789 2
4790 77
4791 61
4792 104
4793 81
4794 36
4795 68
4796 46
4797 21
4798 21
4799 86
4800 61
4801 2
4802 2
4803 5
4804 87
4805 68
4806 11
4807 76
4808 92
4809 61
4810 51
4811 2
4812 2
4813 50
4814 23
4815 92
4816 61
4817 18
4818 49
4819 21
4820 53
4821 78
4822 91
4823 76
4824 11
4825 17
4826 21
4827 37
4828 27
4829 60
4830 77
4831 108
4832 35
4833 27
4834 68
4835 21
4836 23
4837 108
4838 35
4839 89
4840 90
4841 61
4842 90
4843 57
4844 108
4845 13
4846 17
4847 2
4848 67
4849 57
4850 68
4851 18
4852 21
4853 61
4854 54
4855 116
4856 90
4857 23
4858 61
4859 86
4860 54
4861 30
4862 92
4863 108
4864 96
4865 17
4866 92
4867 17
4868 108
4869 51
4870 92
4871 71
4872 96
4873 48
4874 28
4875 21
4876 2
4877 18
4878 11
4879 92
4880 61
4881 13
4882 27
4883 81
4884 35
4885 50
4886 93
4887 87
4888 2
4889 35
4890 71
4891 114
4892 17
4893 120
4894 76
4895 108
4896 61
4897 92
4898 35
4899 102
4900 87
4901 11
4902 2
4903 16
4904 76
4905 17
4906 90
4907 65
4908 21
4909 71
4910 32
4911 116
4912 71
4913 74
4914 21
4915 77
4916 23
4917 89
4918 34
4919 61
4920 17
4921 92
4922 78
4923 65
4924 65
4925 2
4926 68
4927 67
4928 11
4929 30
4930 40
4931 64
4932 71
4933 21
4934 61
4935 16
4936 90
4937 76
4938 90
4939 36
4940 64
4941 30
4942 108
4943 87
4944 57
4945 65
4946 5
4947 93
4948 83
4949 5
4950 55
4951 61
4952 88
4953 11
4954 111
4955 68
4956 92
4957 32
4958 2
4959 11
4960 26
4961 11
4962 24
4963 26
4964 108
4965 32
4966 110
4967 68
4968 51
4969 48
4970 21
4971 89
4972 108
4973 58
4974 68
4975 30
4976 48
4977 90
4978 17
4979 74
4980 76
4981 34
4982 104
4983 68
4984 68
4985 30
4986 78
4987 28
4988 2
4989 28
4990 45
4991 32
4992 35
4993 117
4994 21
4995 21
4996 24
4997 68
4998 81
4999 81
5000 11
5001 120
5002 2
5003 23
5004 0
5005 81
5006 102
5007 35
5008 51
5009 61
5010 11
5011 78
5012 61
5013 23
5014 81
5015 51
5016 90
5017 76
5018 78
5019 30
5020 120
5021 102
5022 74
5023 24
5024 30
5025 81
5026 90
5027 102
5028 11
5029 17
5030 81
5031 103
5032 21
5033 81
5034 55
5035 12
5036 48
5037 27
5038 17
5039 55
5040 29
5041 61
5042 105
5043 76
5044 65
5045 48
5046 65
5047 97
5048 2
5049 30
5050 65
5051 48
5052 2
5053 42
5054 65
5055 48
5056 11
5057 78
5058 92
5059 24
5060 68
5061 102
5062 76
5063 32
5064 13
5065 4
5066 102
5067 27
5068 23
5069 76
5070 76
5071 108
5072 51
5073 104
5074 48
5075 51
5076 65
5077 82
5078 5
5079 21
5080 35
5081 68
5082 61
5083 30
5084 99
5085 94
5086 5
5087 108
5088 26
5089 124
5090 23
5091 92
5092 30
5093 61
5094 17
5095 2
5096 15
5097 23
5098 30
5099 23
5100 59
5101 11
5102 48
5103 17
5104 66
5105 21
5106 24
5107 90
5108 55
5109 31
5110 76
5111 55
5112 106
5113 108
5114 23
5115 21
5116 36
5117 11
5118 92
5119 34
5120 109
5121 16
5122 54
5123 34
5124 102
5125 86
5126 60
5127 92
5128 93
5129 38
5130 43
5131 2
5132 2
5133 92
5134 19
5135 89
5136 11
5137 55
5138 35
5139 109
5140 92
5141 120
5142 5
5143 55
5144 31
5145 68
5146 108
5147 30
5148 82
5149 11
5150 18
5151 102
5152 28
5153 2
5154 92
5155 25
5156 16
5157 124
5158 35
5159 107
5160 12
5161 19
5162 20
5163 88
5164 11
5165 60
5166 85
5167 93
5168 35
5169 88
5170 68
5171 63
5172 2
5173 61
5174 8
5175 65
5176 30
5177 97
5178 61
5179 2
5180 60
5181 50
5182 24
5183 104
5184 21
5185 2
5186 114
5187 68
5188 60
5189 110
5190 84
5191 28
5192 21
5193 23
5194 5
5195 17
5196 17
5197 21
5198 78
5199 5
5200 61
5201 58
5202 24
5203 114
5204 64
5205 61
5206 24
5207 116
5208 73
5209 35
5210 17
5211 0
5212 36
5213 24
5214 42
5215 0
5216 61
5217 21
5218 76
5219 78
5220 65
5221 114
5222 92
5223 23
5224 60
5225 11
5226 30
5227 78
5228 67
5229 125
5230 11
5231 76
5232 70
5233 61
5234 28
5235 67
5236 17
5237 17
5238 6
5239 21
5240 89
5241 42
5242 25
5243 23
5244 103
5245 24
5246 25
5247 35
5248 35
5249 92
5250 37
5251 28
5252 11
5253 51
5254 75
5255 0
5256 24
5257 80
5258 16
5259 92
5260 2
5261 17
5262 130
5263 90
5264 13
5265 125
5266 50
5267 85
5268 30
5269 11
5270 104
5271 118
5272 61
5273 9
5274 28
5275 92
5276 5
5277 76
5278 32
5279 78
5280 24
5281 104
5282 13
5283 55
5284 35
5285 23
5286 66
5287 52
5288 35
5289 84
5290 118
5291 2
5292 55
5293 89
5294 0
5295 5
5296 21
5297 21
5298 21
5299 17
5300 51
5301 5
5302 11
5303 5
5304 17
5305 88
5306 2
5307 48
5308 92
5309 106
5310 23
5311 45
5312 35
5313 113
5314 82
5315 21
5316 80
5317 32
5318 115
5319 6
5320 35
5321 51
5322 5
5323 17
5324 17
5325 99
5326 51
5327 49
5328 35
5329 78
5330 92
5331 23
5332 87
5333 35
5334 11
5335 2
5336 92
5337 36
5338 89
5339 2
5340 58
5341 61
5342 86
5343 87
5344 35
5345 81
5346 10
5347 93
5348 11
5349 10
5350 11
5351 87
5352 11
5353 75
5354 92
5355 28
5356 11
5357 65
5358 16
5359 66
5360 5
5361 30
5362 33
5363 93
5364 16
5365 104
5366 20
5367 54
5368 18
5369 61
5370 2
5371 61
5372 52
5373 27
5374 115
5375 67
5376 21
5377 21
5378 28
5379 28
5380 92
5381 17
5382 80
5383 83
5384 92
5385 11
5386 21
5387 50
5388 23
5389 23
5390 96
5391 78
5392 23
5393 17
5394 86
5395 41
5396 93
5397 24
5398 42
5399 26
5400 86
5401 2
5402 31
5403 14
5404 92
5405 24
5406 21
5407 24
5408 55
5409 16
5410 42
5411 21
5412 102
5413 84
5414 27
5415 23
5416 17
5417 67
5418 86
5419 61
5420 21
5421 47
5422 76
5423 76
5424 108
5425 17
5426 76
5427 48
5428 5
5429 111
5430 23
5431 61
5432 78
5433 40
5434 54
5435 10
5436 59
5437 23
5438 27
5439 92
5440 61
5441 36
5442 114
5443 117
5444 9
5445 28
5446 103
5447 76
5448 61
5449 71
5450 124
5451 87
5452 69
5453 108
5454 93
5455 12
5456 15
5457 5
5458 108
5459 28
5460 14
5461 14
5462 70
5463 17
5464 17
5465 23
5466 67
5467 110
5468 23
5469 78
5470 59
5471 67
5472 76
5473 21
5474 11
5475 21
5476 41
5477 61
5478 0
5479 58
5480 21
5481 71
5482 93
5483 108
5484 92
5485 73
5486 43
5487 35
5488 51
5489 0
5490 51
5491 61
5492 52
5493 114
5494 84
5495 76
5496 125
5497 110
5498 104
5499 104
5500 39
5501 6
5502 2
5503 56
5504 102
5505 16
5506 106
5507 36
5508 5
5509 88
5510 104
5511 23
5512 92
5513 107
5514 38
5515 30
5516 5
5517 102
5518 33
5519 76
5520 109
5521 92
5522 90
5523 5
5524 11
5525 68
5526 34
5527 90
5528 2
5529 75
5530 76
5531 59
5532 31
5533 108
5534 0
5535 21
5536 51
5537 3
5538 68
5539 62
5540 78
5541 26
5542 76
5543 82
5544 108
5545 79
5546 68
5547 17
5548 0
5549 102
5550 65
5551 29
5552 35
5553 23
5554 31
5555 74
5556 61
5557 35
5558 90
5559 30
5560 40
5561 83
5562 31
5563 59
5564 92
5565 48
5566 23
5567 74
5568 16
5569 70
5570 55
5571 32
5572 11
5573 27
5574 24
5575 4
5576 71
5577 29
5578 86
5579 27
5580 21
5581 71
5582 90
5583 58
5584 48
5585 16
5586 35
5587 35
5588 32
5589 61
5590 51
5591 51
5592 23
5593 76
5594 81
5595 104
5596 17
5597 35
5598 18
5599 68
5600 81
5601 36
5602 21
5603 92
5604 27
5605 0
5606 28
5607 113
5608 2
5609 96
5610 102
5611 51
5612 90
5613 28
5614 75
5615 92
5616 70
5617 76
5618 28
5619 125
5620 54
5621 20
5622 50
5623 116
5624 17
5625 90
5626 108
5627 18
5628 68
5629 48
5630 67
5631 33
5632 35
5633 90
5634 70
5635 31
5636 50
5637 90
5638 77
5639 40
5640 2
5641 22
5642 92
5643 11
5644 23
5645 76
5646 58
5647 43
5648 2
5649 32
5650 5
5651 68
5652 2
5653 19
5654 50
5655 45
5656 2
5657 50
5658 11
5659 49
5660 88
5661 23
5662 114
5663 59
5664 2
5665 43
5666 46
5667 18
5668 73
5669 11
5670 34
5671 105
5672 11
5673 2
5674 60
5675 55
5676 114
5677 92
5678 115
5679 59
5680 92
5681 120
5682 2
5683 11
5684 79
5685 74
5686 79
5687 93
5688 5
5689 92
5690 61
5691 75
5692 9
5693 75
5694 56
5695 21
5696 2
5697 89
5698 50
5699 5
5700 69
5701 71
5702 61
5703 5
5704 30
5705 35
5706 105
5707 5
5708 2
5709 70
5710 92
5711 35
5712 11
5713 18
5714 106
5715 23
5716 11
5717 27
5718 21
5719 29
5720 65
5721 55
5722 81
5723 22
5724 81
5725 5
5726 48
5727 48
5728 74
5729 61
5730 56
5731 37
5732 78
5733 54
5734 65
5735 68
5736 21
5737 2
5738 5
5739 35
5740 67
5741 35
5742 28
5743 27
5744 26
5745 51
5746 2
5747 41
5748 72
5749 110
5750 62
5751 17
5752 11
5753 11
5754 28
5755 77
5756 42
5757 35
5758 92
5759 5
5760 17
5761 104
5762 81
5763 17
5764 2
5765 57
5766 61
5767 48
5768 7
5769 41
5770 108
5771 110
5772 25
5773 67
5774 17
5775 51
5776 51
5777 81
5778 90
5779 5
5780 48
5781 95
5782 48
5783 21
5784 67
5785 16
5786 126
5787 90
5788 2
5789 55
5790 51
5791 14
5792 5
5793 11
5794 100
5795 30
5796 92
5797 32
5798 0
5799 92
5800 121
5801 5
5802 17
5803 108
5804 87
5805 51
5806 33
5807 51
5808 108
5809 68
5810 30
5811 23
5812 74
5813 76
5814 94
5815 23
5816 90
5817 37
5818 108
5819 108
5820 68
5821 90
5822 16
5823 61
5824 11
5825 11
5826 84
5827 13
5828 68
5829 92
5830 61
5831 90
5832 61
5833 48
5834 68
5835 5
5836 104
5837 90
5838 106
5839 17
5840 61
5841 90
5842 30
5843 11
5844 120
5845 104
5846 1
5847 11
5848 17
5849 92
5850 18
5851 77
5852 51
5853 61
5854 23
5855 17
5856 90
5857 116
5858 68
5859 78
5860 104
5861 51
5862 96
5863 63
5864 48
5865 45
5866 51
5867 57
5868 4
5869 77
5870 26
5871 92
5872 35
5873 2
5874 35
5875 93
5876 51
5877 66
5878 35
5879 83
5880 102
5881 30
5882 30
5883 90
5884 35
5885 32
5886 21
5887 32
5888 11
5889 11
5890 104
5891 2
5892 24
5893 51
5894 55
5895 17
5896 17
5897 61
5898 42
5899 51
5900 48
5901 2
5902 6
5903 61
5904 108
5905 76
5906 35
5907 35
5908 48
5909 60
5910 17
5911 51
5912 104
5913 51
5914 5
5915 129
5916 21
5917 90
5918 84
5919 83
5920 119
5921 102
5922 90
5923 28
5924 29
5925 46
5926 32
5927 59
5928 55
5929 27
5930 34
5931 17
5932 23
5933 114
5934 76
5935 23
5936 30
5937 92
5938 11
5939 17
5940 61
5941 34
5942 30
5943 51
5944 55
5945 92
5946 61
5947 56
5948 51
5949 5
5950 24
5951 30
5952 98
5953 55
5954 85
5955 35
5956 5
5957 30
5958 21
5959 65
5960 35
5961 90
5962 90
5963 108
5964 33
5965 104
5966 11
5967 35
5968 92
5969 21
5970 76
5971 26
5972 5
5973 58
5974 34
5975 48
5976 17
5977 68
5978 92
5979 23
5980 28
5981 30
5982 2
5983 48
5984 65
5985 23
5986 35
5987 87
5988 65
5989 89
5990 108
5991 0
5992 48
5993 92
5994 81
5995 23
5996 55
5997 19
5998 0
5999 109
6000 54
6001 68
6002 93
6003 57
6004 51
6005 23
6006 92
6007 24
6008 65
6009 24
6010 78
6011 17
6012 54
6013 2
6014 108
6015 2
6016 90
6017 51
6018 58
6019 17
6020 13
6021 21
6022 0
6023 54
6024 26
6025 81
6026 18
6027 51
6028 61
6029 17
6030 20
6031 68
6032 104
6033 28
6034 28
6035 92
6036 28
6037 77
6038 50
6039 76
6040 92
6041 2
6042 71
6043 55
6044 76
6045 78
6046 61
6047 108
6048 30
6049 61
6050 74
6051 76
6052 108
6053 18
6054 6
6055 104
6056 35
6057 2
6058 65
6059 68
6060 11
6061 92
6062 0
6063 92
6064 87
6065 89
6066 86
6067 27
6068 45
6069 28
6070 53
6071 108
6072 28
6073 10
6074 54
6075 11
6076 35
6077 48
6078 17
6079 85
6080 108
6081 24
6082 60
6083 71
6084 51
6085 35
6086 76
6087 61
6088 5
6089 81
6090 61
6091 2
6092 2
6093 65
6094 70
6095 60
6096 29
6097 6
6098 27
6099 55
6100 51
6101 28
6102 51
6103 68
6104 48
6105 24
6106 61
6107 51
6108 65
6109 21
6110 23
6111 55
6112 55
6113 64
6114 51
6115 23
6116 103
6117 92
6118 88
6119 81
6120 90
6121 60
6122 17
6123 5
6124 92
6125 62
6126 85
6127 30
6128 46
6129 2
6130 85
6131 92
6132 28
6133 5
6134 90
6135 23
6136 28
6137 65
6138 81
6139 87
6140 5
6141 30
6142 35
6143 61
6144 90
6145 35
6146 74
6147 39
6148 55
6149 77
6150 68
6151 11
6152 81
6153 90
6154 74
6155 42
6156 11
6157 28
6158 24
6159 114
6160 11
6161 46
6162 96
6163 41
6164 35
6165 49
6166 95
6167 76
6168 58
6169 75
6170 47
6171 84
6172 61
6173 0
6174 43
6175 93
6176 5
6177 11
6178 81
6179 71
6180 34
6181 46
6182 105
6183 11
6184 85
6185 102
6186 81
6187 96
6188 0
6189 11
6190 88
6191 5
6192 32
6193 16
6194 43
6195 65
6196 5
6197 97
6198 105
6199 55
6200 50
6201 102
6202 13
6203 4
6204 100
6205 0
6206 127
6207 29
6208 96
6209 5
6210 11
6211 81
6212 110
6213 86
6214 41
6215 52
6216 37
6217 39
6218 56
6219 71
6220 76
6221 60
6222 28
6223 104
6224 28
6225 28
6226 81
6227 80
6228 109
6229 59
6230 41
6231 74
6232 31
6233 44
6234 103
6235 84
6236 6
6237 78
6238 56
6239 78
6240 65
6241 42
6242 5
6243 86
6244 34
6245 75
6246 0
6247 46
6248 126
6249 40
6250 57
6251 125
6252 114
6253 58
6254 42
6255 43
6256 32
6257 67
6258 31
6259 98
6260 65
6261 84
6262 11
6263 6
6264 58
6265 50
6266 36
6267 3
6268 57
6269 71
6270 60
6271 61
6272 58
6273 25
6274 50
6275 14
6276 23
6277 32
6278 0
6279 80
6280 78
6281 70
6282 78
6283 3
6284 90
6285 65
6286 56
6287 33
6288 78
6289 104
6290 104
6291 119
6292 73
6293 11
6294 42
6295 16
6296 8
6297 65
6298 9
6299 26
6300 17
6301 95
6302 125
6303 122
6304 11
6305 57
6306 94
6307 94
6308 85
6309 105
6310 36
6311 6
6312 55
6313 28
6314 13
6315 33
6316 110
6317 103
6318 83
6319 5
6320 62
6321 11
6322 64
6323 29
6324 97
6325 89
6326 42
6327 0
6328 19
6329 8
6330 13
6331 18
6332 73
6333 44
6334 32
6335 75
6336 60
6337 68
6338 34
6339 88
6340 84
6341 24
6342 70
6343 79
6344 33
6345 16
6346 9
6347 81
6348 23
6349 15
6350 42
6351 16
6352 92
6353 24
6354 78
6355 92
6356 63
6357 89
6358 5
6359 60
6360 65
6361 18
6362 42
6363 77
6364 57
6365 42
6366 22
6367 66
6368 77
6369 93
6370 11
6371 11
6372 48
6373 25
6374 36
6375 22
6376 50
6377 111
6378 67
6379 92
6380 4
6381 30
6382 65
6383 14
6384 78
6385 89
6386 60
6387 32
6388 114
6389 128
6390 63
6391 57
6392 121
6393 54
6394 67
6395 21
6396 92
6397 97
6398 71
6399 83
6400 26
6401 35
6402 123
6403 17
6404 21
6405 42
6406 121
6407 71
6408 96
6409 57
6410 71
6411 25
6412 87
6413 55
6414 103
6415 54
6416 13
6417 66
6418 75
6419 16
6420 27
6421 23
6422 54
6423 124
6424 18
6425 114
6426 102
6427 6
6428 94
6429 52
6430 23
6431 11
6432 23
6433 67
6434 17
6435 48
6436 92
6437 85
6438 16
6439 11
6440 17
6441 33
6442 74
6443 54
6444 11
6445 21
6446 100
6447 25
6448 94
6449 47
6450 92
6451 45
6452 76
6453 4
6454 34
6455 4
6456 62
6457 29
6458 92
6459 17
6460 54
6461 49
6462 20
6463 21
6464 50
6465 74
6466 21
6467 20
6468 17
6469 37
6470 32
6471 74
6472 40
6473 27
6474 84
6475 75
6476 94
6477 60
6478 96
6479 22
6480 95
6481 24
6482 47
6483 58
6484 54
6485 43
6486 35
6487 47
6488 51
6489 11
6490 87
6491 88
6492 108
6493 37
6494 23
6495 1
6496 108
6497 92
6498 108
6499 59
6500 48
6501 80
6502 52
6503 1
6504 77
6505 74
6506 21
6507 14
6508 76
6509 38
6510 76
6511 102
6512 19
6513 73
6514 21
6515 70
6516 89
6517 25
6518 108
6519 92
6520 54
6521 51
6522 23
6523 123
6524 93
6525 10
6526 23
6527 108
6528 31
6529 89
6530 65
6531 0
6532 48
6533 74
6534 71
6535 7
6536 88
6537 90
6538 85
6539 56
6540 40
6541 23
6542 9
6543 86
6544 11
6545 85
6546 88
6547 30
6548 92
6549 74
6550 76
6551 96
6552 26
6553 32
6554 31
6555 51
6556 86
6557 51
6558 21
6559 100
6560 87
6561 8
6562 51
6563 109
6564 10
6565 108
6566 126
6567 93
6568 23
6569 92
6570 11
6571 23
6572 108
6573 51
6574 104
6575 13
6576 66
6577 90
6578 51
6579 5
6580 76
6581 76
6582 29
6583 21
6584 68
6585 27
6586 87
6587 92
6588 2
6589 17
6590 25
6591 79
6592 5
6593 11
6594 21
6595 11
6596 26
6597 92
6598 59
6599 2
6600 58
6601 123
6602 90
6603 102
6604 108
6605 92
6606 11
6607 92
6608 59
6609 23
6610 5
6611 5
6612 16
6613 90
6614 0
6615 48
6616 51
6617 76
6618 74
6619 13
6620 90
6621 41
6622 21
6623 85
6624 1
6625 103
6626 19
6627 47
6628 111
6629 107
6630 48
6631 44
6632 2
6633 116
6634 92
6635 17
6636 28
6637 17
6638 102
6639 5
6640 5
6641 76
6642 61
6643 2
6644 29
6645 78
6646 50
6647 33
6648 60
6649 55
6650 51
6651 14
6652 71
6653 54
6654 57
6655 77
6656 114
6657 11
6658 84
6659 96
6660 38
6661 77
6662 64
6663 84
6664 92
6665 105
6666 20
6667 19
6668 21
6669 68
6670 128
6671 54
6672 2
6673 11
6674 2
6675 92
6676 92
6677 33
6678 90
6679 0
6680 37
6681 23
6682 92
6683 108
6684 70
6685 61
6686 37
6687 11
6688 52
6689 71
6690 48
6691 2
6692 54
6693 30
6694 46
6695 125
6696 41
6697 80
6698 55
6699 61
6700 24
6701 87
6702 30
6703 0
6704 84
6705 34
6706 53
6707 96
6708 34
6709 13
6710 58
6711 70
6712 111
6713 17
6714 50
6715 44
6716 30
6717 17
6718 80
6719 33
6720 29
6721 26
6722 102
6723 2
6724 17
6725 62
6726 2
6727 90
6728 92
6729 31
6730 91
6731 26
6732 15
6733 81
6734 48
6735 11
6736 17
6737 54
6738 21
6739 110
6740 23
6741 55
6742 21
6743 78
6744 34
6745 65
6746 61
6747 21
6748 5
6749 51
6750 23
6751 30
6752 30
6753 71
6754 2
6755 90
6756 50
6757 23
6758 120
6759 102
6760 17
6761 71
6762 55
6763 67
6764 21
6765 61
6766 2
6767 17
6768 21
6769 92
6770 17
6771 55
6772 50
6773 107
6774 65
6775 51
6776 13
6777 81
6778 18
6779 92
6780 48
6781 109
6782 2
6783 92
6784 56
6785 70
6786 61
6787 58
6788 42
6789 104
6790 61
6791 2
6792 110
6793 92
6794 5
6795 90
6796 51
6797 90
6798 60
6799 32
6800 85
6801 11
6802 104
6803 57
6804 9
6805 46
6806 26
6807 32
6808 65
6809 92
6810 120
6811 92
6812 87
6813 48
6814 43
6815 92
6816 78
6817 87
6818 61
6819 28
6820 14
6821 61
6822 36
6823 92
6824 23
6825 76
6826 32
6827 36
6828 60
6829 33
6830 61
6831 81
6832 2
6833 19
6834 70
6835 32
6836 113
6837 87
6838 55
6839 11
6840 8
6841 92
6842 68
6843 11
6844 16
6845 92
6846 2
6847 48
6848 11
6849 44
6850 78
6851 68
6852 85
6853 2
6854 67
6855 32
6856 78
6857 14
6858 21
6859 24
6860 17
6861 92
6862 76
6863 85
6864 78
6865 11
6866 51
6867 11
6868 71
6869 11
6870 2
6871 75
6872 27
6873 93
6874 93
6875 26
6876 11
6877 63
6878 68
6879 58
6880 62
6881 92
6882 109
6883 23
6884 75
6885 50
6886 51
6887 2
6888 11
6889 87
6890 23
6891 21
6892 81
6893 23
6894 14
6895 76
6896 48
6897 103
6898 76
6899 116
6900 23
6901 67
6902 90
6903 14
6904 87
6905 26
6906 2
6907 11
6908 12
6909 51
6910 68
6911 89
6912 32
6913 51
6914 51
6915 90
6916 35
6917 76
6918 11
6919 84
6920 35
6921 19
6922 53
6923 59
6924 17
6925 90
6926 24
6927 58
6928 83
6929 48
6930 51
6931 55
6932 35
6933 21
6934 61
6935 23
6936 5
6937 118
6938 55
6939 5
6940 65
6941 2
6942 42
6943 11
6944 76
6945 35
6946 13
6947 48
6948 94
6949 55
6950 76
6951 55
6952 94
6953 78
6954 60
6955 68
6956 55
6957 55
6958 30
6959 90
6960 51
6961 70
6962 48
6963 17
6964 76
6965 48
6966 65
6967 21
6968 57
6969 130
6970 92
6971 59
6972 74
6973 23
6974 30
6975 11
6976 54
6977 16
6978 35
6979 68
6980 86
6981 59
6982 2
6983 35
6984 92
6985 90
6986 102
6987 2
6988 87
6989 55
6990 23
6991 105
6992 28
6993 76
6994 48
6995 51
6996 116
6997 61
6998 41
6999 68
7000 65
7001 60
7002 61
7003 17
7004 38
7005 108
7006 16
7007 55
7008 108
7009 5
7010 65
7011 51
7012 58
7013 58
7014 37
7015 119
7016 108
7017 11
7018 35
7019 108
7020 27
7021 10
7022 23
7023 23
7024 93
7025 36
7026 65
7027 55
7028 92
7029 76
7030 76
7031 68
7032 79
7033 58
7034 2
7035 5
7036 11
7037 54
7038 62
7039 5
7040 68
7041 21
7042 81
7043 74
7044 65
7045 27
7046 2
7047 30
7048 30
7049 11
7050 61
7051 51
7052 11
7053 73
7054 28
7055 17
7056 48
7057 48
7058 21
7059 55
7060 2
7061 65
7062 33
7063 5
7064 77
7065 35
7066 55
7067 108
7068 0
7069 56
7070 51
7071 51
7072 74
7073 61
7074 94
7075 11
7076 76
7077 108
7078 23
7079 21
7080 30
7081 87
7082 59
7083 24
7084 61
7085 23
7086 17
7087 16
7088 76
7089 35
7090 35
7091 28
7092 74
7093 10
7094 90
7095 5
7096 102
7097 75
7098 61
7099 30
7100 11
7101 28
7102 13
7103 81
7104 2
7105 5
7106 60
7107 35
7108 35
7109 55
7110 11
7111 61
7112 50
7113 51
7114 61
7115 76
7116 28
7117 2
7118 55
7119 24
7120 108
7121 104
7122 10
7123 35
7124 35
7125 54
7126 65
7127 2
7128 97
7129 74
7130 5
7131 61
7132 2
7133 24
7134 54
7135 30
7136 55
7137 92
7138 120
7139 17
7140 21
7141 83
7142 90
7143 61
7144 93
7145 2
7146 68
7147 65
7148 2
7149 90
7150 23
7151 96
7152 76
7153 24
7154 90
7155 17
7156 70
7157 2
7158 23
7159 23
7160 81
7161 90
7162 23
7163 21
7164 96
7165 31
7166 67
7167 55
7168 28
7169 24
7170 116
7171 11
7172 30
7173 30
7174 84
7175 68
7176 114
7177 65
7178 65
7179 70
7180 124
7181 23
7182 114
7183 24
7184 68
7185 45
7186 51
7187 76
7188 60
7189 42
7190 92
7191 94
7192 27
7193 92
7194 49
7195 61
7196 96
7197 0
7198 2
7199 21
7200 50
7201 13
7202 2
7203 95
7204 92
7205 15
7206 68
7207 116
7208 30
7209 2
7210 129
7211 14
7212 30
7213 35
7214 74
7215 104
7216 86
7217 11
7218 27
7219 24
7220 5
7221 2
7222 17
7223 90
7224 70
7225 17
7226 2
7227 2
7228 92
7229 11
7230 11
7231 76
7232 70
7233 18
7234 30
7235 37
7236 21
7237 114
7238 35
7239 85
7240 108
7241 9
7242 22
7243 51
7244 50
7245 35
7246 43
7247 74
7248 51
7249 62
7250 13
7251 23
7252 102
7253 2
7254 48
7255 94
7256 89
7257 61
7258 11
7259 103
7260 70
7261 11
7262 67
7263 92
7264 2
7265 65
7266 47
7267 92
7268 92
7269 68
7270 35
7271 93
7272 34
7273 61
7274 17
7275 21
7276 78
7277 60
7278 65
7279 43
7280 23
7281 78
7282 90
7283 24
7284 6
7285 28
7286 69
7287 11
7288 92
7289 54
7290 11
7291 37
7292 22
7293 61
7294 21
7295 117
7296 39
7297 90
7298 125
7299 23
7300 11
7301 2
7302 78
7303 110
7304 5
7305 14
7306 61
7307 76
7308 13
7309 51
7310 35
7311 112
7312 12
7313 28
7314 5
7315 24
7316 14
7317 56
7318 92
7319 43
7320 54
7321 103
7322 62
7323 11
7324 35
7325 8
7326 17
7327 30
7328 21
7329 61
7330 86
7331 24
7332 24
7333 23
7334 5
7335 67
7336 87
7337 92
7338 92
7339 8
7340 91
7341 86
7342 94
7343 113
7344 2
7345 104
7346 61
7347 25
7348 67
7349 14
7350 35
7351 65
7352 78
7353 23
7354 11
7355 104
7356 70
7357 11
7358 87
7359 85
7360 76
7361 67
7362 5
7363 55
7364 122
7365 23
7366 104
7367 45
7368 4
7369 23
7370 14
7371 35
7372 16
7373 38
7374 21
7375 61
7376 57
7377 17
7378 101
7379 32
7380 5
7381 35
7382 106
7383 13
7384 104
7385 17
7386 86
7387 23
7388 17
7389 106
7390 35
7391 30
7392 61
7393 76
7394 30
7395 2
7396 11
7397 23
7398 17
7399 67
7400 12
7401 120
7402 11
7403 127
7404 107
7405 11
7406 75
7407 102
7408 81
7409 24
7410 76
7411 28
7412 61
7413 59
7414 5
7415 42
7416 54
7417 70
7418 68
7419 93
7420 61
7421 14
7422 68
7423 21
7424 21
7425 33
7426 17
7427 35
7428 70
7429 81
7430 90
7431 43
7432 91
7433 55
7434 55
7435 27
7436 52
7437 27
7438 92
7439 112
7440 117
7441 17
7442 18
7443 35
7444 92
7445 16
7446 11
7447 94
7448 2
7449 8
7450 35
7451 5
7452 27
7453 35
7454 78
7455 35
7456 67
7457 84
7458 28
7459 95
7460 87
7461 100
7462 92
7463 61
7464 93
7465 28
7466 59
7467 108
7468 104
7469 2
7470 73
7471 5
7472 106
7473 25
7474 5
7475 92
7476 40
7477 11
7478 5
7479 21
7480 28
7481 93
7482 108
7483 54
7484 93
7485 70
7486 14
7487 62
7488 43
7489 34
7490 14
7491 18
7492 17
7493 39
7494 114
7495 5
7496 78
7497 129
7498 14
7499 73
7500 26
7501 17
7502 87
7503 10
7504 15
7505 92
7506 11
7507 23
7508 5
7509 2
7510 11
7511 108
7512 108
7513 74
7514 102
7515 16
7516 21
7517 119
7518 18
7519 17
7520 113
7521 76
7522 17
7523 2
7524 2
7525 109
7526 2
7527 58
7528 11
7529 108
7530 0
7531 9
7532 21
7533 61
7534 106
7535 74
7536 35
7537 10
7538 92
7539 58
7540 51
7541 38
7542 71
7543 103
7544 6
7545 103
7546 108
7547 67
7548 34
7549 71
7550 23
7551 25
7552 61
7553 125
7554 2
7555 6
7556 76
7557 43
7558 87
7559 17
7560 102
7561 93
7562 19
7563 17
7564 51
7565 98
7566 2
7567 112
7568 16
7569 35
7570 51
7571 102
7572 68
7573 61
7574 90
7575 50
7576 103
7577 50
7578 27
7579 36
7580 50
7581 51
7582 31
7583 68
7584 50
7585 50
7586 108
7587 5
7588 5
7589 32
7590 122
7591 17
7592 90
7593 110
7594 51
7595 76
7596 61
7597 35
7598 93
7599 37
7600 121
7601 65
7602 126
7603 79
7604 5
7605 0
7606 10
7607 123
7608 2
7609 21
7610 34
7611 50
7612 76
7613 130
7614 21
7615 2
7616 16
7617 2
7618 61
7619 92
7620 55
7621 12
7622 48
7623 11
7624 92
7625 20
7626 108
7627 92
7628 11
7629 5
7630 76
7631 17
7632 44
7633 61
7634 65
7635 35
7636 92
7637 90
7638 81
7639 31
7640 25
7641 61
7642 81
7643 6
7644 21
7645 11
7646 79
7647 93
7648 17
7649 18
7650 54
7651 81
7652 108
7653 79
7654 23
7655 129
7656 76
7657 21
7658 11
7659 68
7660 11
7661 68
7662 5
7663 48
7664 14
7665 17
7666 11
7667 71
7668 35
7669 74
7670 90
7671 85
7672 39
7673 35
7674 11
7675 86
7676 61
7677 48
7678 2
7679 29
7680 102
7681 19
7682 27
7683 48
7684 60
7685 6
7686 20
7687 55
7688 48
7689 21
7690 23
7691 11
7692 48
7693 2
7694 102
7695 50
7696 9
7697 35
7698 114
7699 88
7700 43
7701 51
7702 104
7703 2
7704 41
7705 27
7706 71
7707 59
7708 34
7709 31
7710 30
7711 92
7712 48
7713 87
7714 81
7715 33
7716 12
7717 1
7718 59
7719 11
7720 34
7721 60
7722 11
7723 8
7724 42
7725 52
7726 87
7727 5
7728 92
7729 42
7730 2
7731 2
7732 35
7733 11
7734 18
7735 34
7736 35
7737 81
7738 17
7739 127
7740 5
7741 11
7742 35
7743 108
7744 108
7745 92
7746 65
7747 21
7748 30
7749 108
7750 60
7751 48
7752 51
7753 28
7754 83
7755 42
7756 61
7757 28
7758 23
7759 18
7760 88
7761 5
7762 11
7763 92
7764 13
7765 65
7766 21
7767 67
7768 37
7769 54
7770 36
7771 47
7772 48
7773 23
7774 35
7775 59
7776 90
7777 23
7778 92
7779 103
7780 64
7781 91
7782 81
7783 61
7784 17
7785 2
7786 20
7787 5
7788 105
7789 5
7790 17
7791 74
7792 21
7793 4
7794 65
7795 11
7796 27
7797 26
7798 23
7799 55
7800 113
7801 104
7802 108
7803 92
7804 76
7805 31
7806 106
7807 19
7808 103
7809 35
7810 61
7811 115
7812 2
7813 104
7814 2
7815 81
7816 35
7817 61
7818 92
7819 23
7820 11
7821 92
7822 14
7823 67
7824 2
7825 81
7826 23
7827 13
7828 17
7829 124
7830 50
7831 78
7832 61
7833 60
7834 55
7835 25
7836 90
7837 2
7838 85
7839 2
7840 108
7841 92
7842 68
7843 58
7844 21
7845 78
7846 87
7847 54
7848 90
7849 120
7850 35
7851 108
7852 2
7853 34
7854 42
7855 61
7856 58
7857 35
7858 100
7859 68
7860 90
7861 60
7862 70
7863 86
7864 76
7865 25
7866 35
7867 89
7868 28
7869 68
7870 29
7871 23
7872 61
7873 70
7874 6
7875 87
7876 113
7877 14
7878 23
7879 51
7880 108
7881 93
7882 62
7883 90
7884 5
7885 8
7886 92
7887 87
7888 30
7889 108
7890 92
7891 60
7892 21
7893 41
7894 92
7895 24
7896 81
7897 92
7898 35
7899 27
7900 11
7901 35
7902 23
7903 112
7904 11
7905 89
7906 16
7907 92
7908 93
7909 68
7910 119
7911 61
7912 74
7913 11
7914 13
7915 5
7916 61
7917 35
7918 97
7919 102
7920 10
7921 11
7922 92
7923 108
7924 18
7925 76
7926 90
7927 128
7928 24
7929 43
7930 102
7931 68
7932 51
7933 50
7934 17
7935 76
7936 30
7937 59
7938 71
7939 11
7940 68
7941 35
7942 84
7943 18
7944 24
7945 18
7946 18
7947 69
7948 21
7949 61
7950 18
7951 61
7952 55
7953 2
7954 86
7955 92
7956 33
7957 5
7958 54
7959 2
7960 56
7961 2
7962 81
7963 48
7964 76
7965 102
7966 21
7967 11
7968 21
7969 65
7970 55
7971 108
7972 71
7973 55
7974 16
7975 59
7976 90
7977 23
7978 109
7979 81
7980 92
7981 57
7982 34
7983 68
7984 96
7985 23
7986 83
7987 68
7988 65
7989 48
7990 48
7991 11
7992 123
7993 5
7994 34
7995 90
7996 87
7997 37
7998 104
7999 65
8000 18
8001 27
8002 19
8003 76
8004 108
8005 108
8006 48
8007 11
8008 74
8009 32
8010 43
8011 36
8012 35
8013 2
8014 34
8015 28
8016 48
8017 11
8018 11
8019 30
8020 52
8021 118
8022 61
8023 67
8024 54
8025 92
8026 21
8027 65
8028 17
8029 21
8030 108
8031 113
8032 28
8033 57
8034 18
8035 48
8036 5
8037 24
8038 92
8039 48
8040 93
8041 65
8042 68
8043 90
8044 11
8045 58
8046 28
8047 5
8048 30
8049 5
8050 108
8051 54
8052 108
8053 90
8054 48
8055 35
8056 102
8057 76
8058 90
8059 61
8060 51
8061 59
8062 35
8063 55
8064 23
8065 78
8066 76
8067 61
8068 48
8069 5
8070 68
8071 23
8072 0
8073 48
8074 90
8075 65
8076 108
8077 58
8078 30
8079 21
8080 28
8081 101
8082 21
8083 85
8084 31
8085 24
8086 35
8087 68
8088 17
8089 31
8090 116
8091 61
8092 14
8093 109
8094 17
8095 6
8096 30
8097 6
8098 51
8099 65
8100 108
8101 75
8102 29
8103 76
8104 5
8105 5
8106 65
8107 108
8108 31
8109 11
8110 48
8111 93
8112 68
8113 5
8114 2
8115 74
8116 54
8117 108
8118 92
8119 30
8120 51
8121 90
8122 90
8123 90
8124 46
8125 68
8126 26
8127 94
8128 17
8129 6
8130 90
8131 95
8132 5
8133 67
8134 5
8135 11
8136 17
8137 77
8138 18
8139 30
8140 54
8141 81
8142 61
8143 68
8144 76
8145 55
8146 55
8147 65
8148 68
8149 87
8150 0
8151 56
8152 21
8153 60
8154 11
8155 74
8156 34
8157 60
8158 21
8159 81
8160 65
8161 48
8162 48
8163 61
8164 24
8165 5
8166 90
8167 11
8168 24
8169 33
8170 81
8171 87
8172 2
8173 90
8174 100
8175 42
8176 81
8177 90
8178 17
8179 70
8180 24
8181 24
8182 89
8183 51
8184 70
8185 61
8186 51
8187 55
8188 92
8189 90
8190 17
8191 11
8192 28
8193 39
8194 58
8195 74
8196 53
8197 122
8198 93
8199 93
8200 35
8201 24
8202 108
8203 11
8204 49
8205 70
8206 42
8207 31
8208 42
8209 58
8210 11
8211 89
8212 42
8213 54
8214 126
8215 0
8216 70
8217 41
8218 55
8219 58
8220 13
8221 68
8222 29
8223 24
8224 95
8225 11
8226 86
8227 16
8228 11
8229 93
8230 0
8231 51
8232 87
8233 90
8234 84
8235 93
8236 0
8237 74
8238 13
8239 2
8240 58
8241 48
8242 53
8243 0
8244 39
8245 17
8246 73
8247 73
8248 11
8249 41
8250 18
8251 40
8252 54
8253 11
8254 102
8255 124
8256 37
8257 42
8258 13
8259 31
8260 108
8261 18
8262 90
8263 48
8264 13
8265 54
8266 74
8267 88
8268 78
8269 62
8270 28
8271 30
8272 40
8273 22
8274 73
8275 18
8276 30
8277 42
8278 76
8279 4
8280 10
8281 64
8282 17
8283 81
8284 67
8285 24
8286 35
8287 104
8288 96
8289 57
8290 30
8291 50
8292 74
8293 52
8294 127
8295 2
8296 66
8297 96
8298 102
8299 65
8300 20
8301 96
8302 21
8303 68
8304 78
8305 103
8306 83
8307 8
8308 11
8309 32
8310 55
8311 116
8312 24
8313 40
8314 11
8315 81
8316 114
8317 11
8318 105
8319 104
8320 57
8321 24
8322 83
8323 32
8324 16
8325 11
8326 3
8327 79
8328 24
8329 28
8330 56
8331 104
8332 65
8333 55
8334 16
8335 30
8336 35
8337 62
8338 47
8339 65
8340 11
8341 79
8342 90
8343 14
8344 65
8345 85
8346 102
8347 110
8348 86
8349 28
8350 78
8351 87
8352 108
8353 67
8354 0
8355 7
8356 85
8357 11
8358 11
8359 51
8360 16
8361 14
8362 87
8363 24
8364 126
8365 67
8366 55
8367 130
8368 67
8369 67
8370 24
8371 24
8372 75
8373 108
8374 113
8375 110
8376 83
8377 24
8378 120
8379 87
8380 67
8381 78
8382 47
8383 104
8384 29
8385 65
8386 36
8387 28
8388 39
8389 24
8390 5
8391 34
8392 83
8393 121
8394 55
8395 86
8396 87
8397 40
8398 92
8399 89
8400 90
8401 30
8402 97
8403 83
8404 22
8405 24
8406 33
8407 2
8408 11
8409 116
8410 127
8411 104
8412 101
8413 11
8414 38
8415 57
8416 97
8417 92
8418 35
8419 11
8420 83
8421 2
8422 125
8423 18
8424 5
8425 50
8426 95
8427 57
8428 36
8429 104
8430 35
8431 63
8432 70
8433 65
8434 13
8435 46
8436 22
8437 79
8438 108
8439 54
8440 81
8441 72
8442 11
8443 69
8444 11
8445 28
8446 1
8447 92
8448 17
8449 14
8450 97
8451 121
8452 24
8453 57
8454 116
8455 90
8456 64
8457 54
8458 23
8459 84
8460 85
8461 21
8462 75
8463 84
8464 42
8465 32
8466 21
8467 11
8468 42
8469 29
8470 65
8471 75
8472 54
8473 23
8474 93
8475 11
8476 92
8477 11
8478 17
8479 2
8480 55
8481 122
8482 23
8483 54
8484 35
8485 93
8486 10
8487 51
8488 11
8489 19
8490 52
8491 92
8492 59
8493 42
8494 67
8495 23
8496 16
8497 26
8498 26
8499 67
8500 73
8501 43
8502 11
8503 122
8504 73
8505 90
8506 11
8507 127
8508 116
8509 19
8510 44
8511 105
8512 74
8513 108
8514 77
8515 11
8516 54
8517 56
8518 55
8519 98
8520 128
8521 89
8522 64
8523 11
8524 93
8525 5
8526 51
8527 34
8528 76
8529 11
8530 23
8531 35
8532 121
8533 78
8534 76
8535 110
8536 24
8537 42
8538 92
8539 44
8540 129
8541 34
8542 94
8543 74
8544 93
8545 67
8546 32
8547 86
8548 108
8549 11
8550 21
8551 51
8552 0
8553 76
8554 6
8555 97
8556 66
8557 83
8558 96
8559 23
8560 108
8561 18
8562 76
8563 11
8564 36
8565 23
8566 17
8567 59
8568 76
8569 110
8570 92
8571 44
8572 21
8573 44
8574 35
8575 76
8576 76
8577 21
8578 26
8579 54
8580 19
8581 104
8582 44
8583 40
8584 11
8585 30
8586 17
8587 108
8588 21
8589 77
8590 115
8591 97
8592 58
8593 21
8594 108
8595 124
8596 27
8597 16
8598 75
8599 11
8600 17
8601 42
8602 23
8603 5
8604 68
8605 92
8606 50
8607 119
8608 118
8609 51
8610 29
8611 125
8612 76
8613 51
8614 42
8615 70
8616 23
8617 118
8618 28
8619 76
8620 51
8621 63
8622 89
8623 5
8624 113
8625 92
8626 52
8627 16
8628 80
8629 17
8630 93
8631 58
8632 5
8633 31
8634 104
8635 17
8636 108
8637 86
8638 90
8639 75
8640 60
8641 108
8642 92
8643 91
8644 76
8645 5
8646 13
8647 13
8648 93
8649 23
8650 54
8651 51
8652 83
8653 68
8654 5
8655 29
8656 31
8657 23
8658 4
8659 70
8660 21
8661 51
8662 93
8663 21
8664 95
8665 61
8666 13
8667 31
8668 2
8669 76
8670 27
8671 9
8672 34
8673 93
8674 58
8675 108
8676 12
8677 127
8678 4
8679 83
8680 36
8681 2
8682 28
8683 48
8684 2
8685 60
8686 61
8687 28
8688 21
8689 2
8690 23
8691 11
8692 48
8693 68
8694 19
8695 23
8696 69
8697 92
8698 68
8699 5
8700 86
8701 58
8702 32
8703 5
8704 50
8705 79
8706 0
8707 48
8708 88
8709 20
8710 58
8711 20
8712 2
8713 66
8714 83
8715 39
8716 8
8717 11
8718 20
8719 92
8720 5
8721 66
8722 74
8723 55
8724 70
8725 55
8726 30
8727 51
8728 42
8729 39
8730 23
8731 127
8732 26
8733 1
8734 55
8735 108
8736 76
8737 76
8738 5
8739 30
8740 42
8741 31
8742 100
8743 92
8744 81
8745 18
8746 2
8747 28
8748 114
8749 48
8750 78
8751 2
8752 81
8753 6
8754 29
8755 116
8756 79
8757 106
8758 55
8759 19
8760 81
8761 84
8762 2
8763 70
8764 90
8765 90
8766 45
8767 21
8768 81
8769 2
8770 30
8771 21
8772 92
8773 5
8774 21
8775 102
8776 61
8777 64
8778 35
8779 46
8780 61
8781 30
8782 57
8783 22
8784 57
8785 26
8786 40
8787 28
8788 81
8789 115
8790 12
8791 52
8792 23
8793 17
8794 68
8795 55
8796 48
8797 83
8798 11
8799 57
8800 55
8801 65
8802 110
8803 114
8804 42
8805 97
8806 102
8807 3
8808 71
8809 17
8810 16
8811 21
8812 61
8813 90
8814 2
8815 5
8816 23
8817 2
8818 76
8819 69
8820 32
8821 36
8822 27
8823 21
8824 89
8825 37
8826 5
8827 61
8828 11
8829 17
8830 57
8831 111
8832 80
8833 67
8834 23
8835 51
8836 58
8837 21
8838 51
8839 2
8840 84
8841 5
8842 57
8843 39
8844 17
8845 43
8846 17
8847 16
8848 92
8849 33
8850 5
8851 21
8852 11
8853 5
8854 50
8855 11
8856 75
8857 110
8858 21
8859 28
8860 92
8861 92
8862 87
8863 21
8864 104
8865 5
8866 30
8867 92
8868 92
8869 68
8870 92
8871 17
8872 104
8873 2
8874 2
8875 61
8876 68
8877 94
8878 21
8879 21
8880 51
8881 92
8882 51
8883 5
8884 94
8885 87
8886 26
8887 90
8888 31
8889 11
8890 23
8891 21
8892 63
8893 87
8894 11
8895 93
8896 2
8897 2
8898 97
8899 10
8900 76
8901 17
8902 65
8903 6
8904 17
8905 28
8906 11
8907 51
8908 61
8909 111
8910 2
8911 94
8912 92
8913 14
8914 51
8915 12
8916 19
8917 15
8918 93
8919 114
8920 17
8921 90
8922 11
8923 78
8924 5
8925 32
8926 5
8927 23
8928 28
8929 76
8930 94
8931 36
8932 36
8933 18
8934 87
8935 92
8936 64
8937 23
8938 87
8939 68
8940 24
8941 42
8942 62
8943 23
8944 90
8945 23
8946 76
8947 57
8948 51
8949 21
8950 76
8951 52
8952 27
8953 19
8954 5
8955 27
8956 27
8957 81
8958 23
8959 24
8960 11
8961 61
8962 76
8963 76
8964 76
8965 11
8966 52
8967 21
8968 57
8969 23
8970 49
8971 17
8972 65
8973 107
8974 114
8975 83
8976 61
8977 78
8978 24
8979 2
8980 90
8981 23
8982 11
8983 71
8984 90
8985 55
8986 24
8987 2
8988 5
8989 35
8990 11
8991 108
8992 2
8993 35
8994 67
8995 35
8996 17
8997 61
8998 2
8999 11
9000 21
9001 90
9002 21
9003 30
9004 106
9005 48
9006 11
9007 84
9008 16
9009 11
9010 125
9011 29
9012 35
9013 35
9014 54
9015 11
9016 92
9017 51
9018 5
9019 48
9020 124
9021 89
9022 30
9023 35
9024 65
9025 68
9026 54
9027 65
9028 5
9029 111
9030 21
9031 51
9032 108
9033 90
9034 57
9035 35
9036 5
9037 92
9038 35
9039 11
9040 20
9041 27
9042 32
9043 104
9044 61
9045 68
9046 16
9047 21
9048 103
9049 58
9050 28
9051 35
9052 55
9053 90
9054 51
9055 18
9056 55
9057 61
9058 0
9059 58
9060 90
9061 92
9062 28
9063 36
9064 108
9065 71
9066 17
9067 28
9068 51
9069 51
9070 11
9071 60
9072 35
9073 51
9074 17
9075 48
9076 24
9077 74
9078 5
9079 102
9080 61
9081 76
9082 51
9083 104
9084 17
9085 76
9086 39
9087 74
9088 76
9089 31
9090 103
9091 17
9092 87
9093 61
9094 54
9095 21
9096 23
9097 11
9098 48
9099 30
9100 68
9101 48
9102 55
9103 51
9104 48
9105 11
9106 92
9107 90
9108 71
9109 108
9110 31
9111 75
9112 87
9113 24
9114 93
9115 68
9116 30
9117 42
9118 17
9119 24
9120 17
9121 68
9122 76
9123 39
9124 71
9125 50
9126 48
9127 92
9128 65
9129 108
9130 65
9131 90
9132 17
9133 105
9134 51
9135 33
9136 63
9137 24
9138 5
9139 24
9140 48
9141 92
9142 5
9143 87
9144 13
9145 99
9146 0
9147 70
9148 57
9149 60
9150 105
9151 70
9152 92
9153 18
9154 11
9155 108
9156 83
9157 76
9158 93
9159 23
9160 2
9161 75
9162 92
9163 21
9164 11
9165 70
9166 54
9167 35
9168 61
9169 61
9170 51
9171 81
9172 24
9173 35
9174 41
9175 76
9176 61
9177 121
9178 68
9179 68
9180 48
9181 90
9182 65
9183 68
9184 76
9185 17
9186 70
9187 90
9188 109
9189 54
9190 30
9191 108
9192 16
9193 17
9194 35
9195 35
9196 51
9197 2
9198 2
9199 25
9200 68
9201 49
9202 51
9203 96
9204 52
9205 21
9206 11
9207 75
9208 57
9209 28
9210 65
9211 97
9212 55
9213 31
9214 90
9215 21
9216 11
9217 70
9218 75
9219 2
9220 0
9221 70
9222 25
9223 58
9224 18
9225 55
9226 33
9227 97
9228 2
9229 102
9230 120
9231 26
9232 30
9233 2
9234 70
9235 28
9236 48
9237 98
9238 87
9239 54
9240 2
9241 43
9242 62
9243 24
9244 70
9245 60
9246 43
9247 68
9248 11
9249 2
9250 93
9251 30
9252 66
9253 92
9254 11
9255 35
9256 61
9257 11
9258 42
9259 10
9260 51
9261 122
9262 58
9263 2
9264 92
9265 61
9266 76
9267 111
9268 16
9269 5
9270 84
9271 58
9272 18
9273 46
9274 21
9275 51
9276 35
9277 98
9278 120
9279 18
9280 65
9281 99
9282 104
9283 105
9284 28
9285 28
9286 5
9287 24
9288 32
9289 92
9290 61
9291 65
9292 92
9293 21
9294 103
9295 28
9296 81
9297 13
9298 35
9299 24
9300 6
9301 82
9302 92
9303 65
9304 11
9305 60
9306 35
9307 128
9308 11
9309 19
9310 21
9311 66
9312 50
9313 37
9314 114
9315 103
9316 21
9317 51
9318 35
9319 2
9320 8
9321 61
9322 31
9323 78
9324 30
9325 60
9326 0
9327 17
9328 17
9329 26
9330 21
9331 106
9332 0
9333 67
9334 5
9335 74
9336 5
9337 130
9338 9
9339 14
9340 89
9341 48
9342 11
9343 78
9344 103
9345 104
9346 92
9347 89
9348 11
9349 5
9350 70
9351 127
9352 78
9353 123
9354 61
9355 9
9356 85
9357 6
9358 52
9359 9
9360 17
9361 37
9362 21
9363 11
9364 94
9365 25
9366 36
9367 74
9368 67
9369 5
9370 31
9371 11
9372 61
9373 26
9374 23
9375 17
9376 31
9377 26
9378 51
9379 60
9380 17
9381 21
9382 30
9383 16
9384 120
9385 45
9386 23
9387 16
9388 11
9389 56
9390 6
9391 61
9392 16
9393 5
9394 67
9395 89
9396 11
9397 61
9398 35
9399 51
9400 5
9401 104
9402 13
9403 26
9404 7
9405 93
9406 11
9407 11
9408 80
9409 5
9410 5
9411 28
9412 65
9413 32
9414 35
9415 35
9416 17
9417 11
9418 92
9419 5
9420 5
9421 32
9422 21
9423 18
9424 11
9425 17
9426 67
9427 50
9428 93
9429 86
9430 55
9431 57
9432 2
9433 70
9434 118
9435 96
9436 87
9437 35
9438 35
9439 75
9440 11
9441 87
9442 24
9443 55
9444 17
9445 107
9446 74
9447 116
9448 17
9449 35
9450 11
9451 17
9452 31
9453 9
9454 116
9455 27
9456 66
9457 35
9458 79
9459 61
9460 104
9461 28
9462 57
9463 61
9464 14
9465 52
9466 61
9467 11
9468 23
9469 17
9470 93
9471 23
9472 61
9473 87
9474 23
9475 23
9476 60
9477 114
9478 54
9479 61
9480 17
9481 21
9482 2
9483 61
9484 57
9485 42
9486 30
9487 21
9488 25
9489 11
9490 32
9491 8
9492 28
9493 90
9494 35
9495 30
9496 59
9497 2
9498 104
9499 5
9500 17
9501 49
9502 35
9503 33
9504 23
9505 29
9506 122
9507 5
9508 93
9509 11
9510 55
9511 11
9512 5
9513 23
9514 0
9515 23
9516 42
9517 27
9518 32
9519 76
9520 21
9521 20
9522 108
9523 11
9524 17
9525 93
9526 59
9527 27
9528 35
9529 5
9530 67
9531 130
9532 35
9533 53
9534 128
9535 2
9536 2
9537 104
9538 55
9539 16
9540 74
9541 11
9542 85
9543 89
9544 113
9545 61
9546 63
9547 56
9548 83
9549 36
9550 5
9551 21
9552 76
9553 76
9554 16
9555 92
9556 23
9557 76
9558 58
9559 21
9560 34
9561 27
9562 10
9563 51
9564 4
9565 74
9566 16
9567 67
9568 129
9569 26
9570 42
9571 21
9572 66
9573 82
9574 76
9575 5
9576 2
9577 19
9578 21
9579 107
9580 51
9581 120
9582 108
9583 78
9584 76
9585 51
9586 8
9587 67
9588 11
9589 58
9590 11
9591 0
9592 16
9593 2
9594 79
9595 27
9596 1
9597 58
9598 58
9599 5
9600 111
9601 51
9602 74
9603 39
9604 76
9605 108
9606 91
9607 90
9608 108
9609 62
9610 123
9611 61
9612 51
9613 44
9614 102
9615 130
9616 35
9617 79
9618 17
9619 90
9620 8
9621 21
9622 50
9623 21
9624 58
9625 11
9626 8
9627 51
9628 35
9629 11
9630 0
9631 11
9632 108
9633 17
9634 8
9635 92
9636 27
9637 11
9638 94
9639 71
9640 130
9641 102
9642 8
9643 90
9644 92
9645 59
9646 90
9647 61
9648 58
9649 76
9650 35
9651 78
9652 68
9653 75
9654 74
9655 21
9656 68
9657 61
9658 70
9659 90
9660 48
9661 23
9662 98
9663 9
9664 29
9665 5
9666 5
9667 90
9668 29
9669 23
9670 116
9671 97
9672 51
9673 76
9674 10
9675 76
9676 16
9677 35
9678 81
9679 21
9680 51
9681 90
9682 38
9683 57
9684 68
9685 5
9686 79
9687 11
9688 45
9689 34
9690 92
9691 48
9692 61
9693 108
9694 0
9695 68
9696 35
9697 76
9698 92
9699 29
9700 108
9701 92
9702 70
9703 48
9704 76
9705 107
9706 121
9707 50
9708 5
9709 109
9710 11
9711 55
9712 9
9713 21
9714 93
9715 48
9716 81
9717 10
9718 113
9719 102
9720 23
9721 23
9722 13
9723 6
9724 55
9725 41
9726 81
9727 31
9728 96
9729 39
9730 54
9731 106
9732 54
9733 123
9734 87
9735 20
9736 41
9737 84
9738 46
9739 48
9740 81
9741 17
9742 92
9743 35
9744 102
9745 26
9746 96
9747 11
9748 2
9749 18
9750 27
9751 2
9752 30
9753 108
9754 60
9755 42
9756 11
9757 55
9758 58
9759 60
9760 50
9761 39
9762 6
9763 43
9764 18
9765 98
9766 61
9767 18
9768 92
9769 92
9770 11
9771 73
9772 92
9773 20
9774 8
9775 13
9776 42
9777 61
9778 54
9779 23
9780 18
9781 76
9782 11
9783 61
9784 49
9785 79
9786 5
9787 5
9788 80
9789 30
9790 31
9791 73
9792 11
9793 30
9794 55
9795 48
9796 90
9797 5
9798 23
9799 69
9800 42
9801 17
9802 35
9803 92
9804 11
9805 114
9806 2
9807 61
9808 23
9809 116
9810 96
9811 35
9812 60
9813 76
9814 63
9815 2
9816 102
9817 104
9818 28
9819 96
9820 17
9821 48
9822 50
9823 102
9824 42
9825 23
9826 114
9827 92
9828 78
9829 21
9830 56
9831 36
9832 35
9833 107
9834 114
9835 2
9836 103
9837 92
9838 67
9839 55
9840 5
9841 76
9842 17
9843 17
9844 51
9845 62
9846 35
9847 54
9848 23
9849 104
9850 48
9851 107
9852 51
9853 92
9854 108
9855 61
9856 78
9857 103
9858 89
9859 37
9860 28
9861 57
9862 21
9863 35
9864 77
9865 122
9866 48
9867 21
9868 79
9869 25
9870 31
9871 108
9872 74
9873 55
9874 21
9875 26
9876 102
9877 66
9878 65
9879 23
9880 51
9881 5
9882 90
9883 68
9884 92
9885 37
9886 68
9887 108
9888 108
9889 11
9890 68
9891 58
9892 11
9893 17
9894 68
9895 5
9896 28
9897 87
9898 90
9899 11
9900 76
9901 90
9902 90
9903 83
9904 23
9905 11
9906 89
9907 16
9908 76
9909 51
9910 76
9911 89
9912 5
9913 51
9914 57
9915 11
9916 35
9917 68
9918 68
9919 90
9920 53
9921 83
9922 35
9923 33
9924 108
9925 110
9926 35
9927 47
9928 68
9929 61
9930 110
9931 10
9932 5
9933 4
9934 90
9935 65
9936 89
9937 5
9938 63
9939 76
9940 42
9941 0
9942 11
9943 35
9944 21
9945 32
9946 11
9947 68
9948 11
9949 48
9950 21
9951 17
9952 61
9953 51
9954 68
9955 27
9956 30
9957 11
9958 9
9959 2
9960 83
9961 23
9962 108
9963 76
9964 78
9965 108
9966 62
9967 68
9968 11
9969 108
9970 21
9971 108
9972 16
9973 9
9974 51
9975 113
9976 27
9977 16
9978 61
9979 108
9980 2
9981 11
9982 12
9983 38
9984 51
9985 78
9986 78
9987 17
9988 19
9989 108
9990 23
9991 25
9992 42
9993 75
9994 55
9995 23
9996 18
9997 35
9998 92
9999 18
