0 0
1 1
2 2
3 3
4 4
5 5
6 6
7 7
8 8
9 9
10 8
11 10
12 11
13 0
14 12
15 13
16 14
17 15
18 16
19 17
20 18
21 8
22 19
23 20
24 21
25 22
26 23
27 24
28 25
29 26
30 6
31 27
32 28
33 29
34 16
35 30
36 31
37 13
38 0
39 31
40 32
41 33
42 34
43 35
44 5
45 36
46 37
47 38
48 21
49 28
50 39
51 40
52 11
53 41
54 0
55 42
56 43
57 44
58 45
59 0
60 46
61 47
62 34
63 48
64 49
65 20
66 3
67 50
68 51
69 52
70 53
71 54
72 40
73 4
74 51
75 55
76 56
77 41
78 57
79 31
80 58
81 35
82 52
83 52
84 59
85 41
86 56
87 60
88 61
89 2
90 34
91 50
92 38
93 62
94 63
95 42
96 13
97 62
98 64
99 30
100 65
101 66
102 67
103 67
104 24
105 68
106 69
107 2
108 46
109 64
110 21
111 70
112 58
113 12
114 61
115 65
116 0
117 66
118 69
119 50
120 35
121 50
122 50
123 71
124 72
125 73
126 42
127 5
128 67
129 70
130 19
131 24
132 74
133 32
134 57
135 75
136 6
137 76
138 16
139 36
140 77
141 77
142 73
143 11
144 22
145 11
146 11
147 13
148 78
149 69
150 55
151 79
152 80
153 24
154 37
155 76
156 16
157 25
158 25
159 81
160 14
161 82
162 13
163 18
164 81
165 57
166 83
167 84
168 75
169 85
170 42
171 31
172 86
173 81
174 87
175 88
176 10
177 24
178 84
179 14
180 17
181 13
182 30
183 40
184 89
185 11
186 70
187 69
188 77
189 90
190 49
191 14
192 64
193 51
194 69
195 85
196 42
197 81
198 79
199 91
200 11
201 85
202 66
203 24
204 78
205 42
206 92
207 6
208 10
209 93
210 67
211 86
212 86
213 32
214 94
215 93
216 23
217 26
218 30
219 83
220 78
221 94
222 25
223 78
224 28
225 24
226 29
227 93
228 27
229 27
230 95
231 96
232 62
233 97
234 73
235 29
236 37
237 29
238 98
239 34
240 96
241 88
242 11
243 83
244 72
245 25
246 60
247 99
248 66
249 65
250 60
251 100
252 49
253 86
254 99
255 98
256 11
257 64
258 13
259 66
260 32
261 54
262 66
263 24
264 2
265 101
266 21
267 59
268 102
269 94
270 88
271 93
272 75
273 33
274 24
275 86
276 102
277 21
278 96
279 96
280 103
281 17
282 57
283 90
284 18
285 72
286 72
287 102
288 72
289 85
290 86
291 50
292 54
293 64
294 104
295 74
296 51
297 11
298 59
299 54
300 27
301 67
302 48
303 54
304 88
305 17
306 66
307 4
308 17
309 91
310 10
311 71
312 73
313 93
314 14
315 94
316 23
317 105
318 38
319 18
320 66
321 103
322 14
323 43
324 64
325 86
326 42
327 70
328 106
329 59
330 61
331 88
332 102
333 42
334 22
335 66
336 21
337 11
338 20
339 73
340 61
341 41
342 74
343 18
344 55
345 74
346 58
347 16
348 35
349 102
350 11
351 57
352 74
353 37
354 93
355 42
356 18
357 44
358 54
359 82
360 21
361 74
362 70
363 56
364 18
365 11
366 32
367 21
368 102
369 53
370 107
371 100
372 14
373 100
374 23
375 107
376 59
377 108
378 93
379 93
380 46
381 54
382 61
383 58
384 108
385 54
386 17
387 102
388 59
389 104
390 19
391 93
392 109
393 88
394 6
395 40
396 57
397 54
398 58
399 67
400 94
401 17
402 37
403 110
404 35
405 111
406 54
407 66
408 112
409 30
410 88
411 74
412 76
413 36
414 102
415 33
416 33
417 34
418 18
419 74
420 33
421 1
422 17
423 85
424 93
425 14
426 11
427 6
428 105
429 26
430 94
431 11
432 26
433 73
434 75
435 97
436 26
437 33
438 23
439 67
440 85
441 73
442 91
443 74
444 91
445 105
446 67
447 73
448 62
449 103
450 103
451 13
452 4
453 67
454 88
455 94
456 108
457 0
458 37
459 6
460 73
461 21
462 11
463 93
464 16
465 15
466 41
467 26
468 21
469 0
470 13
471 31
472 2
473 81
474 33
475 2
476 50
477 41
478 91
479 94
480 97
481 40
482 65
483 81
484 94
485 67
486 41
487 94
488 11
489 12
490 58
491 2
492 41
493 69
494 113
495 23
496 67
497 108
498 69
499 93
500 17
501 50
502 76
503 23
504 102
505 2
506 114
507 74
508 64
509 51
510 2
511 70
512 4
513 11
514 11
515 89
516 13
517 74
518 46
519 74
520 81
521 33
522 51
523 91
524 74
525 2
526 86
527 60
528 11
529 49
530 76
531 91
532 104
533 88
534 37
535 28
536 31
537 46
538 103
539 28
540 93
541 28
542 45
543 42
544 6
545 10
546 0
547 67
548 81
549 39
550 84
551 17
552 67
553 75
554 67
555 12
556 113
557 2
558 46
559 28
560 2
561 91
562 49
563 52
564 2
565 100
566 50
567 52
568 60
569 33
570 19
571 29
572 32
573 41
574 110
575 93
576 34
577 114
578 115
579 59
580 56
581 102
582 23
583 55
584 36
585 108
586 41
587 5
588 85
589 61
590 73
591 2
592 11
593 72
594 60
595 14
596 3
597 66
598 30
599 116
600 93
601 110
602 71
603 101
604 40
605 117
606 66
607 56
608 118
609 41
610 66
611 110
612 26
613 66
614 51
615 42
616 21
617 23
618 17
619 119
620 10
621 74
622 17
623 103
624 57
625 81
626 30
627 21
628 46
629 58
630 29
631 60
632 32
633 91
634 90
635 13
636 120
637 78
638 81
639 51
640 76
641 13
642 74
643 17
644 88
645 43
646 34
647 30
648 14
649 78
650 2
651 104
652 21
653 30
654 74
655 23
656 104
657 102
658 17
659 31
660 51
661 32
662 77
663 16
664 78
665 75
666 120
667 74
668 67
669 74
670 3
671 74
672 58
673 2
674 121
675 21
676 36
677 108
678 41
679 11
680 62
681 49
682 33
683 88
684 1
685 21
686 88
687 78
688 84
689 16
690 2
691 32
692 30
693 91
694 74
695 14
696 13
697 47
698 76
699 77
700 8
701 103
702 46
703 88
704 100
705 66
706 67
707 37
708 14
709 66
710 104
711 0
712 90
713 2
714 108
715 60
716 17
717 93
718 88
719 22
720 66
721 76
722 96
723 2
724 105
725 73
726 68
727 88
728 17
729 12
730 108
731 64
732 27
733 17
734 120
735 1
736 66
737 88
738 2
739 119
740 91
741 108
742 10
743 88
744 62
745 98
746 32
747 5
748 35
749 41
750 0
751 65
752 67
753 41
754 91
755 18
756 35
757 96
758 77
759 2
760 60
761 102
762 91
763 90
764 60
765 35
766 14
767 30
768 60
769 92
770 33
771 97
772 93
773 67
774 91
775 83
776 3
777 5
778 41
779 65
780 12
781 51
782 28
783 93
784 59
785 94
786 108
787 51
788 6
789 17
790 27
791 54
792 60
793 122
794 96
795 10
796 104
797 54
798 27
799 16
800 21
801 54
802 21
803 80
804 23
805 23
806 58
807 2
808 94
809 74
810 91
811 51
812 93
813 5
814 108
815 32
816 28
817 74
818 111
819 94
820 49
821 35
822 78
823 35
824 46
825 73
826 54
827 11
828 19
829 16
830 40
831 93
832 81
833 5
834 25
835 11
836 91
837 123
838 11
839 90
840 55
841 76
842 119
843 30
844 36
845 49
846 67
847 44
848 72
849 4
850 19
851 57
852 34
853 12
854 109
855 27
856 91
857 64
858 121
859 30
860 11
861 43
862 88
863 104
864 60
865 30
866 18
867 91
868 93
869 49
870 109
871 76
872 66
873 16
874 93
875 76
876 91
877 21
878 52
879 66
880 24
881 91
882 4
883 34
884 18
885 2
886 72
887 18
888 94
889 16
890 64
891 111
892 67
893 85
894 60
895 2
896 64
897 74
898 54
899 108
900 11
901 6
902 106
903 25
904 39
905 103
906 66
907 2
908 64
909 54
910 122
911 7
912 58
913 81
914 51
915 108
916 104
917 60
918 48
919 91
920 2
921 28
922 21
923 108
924 89
925 59
926 5
927 56
928 57
929 100
930 110
931 26
932 60
933 81
934 29
935 25
936 21
937 78
938 108
939 5
940 123
941 24
942 5
943 60
944 30
945 5
946 70
947 86
948 11
949 28
950 108
951 35
952 54
953 63
954 62
955 21
956 91
957 93
958 93
959 79
960 17
961 81
962 93
963 50
964 30
965 74
966 81
967 88
968 11
969 76
970 104
971 49
972 42
973 0
974 74
975 11
976 47
977 16
978 5
979 96
980 0
981 64
982 21
983 94
984 74
985 90
986 27
987 21
988 73
989 73
990 27
991 104
992 24
993 28
994 67
995 5
996 91
997 26
998 91
999 11
1000 5
1001 60
1002 29
1003 116
1004 42
1005 75
1006 124
1007 64
1008 11
1009 41
1010 17
1011 96
1012 18
1013 108
1014 6
1015 120
1016 112
1017 74
1018 52
1019 5
1020 73
1021 90
1022 54
1023 83
1024 51
1025 30
1026 99
1027 108
1028 78
1029 51
1030 41
1031 76
1032 64
1033 42
1034 51
1035 90
1036 67
1037 116
1038 24
1039 67
1040 93
1041 19
1042 2
1043 6
1044 0
1045 93
1046 24
1047 24
1048 13
1049 97
1050 46
1051 64
1052 96
1053 41
1054 67
1055 30
1056 59
1057 109
1058 19
1059 58
1060 20
1061 48
1062 121
1063 74
1064 13
1065 41
1066 37
1067 60
1068 11
1069 64
1070 93
1071 58
1072 31
1073 67
1074 18
1075 65
1076 28
1077 69
1078 123
1079 88
1080 3
1081 11
1082 113
1083 24
1084 118
1085 29
1086 105
1087 4
1088 43
1089 47
1090 87
1091 60
1092 23
1093 103
1094 14
1095 42
1096 54
1097 38
1098 21
1099 2
1100 37
1101 43
1102 49
1103 42
1104 81
1105 124
1106 93
1107 24
1108 66
1109 91
1110 55
1111 11
1112 19
1113 76
1114 0
1115 81
1116 49
1117 17
1118 93
1119 23
1120 66
1121 51
1122 93
1123 65
1124 42
1125 57
1126 17
1127 105
1128 64
1129 27
1130 23
1131 35
1132 93
1133 66
1134 32
1135 37
1136 24
1137 5
1138 11
1139 56
1140 81
1141 2
1142 21
1143 27
1144 31
1145 2
1146 60
1147 21
1148 2
1149 96
1150 28
1151 24
1152 6
1153 101
1154 78
1155 93
1156 89
1157 93
1158 81
1159 46
1160 46
1161 50
1162 37
1163 32
1164 2
1165 74
1166 11
1167 86
1168 74
1169 66
1170 28
1171 17
1172 97
1173 33
1174 51
1175 8
1176 14
1177 66
1178 67
1179 16
1180 104
1181 75
1182 61
1183 79
1184 81
1185 11
1186 23
1187 11
1188 16
1189 2
1190 48
1191 30
1192 67
1193 110
1194 16
1195 35
1196 21
1197 27
1198 42
1199 99
1200 17
1201 33
1202 88
1203 79
1204 61
1205 24
1206 86
1207 104
1208 110
1209 90
1210 21
1211 13
1212 86
1213 29
1214 30
1215 47
1216 2
1217 35
1218 90
1219 81
1220 95
1221 94
1222 5
1223 64
1224 4
1225 97
1226 42
1227 73
1228 94
1229 60
1230 88
1231 11
1232 41
1233 18
1234 18
1235 67
1236 17
1237 35
1238 83
1239 75
1240 44
1241 51
1242 4
1243 5
1244 21
1245 18
1246 23
1247 88
1248 29
1249 81
1250 60
1251 93
1252 62
1253 72
1254 10
1255 23
1256 41
1257 78
1258 97
1259 11
1260 94
1261 50
1262 31
1263 78
1264 11
1265 62
1266 5
1267 94
1268 38
1269 28
1270 78
1271 47
1272 5
1273 28
1274 86
1275 66
1276 17
1277 5
1278 5
1279 18
1280 18
1281 68
1282 93
1283 39
1284 60
1285 17
1286 19
1287 49
1288 8
1289 94
1290 18
1291 28
1292 124
1293 38
1294 19
1295 109
1296 104
1297 21
1298 86
1299 102
1300 90
1301 94
1302 60
1303 11
1304 95
1305 91
1306 100
1307 108
1308 11
1309 24
1310 59
1311 46
1312 60
1313 32
1314 34
1315 93
1316 125
1317 34
1318 21
1319 102
1320 72
1321 66
1322 112
1323 29
1324 108
1325 122
1326 17
1327 108
1328 88
1329 93
1330 23
1331 78
1332 27
1333 70
1334 90
1335 21
1336 60
1337 73
1338 5
1339 108
1340 108
1341 83
1342 94
1343 1
1344 108
1345 4
1346 102
1347 122
1348 32
1349 12
1350 78
1351 17
1352 76
1353 2
1354 60
1355 78
1356 64
1357 124
1358 108
1359 11
1360 27
1361 93
1362 27
1363 26
1364 57
1365 76
1366 81
1367 59
1368 93
1369 21
1370 50
1371 78
1372 108
1373 60
1374 16
1375 21
1376 0
1377 36
1378 86
1379 76
1380 108
1381 73
1382 16
1383 21
1384 5
1385 58
1386 74
1387 124
1388 60
1389 102
1390 17
1391 126
1392 41
1393 110
1394 2
1395 27
1396 0
1397 25
1398 56
1399 2
1400 73
1401 54
1402 9
1403 84
1404 51
1405 86
1406 31
1407 60
1408 104
1409 0
1410 96
1411 17
1412 11
1413 89
1414 40
1415 86
1416 74
1417 42
1418 110
1419 25
1420 96
1421 64
1422 27
1423 94
1424 31
1425 18
1426 115
1427 35
1428 55
1429 27
1430 91
1431 91
1432 11
1433 31
1434 102
1435 21
1436 33
1437 26
1438 42
1439 90
1440 0
1441 89
1442 60
1443 29
1444 74
1445 23
1446 21
1447 69
1448 10
1449 5
1450 88
1451 17
1452 76
1453 35
1454 2
1455 102
1456 102
1457 23
1458 53
1459 27
1460 33
1461 64
1462 94
1463 93
1464 54
1465 66
1466 18
1467 89
1468 73
1469 8
1470 21
1471 11
1472 88
1473 33
1474 93
1475 56
1476 33
1477 35
1478 14
1479 5
1480 76
1481 70
1482 78
1483 126
1484 75
1485 35
1486 60
1487 81
1488 11
1489 116
1490 108
1491 21
1492 60
1493 11
1494 14
1495 85
1496 46
1497 91
1498 41
1499 8
1500 51
1501 26
1502 115
1503 102
1504 88
1505 49
1506 7
1507 97
1508 108
1509 2
1510 119
1511 21
1512 76
1513 104
1514 63
1515 35
1516 35
1517 111
1518 91
1519 93
1520 108
1521 23
1522 18
1523 69
1524 76
1525 108
1526 66
1527 97
1528 11
1529 67
1530 17
1531 51
1532 81
1533 86
1534 120
1535 52
1536 34
1537 80
1538 5
1539 18
1540 27
1541 81
1542 28
1543 29
1544 113
1545 81
1546 60
1547 86
1548 93
1549 12
1550 75
1551 42
1552 106
1553 11
1554 58
1555 108
1556 46
1557 26
1558 42
1559 41
1560 2
1561 43
1562 58
1563 43
1564 93
1565 67
1566 88
1567 3
1568 26
1569 0
1570 54
1571 67
1572 108
1573 113
1574 17
1575 83
1576 46
1577 49
1578 46
1579 31
1580 37
1581 93
1582 28
1583 35
1584 28
1585 51
1586 62
1587 5
1588 3
1589 49
1590 60
1591 0
1592 11
1593 35
1594 6
1595 90
1596 81
1597 74
1598 2
1599 51
1600 58
1601 61
1602 60
1603 51
1604 91
1605 23
1606 10
1607 11
1608 18
1609 41
1610 88
1611 93
1612 11
1613 17
1614 92
1615 78
1616 48
1617 5
1618 17
1619 127
1620 31
1621 51
1622 81
1623 11
1624 64
1625 102
1626 81
1627 60
1628 51
1629 5
1630 11
1631 19
1632 65
1633 54
1634 84
1635 41
1636 23
1637 128
1638 10
1639 0
1640 69
1641 57
1642 35
1643 93
1644 18
1645 106
1646 114
1647 11
1648 93
1649 81
1650 43
1651 79
1652 39
1653 5
1654 65
1655 97
1656 60
1657 35
1658 48
1659 31
1660 21
1661 37
1662 117
1663 21
1664 54
1665 5
1666 76
1667 37
1668 90
1669 23
1670 9
1671 61
1672 58
1673 3
1674 78
1675 20
1676 34
1677 74
1678 104
1679 16
1680 20
1681 2
1682 60
1683 35
1684 67
1685 104
1686 11
1687 50
1688 101
1689 23
1690 88
1691 77
1692 3
1693 2
1694 104
1695 31
1696 11
1697 52
1698 17
1699 35
1700 2
1701 52
1702 42
1703 30
1704 67
1705 93
1706 60
1707 67
1708 33
1709 60
1710 93
1711 11
1712 104
1713 74
1714 104
1715 21
1716 50
1717 64
1718 78
1719 12
1720 97
1721 0
1722 17
1723 0
1724 91
1725 2
1726 23
1727 91
1728 21
1729 5
1730 11
1731 38
1732 11
1733 6
1734 64
1735 10
1736 93
1737 104
1738 97
1739 66
1740 35
1741 64
1742 42
1743 81
1744 86
1745 58
1746 66
1747 67
1748 91
1749 67
1750 11
1751 93
1752 83
1753 18
1754 23
1755 1
1756 11
1757 67
1758 94
1759 11
1760 23
1761 60
1762 17
1763 21
1764 104
1765 104
1766 69
1767 98
1768 49
1769 11
1770 97
1771 125
1772 104
1773 28
1774 86
1775 60
1776 16
1777 108
1778 2
1779 93
1780 99
1781 52
1782 18
1783 60
1784 35
1785 39
1786 70
1787 43
1788 108
1789 67
1790 35
1791 64
1792 5
1793 76
1794 54
1795 42
1796 21
1797 78
1798 93
1799 93
1800 30
1801 104
1802 18
1803 108
1804 19
1805 35
1806 26
1807 49
1808 11
1809 75
1810 11
1811 66
1812 2
1813 122
1814 28
1815 14
1816 91
1817 1
1818 12
1819 93
1820 60
1821 94
1822 108
1823 35
1824 67
1825 11
1826 35
1827 34
1828 104
1829 11
1830 18
1831 8
1832 30
1833 78
1834 49
1835 76
1836 91
1837 78
1838 23
1839 35
1840 99
1841 80
1842 27
1843 96
1844 127
1845 30
1846 49
1847 27
1848 2
1849 18
1850 73
1851 93
1852 11
1853 11
1854 60
1855 49
1856 23
1857 34
1858 8
1859 17
1860 7
1861 94
1862 57
1863 23
1864 2
1865 74
1866 113
1867 14
1868 21
1869 2
1870 102
1871 30
1872 16
1873 55
1874 51
1875 91
1876 2
1877 91
1878 51
1879 83
1880 35
1881 17
1882 74
1883 35
1884 15
1885 91
1886 21
1887 11
1888 67
1889 28
1890 102
1891 90
1892 87
1893 21
1894 49
1895 35
1896 3
1897 108
1898 11
1899 62
1900 23
1901 54
1902 54
1903 16
1904 11
1905 35
1906 28
1907 91
1908 16
1909 20
1910 74
1911 32
1912 76
1913 70
1914 36
1915 55
1916 108
1917 125
1918 23
1919 60
1920 93
1921 6
1922 93
1923 30
1924 11
1925 88
1926 66
1927 31
1928 81
1929 107
1930 5
1931 54
1932 88
1933 11
1934 35
1935 30
1936 93
1937 60
1938 108
1939 24
1940 73
1941 23
1942 54
1943 108
1944 76
1945 108
1946 23
1947 23
1948 91
1949 74
1950 102
1951 37
1952 49
1953 29
1954 49
1955 102
1956 108
1957 91
1958 108
1959 17
1960 75
1961 51
1962 64
1963 81
1964 108
1965 21
1966 56
1967 23
1968 64
1969 51
1970 76
1971 93
1972 102
1973 95
1974 35
1975 76
1976 23
1977 123
1978 74
1979 34
1980 108
1981 73
1982 59
1983 76
1984 30
1985 21
1986 49
1987 13
1988 68
1989 21
1990 93
1991 104
1992 93
1993 81
1994 51
1995 97
1996 54
1997 93
1998 28
1999 111
2000 81
2001 13
2002 30
2003 81
2004 11
2005 102
2006 44
2007 41
2008 91
2009 29
2010 79
2011 23
2012 116
2013 64
2014 5
2015 46
2016 11
2017 67
2018 41
2019 74
2020 28
2021 2
2022 13
2023 35
2024 96
2025 5
2026 76
2027 67
2028 74
2029 96
2030 62
2031 11
2032 28
2033 17
2034 51
2035 108
2036 31
2037 2
2038 81
2039 49
2040 51
2041 0
2042 108
2043 17
2044 2
2045 2
2046 52
2047 16
2048 88
2049 41
2050 60
2051 76
2052 0
2053 28
2054 49
2055 91
2056 72
2057 78
2058 88
2059 129
2060 49
2061 43
2062 116
2063 18
2064 88
2065 23
2066 108
2067 90
2068 48
2069 104
2070 51
2071 81
2072 59
2073 70
2074 24
2075 43
2076 41
2077 76
2078 24
2079 100
2080 102
2081 62
2082 13
2083 81
2084 24
2085 18
2086 91
2087 59
2088 81
2089 17
2090 63
2091 42
2092 72
2093 100
2094 49
2095 49
2096 35
2097 73
2098 5
2099 65
2100 84
2101 11
2102 72
2103 29
2104 20
2105 67
2106 124
2107 130
2108 49
2109 67
2110 87
2111 28
2112 30
2113 61
2114 44
2115 57
2116 64
2117 13
2118 13
2119 64
2120 78
2121 55
2122 64
2123 30
2124 103
2125 1
2126 68
2127 35
2128 97
2129 17
2130 64
2131 26
2132 74
2133 111
2134 42
2135 1
2136 36
2137 103
2138 123
2139 125
2140 36
2141 28
2142 30
2143 24
2144 74
2145 40
2146 106
2147 13
2148 107
2149 49
2150 31
2151 34
2152 57
2153 78
2154 66
2155 57
2156 11
2157 109
2158 88
2159 67
2160 37
2161 64
2162 47
2163 94
2164 10
2165 79
2166 36
2167 67
2168 108
2169 0
2170 51
2171 108
2172 37
2173 103
2174 24
2175 42
2176 77
2177 66
2178 11
2179 98
2180 41
2181 124
2182 11
2183 50
2184 36
2185 66
2186 101
2187 125
2188 2
2189 64
2190 108
2191 30
2192 3
2193 49
2194 104
2195 49
2196 88
2197 89
2198 14
2199 90
2200 66
2201 89
2202 16
2203 46
2204 66
2205 20
2206 2
2207 6
2208 90
2209 66
2210 66
2211 8
2212 104
2213 84
2214 87
2215 50
2216 103
2217 65
2218 2
2219 5
2220 69
2221 43
2222 98
2223 46
2224 16
2225 6
2226 77
2227 20
2228 91
2229 60
2230 41
2231 10
2232 81
2233 11
2234 46
2235 90
2236 60
2237 70
2238 106
2239 64
2240 32
2241 105
2242 32
2243 78
2244 47
2245 86
2246 119
2247 41
2248 115
2249 80
2250 16
2251 16
2252 110
2253 59
2254 114
2255 123
2256 44
2257 83
2258 86
2259 104
2260 94
2261 78
2262 93
2263 80
2264 11
2265 18
2266 41
2267 90
2268 121
2269 12
2270 9
2271 61
2272 78
2273 8
2274 14
2275 88
2276 108
2277 49
2278 74
2279 64
2280 92
2281 25
2282 27
2283 85
2284 29
2285 107
2286 93
2287 99
2288 46
2289 103
2290 104
2291 96
2292 2
2293 26
2294 93
2295 46
2296 37
2297 75
2298 113
2299 29
2300 9
2301 27
2302 54
2303 71
2304 26
2305 66
2306 48
2307 62
2308 24
2309 9
2310 3
2311 122
2312 11
2313 25
2314 79
2315 129
2316 21
2317 11
2318 35
2319 64
2320 120
2321 46
2322 72
2323 113
2324 46
2325 113
2326 78
2327 21
2328 31
2329 86
2330 96
2331 35
2332 126
2333 79
2334 27
2335 32
2336 108
2337 128
2338 77
2339 88
2340 70
2341 104
2342 87
2343 31
2344 51
2345 21
2346 11
2347 19
2348 14
2349 18
2350 9
2351 43
2352 104
2353 113
2354 104
2355 61
2356 17
2357 83
2358 23
2359 17
2360 46
2361 34
2362 67
2363 104
2364 94
2365 111
2366 27
2367 4
2368 86
2369 102
2370 33
2371 17
2372 76
2373 55
2374 18
2375 96
2376 45
2377 17
2378 31
2379 14
2380 56
2381 73
2382 74
2383 117
2384 11
2385 88
2386 73
2387 62
2388 11
2389 37
2390 50
2391 93
2392 113
2393 94
2394 23
2395 23
2396 125
2397 23
2398 108
2399 0
2400 92
2401 59
2402 93
2403 58
2404 17
2405 17
2406 106
2407 23
2408 93
2409 19
2410 11
2411 32
2412 23
2413 104
2414 29
2415 64
2416 78
2417 77
2418 11
2419 108
2420 21
2421 119
2422 61
2423 117
2424 6
2425 23
2426 10
2427 55
2428 34
2429 73
2430 108
2431 3
2432 23
2433 11
2434 79
2435 74
2436 113
2437 68
2438 38
2439 20
2440 112
2441 16
2442 112
2443 64
2444 91
2445 0
2446 17
2447 93
2448 54
2449 57
2450 30
2451 0
2452 31
2453 21
2454 18
2455 78
2456 68
2457 86
2458 11
2459 5
2460 66
2461 23
2462 45
2463 11
2464 77
2465 108
2466 33
2467 78
2468 83
2469 16
2470 29
2471 54
2472 26
2473 110
2474 35
2475 97
2476 104
2477 79
2478 34
2479 23
2480 26
2481 106
2482 79
2483 91
2484 60
2485 31
2486 128
2487 25
2488 11
2489 67
2490 108
2491 88
2492 17
2493 91
2494 81
2495 67
2496 25
2497 108
2498 11
2499 21
2500 2
2501 27
2502 20
2503 11
2504 50
2505 108
2506 108
2507 81
2508 57
2509 38
2510 0
2511 89
2512 89
2513 83
2514 51
2515 79
2516 27
2517 78
2518 88
2519 83
2520 67
2521 67
2522 50
2523 23
2524 5
2525 0
2526 74
2527 64
2528 66
2529 7
2530 0
2531 28
2532 6
2533 51
2534 49
2535 74
2536 2
2537 13
2538 2
2539 28
2540 108
2541 9
2542 11
2543 11
2544 79
2545 100
2546 88
2547 76
2548 49
2549 27
2550 67
2551 74
2552 21
2553 53
2554 12
2555 49
2556 2
2557 94
2558 60
2559 42
2560 113
2561 31
2562 83
2563 100
2564 81
2565 27
2566 102
2567 85
2568 58
2569 73
2570 54
2571 67
2572 11
2573 58
2574 125
2575 10
2576 51
2577 78
2578 88
2579 4
2580 102
2581 23
2582 11
2583 41
2584 61
2585 88
2586 49
2587 80
2588 16
2589 91
2590 5
2591 2
2592 49
2593 8
2594 11
2595 2
2596 33
2597 75
2598 29
2599 51
2600 94
2601 72
2602 81
2603 29
2604 0
2605 3
2606 12
2607 49
2608 81
2609 5
2610 85
2611 42
2612 85
2613 30
2614 11
2615 21
2616 17
2617 37
2618 60
2619 13
2620 2
2621 14
2622 58
2623 93
2624 20
2625 52
2626 60
2627 93
2628 73
2629 110
2630 85
2631 50
2632 91
2633 28
2634 93
2635 49
2636 85
2637 28
2638 5
2639 127
2640 60
2641 74
2642 43
2643 50
2644 74
2645 1
2646 103
2647 84
2648 93
2649 41
2650 78
2651 41
2652 5
2653 56
2654 126
2655 49
2656 70
2657 60
2658 97
2659 57
2660 43
2661 2
2662 31
2663 31
2664 88
2665 93
2666 36
2667 104
2668 31
2669 2
2670 69
2671 87
2672 49
2673 102
2674 113
2675 73
2676 125
2677 67
2678 78
2679 30
2680 23
2681 6
2682 51
2683 104
2684 74
2685 25
2686 8
2687 14
2688 18
2689 21
2690 81
2691 21
2692 104
2693 16
2694 60
2695 78
2696 78
2697 130
2698 11
2699 74
2700 37
2701 130
2702 57
2703 11
2704 60
2705 67
2706 74
2707 108
2708 17
2709 64
2710 43
2711 69
2712 57
2713 89
2714 16
2715 58
2716 20
2717 5
2718 93
2719 88
2720 2
2721 56
2722 17
2723 23
2724 66
2725 11
2726 31
2727 90
2728 69
2729 2
2730 86
2731 64
2732 75
2733 88
2734 75
2735 65
2736 14
2737 28
2738 28
2739 17
2740 74
2741 2
2742 93
2743 17
2744 50
2745 93
2746 13
2747 69
2748 29
2749 21
2750 21
2751 23
2752 11
2753 83
2754 17
2755 127
2756 62
2757 74
2758 36
2759 85
2760 14
2761 16
2762 17
2763 74
2764 108
2765 60
2766 67
2767 83
2768 26
2769 58
2770 17
2771 32
2772 104
2773 85
2774 108
2775 65
2776 74
2777 108
2778 74
2779 11
2780 88
2781 91
2782 67
2783 86
2784 108
2785 5
2786 26
2787 92
2788 74
2789 11
2790 104
2791 28
2792 28
2793 59
2794 10
2795 59
2796 64
2797 88
2798 46
2799 68
2800 30
2801 20
2802 54
2803 52
2804 74
2805 102
2806 60
2807 11
2808 11
2809 108
2810 35
2811 60
2812 93
2813 26
2814 74
2815 12
2816 67
2817 102
2818 108
2819 97
2820 108
2821 93
2822 9
2823 14
2824 76
2825 2
2826 108
2827 49
2828 76
2829 11
2830 68
2831 43
2832 26
2833 67
2834 76
2835 21
2836 72
2837 60
2838 108
2839 49
2840 88
2841 48
2842 11
2843 51
2844 2
2845 23
2846 30
2847 76
2848 67
2849 66
2850 45
2851 74
2852 51
2853 88
2854 35
2855 21
2856 60
2857 11
2858 54
2859 64
2860 34
2861 86
2862 5
2863 108
2864 34
2865 31
2866 65
2867 11
2868 94
2869 58
2870 37
2871 37
2872 43
2873 40
2874 76
2875 51
2876 27
2877 63
2878 78
2879 56
2880 76
2881 11
2882 64
2883 66
2884 60
2885 114
2886 11
2887 11
2888 30
2889 60
2890 52
2891 49
2892 76
2893 108
2894 70
2895 60
2896 49
2897 34
2898 17
2899 108
2900 61
2901 67
2902 91
2903 66
2904 5
2905 11
2906 103
2907 6
2908 17
2909 35
2910 67
2911 2
2912 24
2913 73
2914 67
2915 24
2916 18
2917 64
2918 104
2919 23
2920 108
2921 54
2922 2
2923 76
2924 67
2925 91
2926 81
2927 81
2928 46
2929 100
2930 35
2931 55
2932 21
2933 81
2934 91
2935 54
2936 24
2937 74
2938 5
2939 64
2940 91
2941 41
2942 30
2943 35
2944 21
2945 93
2946 94
2947 106
2948 119
2949 51
2950 60
2951 24
2952 64
2953 28
2954 6
2955 17
2956 74
2957 74
2958 17
2959 17
2960 49
2961 24
2962 85
2963 0
2964 26
2965 67
2966 21
2967 81
2968 67
2969 24
2970 86
2971 28
2972 14
2973 28
2974 101
2975 31
2976 21
2977 91
2978 42
2979 126
2980 91
2981 67
2982 51
2983 123
2984 28
2985 2
2986 58
2987 38
2988 30
2989 60
2990 81
2991 17
2992 30
2993 5
2994 60
2995 17
2996 25
2997 5
2998 88
2999 91
3000 49
3001 64
3002 29
3003 2
3004 2
3005 67
3006 21
3007 23
3008 21
3009 59
3010 35
3011 24
3012 64
3013 17
3014 6
3015 102
3016 67
3017 93
3018 5
3019 64
3020 81
3021 55
3022 26
3023 108
3024 51
3025 2
3026 108
3027 64
3028 17
3029 64
3030 70
3031 23
3032 76
3033 38
3034 100
3035 54
3036 49
3037 60
3038 49
3039 26
3040 23
3041 96
3042 2
3043 60
3044 28
3045 21
3046 67
3047 33
3048 50
3049 50
3050 23
3051 24
3052 28
3053 102
3054 108
3055 91
3056 69
3057 91
3058 28
3059 51
3060 17
3061 64
3062 23
3063 60
3064 30
3065 93
3066 11
3067 28
3068 51
3069 52
3070 50
3071 93
3072 75
3073 15
3074 69
3075 8
3076 93
3077 100
3078 74
3079 79
3080 9
3081 42
3082 11
3083 64
3084 50
3085 28
3086 51
3087 31
3088 41
3089 21
3090 93
3091 11
3092 41
3093 11
3094 13
3095 58
3096 11
3097 57
3098 76
3099 11
3100 58
3101 3
3102 13
3103 60
3104 116
3105 17
3106 42
3107 88
3108 93
3109 60
3110 26
3111 113
3112 12
3113 60
3114 76
3115 2
3116 11
3117 60
3118 86
3119 17
3120 11
3121 5
3122 108
3123 24
3124 74
3125 35
3126 5
3127 2
3128 93
3129 66
3130 105
3131 5
3132 51
3133 2
3134 35
3135 28
3136 33
3137 43
3138 45
3139 24
3140 72
3141 46
3142 29
3143 74
3144 40
3145 37
3146 5
3147 54
3148 64
3149 14
3150 124
3151 119
3152 26
3153 103
3154 124
3155 2
3156 78
3157 30
3158 57
3159 60
3160 91
3161 51
3162 37
3163 60
3164 21
3165 67
3166 47
3167 35
3168 42
3169 56
3170 108
3171 6
3172 43
3173 94
3174 35
3175 35
3176 95
3177 23
3178 23
3179 65
3180 23
3181 93
3182 32
3183 81
3184 17
3185 76
3186 21
3187 28
3188 93
3189 30
3190 32
3191 24
3192 59
3193 27
3194 23
3195 51
3196 42
3197 5
3198 92
3199 93
3200 35
3201 125
3202 41
3203 60
3204 9
3205 2
3206 5
3207 31
3208 74
3209 79
3210 100
3211 58
3212 31
3213 16
3214 90
3215 118
3216 51
3217 28
3218 77
3219 49
3220 11
3221 42
3222 45
3223 24
3224 32
3225 23
3226 35
3227 106
3228 67
3229 49
3230 27
3231 21
3232 86
3233 33
3234 32
3235 23
3236 78
3237 65
3238 23
3239 5
3240 33
3241 21
3242 29
3243 93
3244 26
3245 5
3246 55
3247 86
3248 103
3249 12
3250 83
3251 39
3252 51
3253 33
3254 78
3255 23
3256 33
3257 6
3258 2
3259 29
3260 21
3261 75
3262 104
3263 82
3264 30
3265 40
3266 94
3267 11
3268 11
3269 23
3270 16
3271 23
3272 78
3273 38
3274 32
3275 16
3276 88
3277 78
3278 16
3279 104
3280 37
3281 92
3282 2
3283 50
3284 11
3285 124
3286 51
3287 64
3288 104
3289 93
3290 2
3291 35
3292 97
3293 35
3294 35
3295 127
3296 32
3297 74
3298 45
3299 30
3300 17
3301 36
3302 28
3303 86
3304 9
3305 13
3306 35
3307 5
3308 66
3309 14
3310 93
3311 2
3312 125
3313 35
3314 49
3315 5
3316 99
3317 74
3318 64
3319 54
3320 111
3321 35
3322 11
3323 60
3324 90
3325 30
3326 5
3327 102
3328 31
3329 118
3330 16
3331 93
3332 35
3333 83
3334 2
3335 93
3336 11
3337 23
3338 60
3339 60
3340 23
3341 11
3342 100
3343 17
3344 104
3345 2
3346 93
3347 104
3348 35
3349 21
3350 70
3351 88
3352 2
3353 126
3354 21
3355 43
3356 21
3357 30
3358 72
3359 2
3360 8
3361 108
3362 92
3363 2
3364 17
3365 64
3366 60
3367 33
3368 12
3369 26
3370 64
3371 5
3372 60
3373 23
3374 21
3375 67
3376 76
3377 69
3378 115
3379 73
3380 102
3381 35
3382 18
3383 117
3384 93
3385 52
3386 108
3387 129
3388 60
3389 18
3390 86
3391 65
3392 35
3393 35
3394 34
3395 59
3396 74
3397 17
3398 35
3399 57
3400 65
3401 99
3402 116
3403 19
3404 108
3405 105
3406 86
3407 43
3408 108
3409 71
3410 43
3411 93
3412 11
3413 93
3414 72
3415 90
3416 43
3417 21
3418 37
3419 17
3420 74
3421 78
3422 108
3423 86
3424 35
3425 2
3426 72
3427 11
3428 11
3429 105
3430 119
3431 27
3432 2
3433 69
3434 47
3435 81
3436 76
3437 60
3438 108
3439 73
3440 23
3441 92
3442 21
3443 33
3444 2
3445 64
3446 17
3447 6
3448 93
3449 93
3450 46
3451 96
3452 40
3453 17
3454 16
3455 76
3456 35
3457 2
3458 1
3459 21
3460 100
3461 21
3462 57
3463 21
3464 60
3465 104
3466 57
3467 60
3468 60
3469 31
3470 11
3471 46
3472 33
3473 56
3474 67
3475 74
3476 88
3477 28
3478 11
3479 58
3480 91
3481 70
3482 5
3483 7
3484 5
3485 78
3486 67
3487 1
3488 67
3489 21
3490 60
3491 75
3492 55
3493 50
3494 12
3495 93
3496 35
3497 108
3498 21
3499 8
3500 102
3501 119
3502 30
3503 58
3504 83
3505 60
3506 69
3507 3
3508 93
3509 103
3510 17
3511 8
3512 60
3513 21
3514 113
3515 60
3516 35
3517 27
3518 2
3519 2
3520 62
3521 35
3522 93
3523 50
3524 69
3525 18
3526 5
3527 26
3528 34
3529 34
3530 108
3531 5
3532 51
3533 67
3534 5
3535 13
3536 91
3537 93
3538 23
3539 11
3540 35
3541 91
3542 96
3543 21
3544 94
3545 41
3546 35
3547 93
3548 91
3549 35
3550 50
3551 96
3552 41
3553 14
3554 13
3555 76
3556 70
3557 5
3558 74
3559 28
3560 69
3561 5
3562 76
3563 5
3564 11
3565 81
3566 26
3567 67
3568 13
3569 26
3570 67
3571 53
3572 63
3573 11
3574 5
3575 21
3576 16
3577 98
3578 60
3579 47
3580 26
3581 28
3582 28
3583 65
3584 54
3585 19
3586 58
3587 24
3588 91
3589 2
3590 23
3591 28
3592 31
3593 27
3594 42
3595 69
3596 2
3597 113
3598 69
3599 81
3600 11
3601 81
3602 43
3603 66
3604 4
3605 27
3606 93
3607 27
3608 12
3609 76
3610 107
3611 90
3612 2
3613 70
3614 0
3615 67
3616 46
3617 109
3618 54
3619 59
3620 74
3621 102
3622 73
3623 69
3624 31
3625 35
3626 51
3627 86
3628 26
3629 32
3630 46
3631 2
3632 101
3633 16
3634 60
3635 5
3636 70
3637 75
3638 93
3639 16
3640 55
3641 71
3642 59
3643 128
3644 42
3645 40
3646 18
3647 50
3648 76
3649 67
3650 2
3651 41
3652 5
3653 93
3654 2
3655 76
3656 5
3657 69
3658 60
3659 35
3660 5
3661 81
3662 23
3663 23
3664 110
3665 18
3666 40
3667 32
3668 21
3669 58
3670 52
3671 17
3672 11
3673 38
3674 51
3675 5
3676 41
3677 35
3678 11
3679 64
3680 64
3681 11
3682 55
3683 35
3684 59
3685 21
3686 31
3687 2
3688 109
3689 78
3690 91
3691 115
3692 93
3693 64
3694 50
3695 108
3696 5
3697 110
3698 64
3699 76
3700 30
3701 23
3702 37
3703 103
3704 74
3705 65
3706 17
3707 4
3708 5
3709 5
3710 2
3711 93
3712 58
3713 108
3714 108
3715 108
3716 16
3717 118
3718 28
3719 87
3720 2
3721 74
3722 2
3723 13
3724 5
3725 36
3726 34
3727 57
3728 11
3729 78
3730 16
3731 86
3732 17
3733 74
3734 88
3735 115
3736 5
3737 2
3738 60
3739 16
3740 23
3741 31
3742 36
3743 81
3744 77
3745 23
3746 16
3747 56
3748 35
3749 14
3750 23
3751 46
3752 11
3753 102
3754 108
3755 102
3756 2
3757 76
3758 35
3759 74
3760 76
3761 35
3762 97
3763 0
3764 51
3765 60
3766 16
3767 77
3768 108
3769 49
3770 23
3771 11
3772 73
3773 94
3774 33
3775 35
3776 91
3777 93
3778 12
3779 75
3780 90
3781 41
3782 24
3783 70
3784 74
3785 23
3786 23
3787 74
3788 60
3789 16
3790 35
3791 127
3792 88
3793 35
3794 10
3795 76
3796 108
3797 108
3798 74
3799 115
3800 5
3801 11
3802 74
3803 16
3804 75
3805 67
3806 78
3807 67
3808 2
3809 33
3810 11
3811 2
3812 11
3813 93
3814 8
3815 93
3816 108
3817 88
3818 74
3819 93
3820 35
3821 32
3822 74
3823 2
3824 35
3825 2
3826 35
3827 91
3828 64
3829 91
3830 23
3831 6
3832 100
3833 50
3834 11
3835 94
3836 23
3837 11
3838 79
3839 97
3840 41
3841 32
3842 60
3843 66
3844 94
3845 76
3846 83
3847 35
3848 10
3849 74
3850 35
3851 60
3852 39
3853 91
3854 5
3855 49
3856 108
3857 27
3858 11
3859 49
3860 93
3861 51
3862 16
3863 74
3864 51
3865 120
3866 51
3867 76
3868 21
3869 35
3870 17
3871 35
3872 2
3873 67
3874 51
3875 35
3876 24
3877 90
3878 74
3879 5
3880 76
3881 88
3882 49
3883 6
3884 91
3885 29
3886 41
3887 40
3888 11
3889 18
3890 74
3891 30
3892 93
3893 49
3894 18
3895 40
3896 17
3897 21
3898 51
3899 129
3900 23
3901 110
3902 34
3903 37
3904 11
3905 54
3906 30
3907 49
3908 67
3909 104
3910 57
3911 21
3912 104
3913 61
3914 108
3915 74
3916 99
3917 59
3918 67
3919 11
3920 35
3921 108
3922 67
3923 21
3924 35
3925 17
3926 5
3927 51
3928 14
3929 27
3930 51
3931 88
3932 49
3933 30
3934 11
3935 76
3936 28
3937 24
3938 17
3939 16
3940 76
3941 2
3942 73
3943 60
3944 19
3945 74
3946 93
3947 35
3948 28
3949 104
3950 2
3951 51
3952 54
3953 2
3954 21
3955 90
3956 91
3957 91
3958 35
3959 90
3960 67
3961 30
3962 15
3963 74
3964 2
3965 28
3966 49
3967 30
3968 81
3969 104
3970 11
3971 41
3972 9
3973 24
3974 74
3975 74
3976 102
3977 54
3978 30
3979 52
3980 60
3981 49
3982 108
3983 74
3984 23
3985 28
3986 81
3987 91
3988 51
3989 35
3990 67
3991 0
3992 77
3993 67
3994 91
3995 54
3996 67
3997 54
3998 49
3999 5
4000 74
4001 108
4002 3
4003 11
4004 76
4005 93
4006 28
4007 60
4008 46
4009 69
4010 23
4011 59
4012 93
4013 31
4014 91
4015 60
4016 13
4017 46
4018 60
4019 74
4020 31
4021 2
4022 0
4023 10
4024 21
4025 30
4026 5
4027 108
4028 123
4029 74
4030 23
4031 28
4032 35
4033 73
4034 11
4035 49
4036 91
4037 74
4038 24
4039 108
4040 11
4041 62
4042 104
4043 17
4044 38
4045 30
4046 38
4047 93
4048 22
4049 51
4050 60
4051 33
4052 76
4053 2
4054 64
4055 103
4056 76
4057 2
4058 79
4059 23
4060 15
4061 30
4062 24
4063 49
4064 11
4065 23
4066 21
4067 30
4068 23
4069 60
4070 5
4071 18
4072 58
4073 2
4074 49
4075 5
4076 16
4077 51
4078 12
4079 31
4080 11
4081 18
4082 17
4083 28
4084 30
4085 0
4086 21
4087 21
4088 60
4089 16
4090 118
4091 10
4092 46
4093 5
4094 24
4095 98
4096 105
4097 59
4098 0
4099 22
4100 35
4101 34
4102 67
4103 52
4104 11
4105 51
4106 54
4107 52
4108 41
4109 64
4110 42
4111 50
4112 24
4113 124
4114 42
4115 53
4116 11
4117 22
4118 58
4119 69
4120 10
4121 108
4122 54
4123 54
4124 64
4125 51
4126 6
4127 3
4128 11
4129 50
4130 19
4131 11
4132 76
4133 28
4134 69
4135 35
4136 32
4137 30
4138 95
4139 30
4140 5
4141 69
4142 28
4143 53
4144 88
4145 51
4146 11
4147 11
4148 124
4149 30
4150 81
4151 98
4152 124
4153 85
4154 11
4155 31
4156 50
4157 30
4158 28
4159 91
4160 24
4161 110
4162 31
4163 81
4164 76
4165 30
4166 57
4167 94
4168 61
4169 2
4170 93
4171 112
4172 24
4173 78
4174 91
4175 64
4176 13
4177 24
4178 41
4179 91
4180 88
4181 51
4182 66
4183 42
4184 35
4185 31
4186 1
4187 67
4188 78
4189 36
4190 71
4191 11
4192 69
4193 13
4194 51
4195 24
4196 74
4197 8
4198 59
4199 103
4200 77
4201 0
4202 42
4203 69
4204 91
4205 86
4206 103
4207 77
4208 64
4209 41
4210 44
4211 3
4212 51
4213 55
4214 49
4215 81
4216 104
4217 5
4218 107
4219 61
4220 0
4221 36
4222 79
4223 51
4224 11
4225 120
4226 74
4227 118
4228 66
4229 23
4230 11
4231 22
4232 39
4233 118
4234 30
4235 22
4236 59
4237 30
4238 4
4239 11
4240 129
4241 14
4242 81
4243 110
4244 31
4245 30
4246 67
4247 67
4248 28
4249 67
4250 14
4251 79
4252 67
4253 108
4254 78
4255 39
4256 51
4257 11
4258 58
4259 17
4260 11
4261 31
4262 57
4263 46
4264 11
4265 11
4266 25
4267 98
4268 48
4269 43
4270 73
4271 33
4272 84
4273 83
4274 30
4275 58
4276 104
4277 91
4278 95
4279 129
4280 107
4281 6
4282 75
4283 67
4284 26
4285 75
4286 90
4287 94
4288 34
4289 28
4290 29
4291 28
4292 4
4293 5
4294 58
4295 13
4296 70
4297 16
4298 69
4299 124
4300 67
4301 34
4302 8
4303 88
4304 102
4305 82
4306 128
4307 30
4308 99
4309 16
4310 93
4311 58
4312 125
4313 42
4314 33
4315 94
4316 16
4317 105
4318 78
4319 26
4320 78
4321 32
4322 111
4323 11
4324 94
4325 60
4326 49
4327 88
4328 107
4329 45
4330 62
4331 11
4332 46
4333 99
4334 97
4335 91
4336 102
4337 64
4338 55
4339 11
4340 71
4341 27
4342 123
4343 88
4344 24
4345 54
4346 89
4347 69
4348 79
4349 51
4350 70
4351 61
4352 97
4353 12
4354 28
4355 54
4356 2
4357 93
4358 88
4359 50
4360 5
4361 106
4362 26
4363 8
4364 78
4365 23
4366 11
4367 18
4368 93
4369 30
4370 45
4371 84
4372 103
4373 56
4374 13
4375 64
4376 11
4377 58
4378 49
4379 37
4380 77
4381 59
4382 93
4383 43
4384 21
4385 16
4386 123
4387 48
4388 42
4389 45
4390 90
4391 11
4392 108
4393 36
4394 69
4395 108
4396 66
4397 17
4398 79
4399 81
4400 21
4401 16
4402 93
4403 35
4404 41
4405 90
4406 27
4407 76
4408 11
4409 59
4410 1
4411 35
4412 27
4413 93
4414 52
4415 17
4416 59
4417 125
4418 30
4419 8
4420 106
4421 16
4422 114
4423 93
4424 47
4425 88
4426 24
4427 110
4428 108
4429 88
4430 59
4431 22
4432 57
4433 11
4434 114
4435 81
4436 108
4437 76
4438 23
4439 51
4440 121
4441 23
4442 17
4443 70
4444 78
4445 58
4446 73
4447 24
4448 93
4449 28
4450 76
4451 78
4452 76
4453 42
4454 78
4455 71
4456 20
4457 88
4458 18
4459 58
4460 3
4461 107
4462 11
4463 93
4464 39
4465 26
4466 58
4467 32
4468 46
4469 41
4470 76
4471 77
4472 65
4473 59
4474 40
4475 11
4476 93
4477 93
4478 18
4479 58
4480 72
4481 103
4482 108
4483 36
4484 18
4485 41
4486 104
4487 27
4488 11
4489 76
4490 77
4491 24
4492 91
4493 91
4494 73
4495 93
4496 93
4497 21
4498 63
4499 17
4500 102
4501 96
4502 78
4503 108
4504 34
4505 5
4506 50
4507 37
4508 76
4509 5
4510 66
4511 62
4512 74
4513 5
4514 86
4515 21
4516 24
4517 43
4518 86
4519 21
4520 76
4521 66
4522 112
4523 17
4524 76
4525 94
4526 93
4527 50
4528 107
4529 75
4530 108
4531 21
4532 8
4533 91
4534 106
4535 93
4536 67
4537 25
4538 104
4539 50
4540 99
4541 49
4542 11
4543 76
4544 99
4545 2
4546 49
4547 102
4548 5
4549 5
4550 21
4551 51
4552 23
4553 8
4554 102
4555 23
4556 33
4557 81
4558 17
4559 60
4560 29
4561 10
4562 74
4563 60
4564 96
4565 38
4566 36
4567 92
4568 91
4569 62
4570 93
4571 83
4572 93
4573 13
4574 93
4575 26
4576 5
4577 23
4578 0
4579 49
4580 25
4581 11
4582 23
4583 60
4584 17
4585 93
4586 50
4587 102
4588 108
4589 46
4590 2
4591 91
4592 108
4593 66
4594 108
4595 2
4596 69
4597 27
4598 91
4599 51
4600 23
4601 14
4602 51
4603 11
4604 69
4605 44
4606 70
4607 67
4608 113
4609 77
4610 107
4611 21
4612 21
4613 76
4614 122
4615 67
4616 93
4617 43
4618 130
4619 47
4620 26
4621 83
4622 42
4623 62
4624 50
4625 67
4626 54
4627 88
4628 43
4629 81
4630 30
4631 75
4632 83
4633 11
4634 52
4635 81
4636 11
4637 10
4638 93
4639 88
4640 42
4641 81
4642 88
4643 11
4644 11
4645 73
4646 73
4647 96
4648 93
4649 33
4650 54
4651 0
4652 26
4653 67
4654 28
4655 130
4656 105
4657 76
4658 125
4659 42
4660 17
4661 10
4662 17
4663 73
4664 2
4665 30
4666 60
4667 5
4668 11
4669 51
4670 108
4671 51
4672 30
4673 21
4674 21
4675 102
4676 41
4677 103
4678 28
4679 46
4680 49
4681 30
4682 45
4683 60
4684 11
4685 17
4686 60
4687 48
4688 12
4689 102
4690 41
4691 5
4692 78
4693 19
4694 17
4695 51
4696 91
4697 13
4698 11
4699 96
4700 5
4701 2
4702 67
4703 51
4704 93
4705 81
4706 81
4707 47
4708 78
4709 70
4710 30
4711 15
4712 36
4713 49
4714 8
4715 93
4716 22
4717 54
4718 93
4719 108
4720 9
4721 17
4722 60
4723 21
4724 32
4725 96
4726 2
4727 66
4728 93
4729 30
4730 13
4731 88
4732 108
4733 60
4734 60
4735 6
4736 93
4737 93
4738 81
4739 98
4740 54
4741 94
4742 21
4743 78
4744 64
4745 111
4746 79
4747 100
4748 13
4749 0
4750 23
4751 11
4752 11
4753 42
4754 6
4755 42
4756 5
4757 81
4758 74
4759 126
4760 11
4761 118
4762 88
4763 67
4764 34
4765 5
4766 14
4767 14
4768 103
4769 17
4770 23
4771 41
4772 21
4773 23
4774 5
4775 26
4776 62
4777 67
4778 23
4779 60
4780 60
4781 108
4782 23
4783 108
4784 11
4785 8
4786 88
4787 8
4788 14
4789 88
4790 124
4791 60
4792 104
4793 81
4794 36
4795 67
4796 47
4797 21
4798 21
4799 86
4800 60
4801 2
4802 2
4803 5
4804 88
4805 67
4806 11
4807 76
4808 93
4809 60
4810 74
4811 2
4812 2
4813 50
4814 23
4815 93
4816 60
4817 18
4818 3
4819 21
4820 53
4821 78
4822 92
4823 76
4824 11
4825 17
4826 21
4827 37
4828 27
4829 41
4830 77
4831 108
4832 35
4833 27
4834 67
4835 21
4836 23
4837 108
4838 35
4839 90
4840 91
4841 60
4842 91
4843 57
4844 108
4845 13
4846 17
4847 2
4848 66
4849 57
4850 67
4851 18
4852 21
4853 60
4854 54
4855 46
4856 91
4857 23
4858 60
4859 86
4860 54
4861 30
4862 93
4863 108
4864 96
4865 17
4866 93
4867 17
4868 108
4869 74
4870 93
4871 70
4872 96
4873 49
4874 28
4875 21
4876 2
4877 18
4878 11
4879 93
4880 60
4881 13
4882 27
4883 81
4884 35
4885 50
4886 94
4887 88
4888 2
4889 35
4890 70
4891 113
4892 17
4893 127
4894 76
4895 108
4896 60
4897 93
4898 35
4899 102
4900 88
4901 11
4902 2
4903 16
4904 76
4905 17
4906 91
4907 64
4908 21
4909 70
4910 32
4911 121
4912 70
4913 73
4914 21
4915 77
4916 23
4917 90
4918 34
4919 60
4920 17
4921 93
4922 78
4923 64
4924 64
4925 2
4926 67
4927 66
4928 11
4929 30
4930 40
4931 63
4932 70
4933 21
4934 60
4935 16
4936 91
4937 76
4938 91
4939 36
4940 63
4941 30
4942 108
4943 88
4944 57
4945 64
4946 5
4947 94
4948 83
4949 5
4950 51
4951 60
4952 89
4953 11
4954 111
4955 67
4956 93
4957 32
4958 2
4959 11
4960 26
4961 11
4962 24
4963 26
4964 108
4965 32
4966 110
4967 67
4968 74
4969 49
4970 21
4971 90
4972 108
4973 58
4974 67
4975 30
4976 49
4977 91
4978 17
4979 73
4980 76
4981 34
4982 104
4983 67
4984 67
4985 30
4986 78
4987 28
4988 2
4989 28
4990 45
4991 32
4992 35
4993 115
4994 21
4995 21
4996 24
4997 67
4998 81
4999 81
5000 11
5001 118
5002 2
5003 23
5004 0
5005 81
5006 102
5007 35
5008 74
5009 60
5010 11
5011 78
5012 60
5013 23
5014 81
5015 74
5016 91
5017 76
5018 78
5019 30
5020 127
5021 102
5022 73
5023 24
5024 30
5025 81
5026 91
5027 102
5028 11
5029 17
5030 81
5031 103
5032 21
5033 81
5034 51
5035 12
5036 49
5037 27
5038 17
5039 51
5040 29
5041 60
5042 105
5043 76
5044 64
5045 49
5046 64
5047 97
5048 2
5049 30
5050 64
5051 49
5052 2
5053 42
5054 64
5055 49
5056 11
5057 78
5058 93
5059 24
5060 67
5061 102
5062 76
5063 32
5064 13
5065 4
5066 102
5067 27
5068 23
5069 76
5070 76
5071 108
5072 74
5073 104
5074 49
5075 74
5076 64
5077 82
5078 5
5079 21
5080 35
5081 67
5082 60
5083 30
5084 99
5085 26
5086 5
5087 108
5088 26
5089 123
5090 23
5091 93
5092 30
5093 60
5094 17
5095 2
5096 15
5097 23
5098 30
5099 23
5100 59
5101 11
5102 49
5103 17
5104 65
5105 21
5106 24
5107 91
5108 51
5109 31
5110 76
5111 51
5112 106
5113 108
5114 23
5115 21
5116 36
5117 11
5118 93
5119 34
5120 109
5121 16
5122 54
5123 34
5124 102
5125 86
5126 41
5127 93
5128 94
5129 38
5130 43
5131 2
5132 2
5133 93
5134 19
5135 90
5136 11
5137 51
5138 35
5139 109
5140 93
5141 118
5142 5
5143 51
5144 31
5145 67
5146 108
5147 30
5148 82
5149 11
5150 18
5151 102
5152 28
5153 2
5154 93
5155 25
5156 42
5157 123
5158 35
5159 107
5160 12
5161 19
5162 20
5163 89
5164 11
5165 41
5166 85
5167 94
5168 35
5169 89
5170 67
5171 62
5172 2
5173 60
5174 8
5175 64
5176 30
5177 97
5178 60
5179 2
5180 41
5181 50
5182 24
5183 104
5184 21
5185 2
5186 113
5187 67
5188 41
5189 110
5190 88
5191 28
5192 21
5193 23
5194 5
5195 17
5196 17
5197 21
5198 78
5199 5
5200 60
5201 58
5202 24
5203 113
5204 63
5205 60
5206 24
5207 121
5208 72
5209 35
5210 17
5211 0
5212 36
5213 24
5214 42
5215 0
5216 60
5217 21
5218 76
5219 78
5220 64
5221 113
5222 93
5223 23
5224 41
5225 11
5226 30
5227 78
5228 66
5229 125
5230 11
5231 76
5232 69
5233 60
5234 28
5235 66
5236 17
5237 17
5238 6
5239 21
5240 90
5241 42
5242 25
5243 23
5244 103
5245 24
5246 25
5247 35
5248 35
5249 93
5250 37
5251 28
5252 11
5253 74
5254 75
5255 0
5256 24
5257 80
5258 16
5259 93
5260 2
5261 17
5262 130
5263 91
5264 13
5265 125
5266 50
5267 85
5268 30
5269 11
5270 104
5271 116
5272 60
5273 9
5274 28
5275 93
5276 5
5277 76
5278 32
5279 78
5280 24
5281 104
5282 13
5283 51
5284 35
5285 23
5286 98
5287 52
5288 35
5289 88
5290 116
5291 2
5292 51
5293 90
5294 0
5295 5
5296 21
5297 21
5298 21
5299 17
5300 74
5301 5
5302 11
5303 5
5304 17
5305 89
5306 2
5307 49
5308 93
5309 106
5310 23
5311 45
5312 35
5313 118
5314 82
5315 21
5316 80
5317 32
5318 114
5319 6
5320 35
5321 74
5322 5
5323 17
5324 17
5325 99
5326 74
5327 3
5328 35
5329 78
5330 93
5331 23
5332 88
5333 35
5334 11
5335 2
5336 93
5337 36
5338 90
5339 2
5340 58
5341 60
5342 86
5343 88
5344 35
5345 81
5346 10
5347 94
5348 11
5349 10
5350 11
5351 88
5352 11
5353 75
5354 93
5355 28
5356 11
5357 26
5358 42
5359 98
5360 5
5361 30
5362 33
5363 94
5364 42
5365 104
5366 20
5367 54
5368 18
5369 60
5370 2
5371 60
5372 52
5373 27
5374 114
5375 66
5376 21
5377 21
5378 28
5379 28
5380 93
5381 17
5382 80
5383 83
5384 93
5385 11
5386 21
5387 50
5388 23
5389 23
5390 96
5391 78
5392 23
5393 17
5394 86
5395 41
5396 94
5397 24
5398 42
5399 26
5400 86
5401 2
5402 31
5403 14
5404 93
5405 24
5406 21
5407 24
5408 51
5409 16
5410 42
5411 21
5412 102
5413 88
5414 27
5415 23
5416 17
5417 66
5418 86
5419 60
5420 21
5421 48
5422 76
5423 76
5424 108
5425 17
5426 76
5427 49
5428 5
5429 111
5430 23
5431 60
5432 78
5433 40
5434 54
5435 10
5436 59
5437 23
5438 27
5439 93
5440 60
5441 36
5442 113
5443 115
5444 9
5445 28
5446 103
5447 76
5448 60
5449 70
5450 123
5451 88
5452 68
5453 108
5454 94
5455 12
5456 15
5457 5
5458 108
5459 28
5460 14
5461 14
5462 69
5463 17
5464 17
5465 23
5466 66
5467 110
5468 23
5469 78
5470 59
5471 66
5472 76
5473 21
5474 11
5475 21
5476 41
5477 60
5478 0
5479 58
5480 21
5481 70
5482 94
5483 108
5484 93
5485 72
5486 43
5487 35
5488 74
5489 0
5490 74
5491 60
5492 52
5493 113
5494 88
5495 76
5496 125
5497 110
5498 104
5499 104
5500 39
5501 6
5502 2
5503 56
5504 102
5505 42
5506 106
5507 36
5508 5
5509 89
5510 104
5511 23
5512 93
5513 107
5514 38
5515 30
5516 5
5517 102
5518 33
5519 76
5520 109
5521 93
5522 91
5523 5
5524 11
5525 67
5526 34
5527 91
5528 2
5529 75
5530 76
5531 59
5532 31
5533 108
5534 0
5535 21
5536 74
5537 87
5538 67
5539 61
5540 78
5541 55
5542 76
5543 82
5544 108
5545 79
5546 67
5547 17
5548 0
5549 102
5550 64
5551 29
5552 35
5553 23
5554 31
5555 73
5556 60
5557 35
5558 91
5559 30
5560 40
5561 83
5562 31
5563 59
5564 93
5565 49
5566 23
5567 73
5568 16
5569 69
5570 51
5571 32
5572 11
5573 27
5574 24
5575 4
5576 70
5577 29
5578 86
5579 27
5580 21
5581 70
5582 91
5583 58
5584 49
5585 16
5586 35
5587 35
5588 32
5589 60
5590 74
5591 74
5592 23
5593 76
5594 81
5595 85
5596 17
5597 35
5598 18
5599 67
5600 81
5601 36
5602 21
5603 93
5604 27
5605 0
5606 28
5607 65
5608 2
5609 96
5610 102
5611 74
5612 91
5613 28
5614 75
5615 93
5616 69
5617 76
5618 28
5619 125
5620 54
5621 20
5622 50
5623 46
5624 17
5625 91
5626 108
5627 18
5628 67
5629 49
5630 66
5631 33
5632 35
5633 91
5634 69
5635 31
5636 50
5637 91
5638 77
5639 40
5640 2
5641 22
5642 93
5643 11
5644 23
5645 76
5646 58
5647 43
5648 2
5649 32
5650 5
5651 67
5652 2
5653 19
5654 50
5655 45
5656 46
5657 50
5658 11
5659 3
5660 89
5661 23
5662 113
5663 59
5664 2
5665 43
5666 47
5667 18
5668 72
5669 11
5670 34
5671 105
5672 11
5673 2
5674 41
5675 51
5676 113
5677 93
5678 114
5679 59
5680 93
5681 118
5682 2
5683 11
5684 79
5685 73
5686 79
5687 94
5688 5
5689 93
5690 60
5691 75
5692 9
5693 75
5694 56
5695 21
5696 2
5697 90
5698 50
5699 5
5700 68
5701 70
5702 60
5703 5
5704 30
5705 35
5706 105
5707 5
5708 2
5709 69
5710 93
5711 35
5712 11
5713 18
5714 106
5715 23
5716 11
5717 27
5718 21
5719 29
5720 64
5721 51
5722 81
5723 22
5724 81
5725 5
5726 49
5727 49
5728 73
5729 60
5730 56
5731 37
5732 78
5733 54
5734 64
5735 67
5736 21
5737 2
5738 5
5739 35
5740 66
5741 35
5742 28
5743 27
5744 55
5745 74
5746 2
5747 41
5748 71
5749 110
5750 61
5751 17
5752 11
5753 11
5754 28
5755 124
5756 42
5757 35
5758 93
5759 5
5760 17
5761 104
5762 81
5763 17
5764 2
5765 57
5766 60
5767 49
5768 7
5769 41
5770 108
5771 110
5772 25
5773 66
5774 17
5775 74
5776 74
5777 81
5778 91
5779 5
5780 49
5781 95
5782 49
5783 21
5784 66
5785 16
5786 126
5787 91
5788 2
5789 51
5790 74
5791 14
5792 5
5793 11
5794 100
5795 30
5796 93
5797 32
5798 0
5799 93
5800 119
5801 5
5802 17
5803 108
5804 88
5805 74
5806 33
5807 74
5808 108
5809 67
5810 30
5811 23
5812 73
5813 76
5814 26
5815 23
5816 91
5817 37
5818 108
5819 108
5820 67
5821 91
5822 16
5823 60
5824 11
5825 11
5826 84
5827 13
5828 67
5829 93
5830 60
5831 91
5832 60
5833 49
5834 67
5835 5
5836 104
5837 91
5838 106
5839 17
5840 60
5841 91
5842 30
5843 11
5844 118
5845 104
5846 1
5847 11
5848 17
5849 93
5850 18
5851 77
5852 74
5853 60
5854 23
5855 17
5856 91
5857 46
5858 67
5859 78
5860 104
5861 74
5862 96
5863 62
5864 49
5865 45
5866 74
5867 57
5868 4
5869 77
5870 26
5871 93
5872 35
5873 2
5874 35
5875 94
5876 74
5877 65
5878 35
5879 83
5880 102
5881 30
5882 30
5883 91
5884 35
5885 32
5886 21
5887 32
5888 11
5889 11
5890 104
5891 2
5892 24
5893 74
5894 51
5895 17
5896 17
5897 60
5898 42
5899 74
5900 49
5901 2
5902 6
5903 60
5904 108
5905 76
5906 35
5907 35
5908 49
5909 41
5910 17
5911 74
5912 104
5913 74
5914 5
5915 129
5916 21
5917 91
5918 88
5919 83
5920 117
5921 102
5922 91
5923 28
5924 29
5925 47
5926 32
5927 59
5928 51
5929 27
5930 34
5931 17
5932 23
5933 113
5934 76
5935 23
5936 30
5937 93
5938 11
5939 17
5940 60
5941 34
5942 30
5943 74
5944 51
5945 93
5946 60
5947 56
5948 74
5949 5
5950 24
5951 30
5952 37
5953 51
5954 85
5955 35
5956 5
5957 30
5958 21
5959 64
5960 35
5961 91
5962 91
5963 108
5964 33
5965 104
5966 11
5967 35
5968 93
5969 21
5970 76
5971 26
5972 5
5973 58
5974 34
5975 49
5976 17
5977 67
5978 93
5979 23
5980 28
5981 30
5982 2
5983 49
5984 64
5985 23
5986 35
5987 88
5988 64
5989 90
5990 108
5991 0
5992 49
5993 93
5994 81
5995 23
5996 51
5997 19
5998 0
5999 109
6000 54
6001 67
6002 94
6003 57
6004 74
6005 23
6006 93
6007 24
6008 64
6009 24
6010 78
6011 17
6012 54
6013 2
6014 108
6015 2
6016 91
6017 74
6018 58
6019 17
6020 13
6021 21
6022 0
6023 54
6024 55
6025 81
6026 18
6027 74
6028 60
6029 17
6030 20
6031 67
6032 104
6033 28
6034 28
6035 93
6036 28
6037 77
6038 50
6039 76
6040 93
6041 2
6042 70
6043 51
6044 76
6045 78
6046 60
6047 108
6048 30
6049 60
6050 73
6051 76
6052 108
6053 18
6054 6
6055 104
6056 35
6057 2
6058 64
6059 67
6060 11
6061 93
6062 0
6063 93
6064 88
6065 90
6066 86
6067 27
6068 45
6069 28
6070 53
6071 108
6072 28
6073 10
6074 54
6075 11
6076 35
6077 49
6078 17
6079 85
6080 108
6081 24
6082 41
6083 70
6084 74
6085 35
6086 76
6087 60
6088 5
6089 81
6090 60
6091 2
6092 2
6093 64
6094 69
6095 41
6096 29
6097 6
6098 27
6099 51
6100 74
6101 28
6102 74
6103 67
6104 49
6105 24
6106 60
6107 74
6108 64
6109 21
6110 23
6111 51
6112 51
6113 63
6114 74
6115 23
6116 103
6117 93
6118 89
6119 81
6120 91
6121 41
6122 17
6123 5
6124 93
6125 61
6126 85
6127 30
6128 47
6129 2
6130 85
6131 93
6132 28
6133 5
6134 91
6135 23
6136 28
6137 64
6138 81
6139 88
6140 5
6141 30
6142 35
6143 60
6144 91
6145 35
6146 73
6147 39
6148 51
6149 124
6150 67
6151 11
6152 81
6153 91
6154 73
6155 42
6156 11
6157 28
6158 24
6159 113
6160 11
6161 47
6162 96
6163 41
6164 35
6165 3
6166 95
6167 76
6168 58
6169 75
6170 48
6171 88
6172 60
6173 0
6174 43
6175 94
6176 5
6177 11
6178 81
6179 70
6180 34
6181 47
6182 105
6183 11
6184 85
6185 102
6186 81
6187 96
6188 0
6189 11
6190 89
6191 5
6192 32
6193 16
6194 43
6195 64
6196 5
6197 97
6198 105
6199 51
6200 50
6201 102
6202 13
6203 4
6204 100
6205 0
6206 128
6207 29
6208 96
6209 5
6210 11
6211 81
6212 110
6213 86
6214 41
6215 52
6216 37
6217 39
6218 56
6219 70
6220 76
6221 41
6222 28
6223 104
6224 28
6225 28
6226 81
6227 80
6228 109
6229 59
6230 41
6231 73
6232 31
6233 44
6234 103
6235 88
6236 6
6237 78
6238 56
6239 78
6240 64
6241 42
6242 5
6243 86
6244 34
6245 75
6246 0
6247 47
6248 126
6249 40
6250 57
6251 125
6252 113
6253 58
6254 42
6255 43
6256 32
6257 66
6258 31
6259 37
6260 64
6261 88
6262 11
6263 6
6264 58
6265 50
6266 36
6267 3
6268 57
6269 70
6270 41
6271 60
6272 58
6273 25
6274 50
6275 14
6276 23
6277 32
6278 0
6279 80
6280 78
6281 69
6282 78
6283 87
6284 91
6285 64
6286 56
6287 33
6288 78
6289 104
6290 104
6291 117
6292 72
6293 11
6294 42
6295 16
6296 8
6297 64
6298 9
6299 55
6300 17
6301 95
6302 125
6303 120
6304 11
6305 57
6306 26
6307 26
6308 85
6309 105
6310 36
6311 6
6312 51
6313 28
6314 13
6315 33
6316 110
6317 103
6318 83
6319 5
6320 61
6321 11
6322 63
6323 29
6324 97
6325 90
6326 42
6327 0
6328 19
6329 8
6330 13
6331 18
6332 72
6333 44
6334 32
6335 75
6336 41
6337 67
6338 34
6339 89
6340 88
6341 24
6342 69
6343 79
6344 33
6345 16
6346 9
6347 81
6348 23
6349 15
6350 42
6351 16
6352 93
6353 24
6354 78
6355 93
6356 62
6357 90
6358 5
6359 41
6360 64
6361 18
6362 42
6363 77
6364 57
6365 42
6366 22
6367 65
6368 77
6369 94
6370 11
6371 11
6372 49
6373 25
6374 36
6375 22
6376 50
6377 111
6378 66
6379 93
6380 4
6381 30
6382 64
6383 14
6384 78
6385 90
6386 41
6387 32
6388 113
6389 8
6390 62
6391 57
6392 119
6393 54
6394 66
6395 21
6396 93
6397 97
6398 70
6399 83
6400 55
6401 35
6402 122
6403 17
6404 21
6405 42
6406 119
6407 70
6408 96
6409 57
6410 70
6411 25
6412 88
6413 51
6414 103
6415 54
6416 13
6417 65
6418 75
6419 16
6420 27
6421 23
6422 54
6423 123
6424 18
6425 113
6426 102
6427 6
6428 26
6429 52
6430 23
6431 11
6432 23
6433 66
6434 17
6435 49
6436 93
6437 85
6438 16
6439 11
6440 17
6441 33
6442 73
6443 54
6444 11
6445 21
6446 100
6447 25
6448 26
6449 48
6450 93
6451 45
6452 76
6453 4
6454 34
6455 4
6456 61
6457 29
6458 93
6459 17
6460 54
6461 3
6462 20
6463 21
6464 50
6465 73
6466 21
6467 20
6468 17
6469 37
6470 32
6471 73
6472 40
6473 27
6474 84
6475 75
6476 26
6477 41
6478 96
6479 22
6480 95
6481 24
6482 48
6483 58
6484 54
6485 43
6486 35
6487 48
6488 74
6489 11
6490 88
6491 89
6492 108
6493 37
6494 23
6495 1
6496 108
6497 93
6498 108
6499 59
6500 49
6501 80
6502 52
6503 1
6504 77
6505 73
6506 21
6507 14
6508 76
6509 38
6510 76
6511 102
6512 19
6513 72
6514 21
6515 69
6516 90
6517 25
6518 108
6519 93
6520 54
6521 74
6522 23
6523 122
6524 94
6525 10
6526 23
6527 108
6528 31
6529 90
6530 64
6531 0
6532 49
6533 73
6534 70
6535 7
6536 89
6537 91
6538 85
6539 56
6540 40
6541 23
6542 9
6543 86
6544 11
6545 85
6546 89
6547 30
6548 93
6549 73
6550 76
6551 96
6552 26
6553 32
6554 31
6555 74
6556 86
6557 74
6558 21
6559 100
6560 88
6561 8
6562 74
6563 109
6564 10
6565 108
6566 126
6567 94
6568 23
6569 93
6570 11
6571 23
6572 108
6573 74
6574 104
6575 13
6576 98
6577 91
6578 74
6579 5
6580 76
6581 76
6582 29
6583 21
6584 67
6585 27
6586 88
6587 93
6588 2
6589 17
6590 25
6591 79
6592 5
6593 11
6594 21
6595 11
6596 55
6597 93
6598 59
6599 2
6600 58
6601 122
6602 91
6603 102
6604 108
6605 93
6606 11
6607 93
6608 59
6609 23
6610 5
6611 5
6612 16
6613 91
6614 0
6615 49
6616 74
6617 76
6618 73
6619 13
6620 91
6621 41
6622 21
6623 85
6624 1
6625 103
6626 19
6627 48
6628 111
6629 107
6630 49
6631 44
6632 2
6633 46
6634 93
6635 17
6636 28
6637 17
6638 102
6639 5
6640 5
6641 76
6642 60
6643 2
6644 29
6645 78
6646 50
6647 33
6648 41
6649 51
6650 74
6651 14
6652 70
6653 54
6654 57
6655 124
6656 113
6657 11
6658 88
6659 96
6660 38
6661 77
6662 63
6663 88
6664 93
6665 105
6666 20
6667 19
6668 88
6669 67
6670 8
6671 54
6672 46
6673 11
6674 2
6675 93
6676 93
6677 33
6678 91
6679 0
6680 37
6681 23
6682 93
6683 108
6684 69
6685 60
6686 37
6687 11
6688 52
6689 70
6690 49
6691 2
6692 54
6693 30
6694 47
6695 125
6696 41
6697 80
6698 51
6699 60
6700 24
6701 88
6702 30
6703 0
6704 88
6705 34
6706 53
6707 96
6708 34
6709 13
6710 58
6711 69
6712 111
6713 17
6714 50
6715 44
6716 30
6717 17
6718 80
6719 33
6720 29
6721 55
6722 102
6723 2
6724 17
6725 61
6726 2
6727 91
6728 93
6729 31
6730 92
6731 55
6732 15
6733 81
6734 49
6735 11
6736 17
6737 54
6738 21
6739 110
6740 23
6741 51
6742 21
6743 78
6744 34
6745 64
6746 60
6747 21
6748 5
6749 74
6750 23
6751 30
6752 30
6753 70
6754 2
6755 91
6756 50
6757 23
6758 127
6759 102
6760 17
6761 70
6762 51
6763 66
6764 21
6765 60
6766 2
6767 17
6768 21
6769 93
6770 17
6771 51
6772 50
6773 107
6774 64
6775 74
6776 13
6777 81
6778 18
6779 93
6780 49
6781 109
6782 2
6783 93
6784 56
6785 69
6786 60
6787 58
6788 42
6789 104
6790 60
6791 2
6792 110
6793 93
6794 5
6795 91
6796 74
6797 91
6798 41
6799 32
6800 85
6801 11
6802 104
6803 57
6804 9
6805 47
6806 55
6807 32
6808 64
6809 93
6810 127
6811 93
6812 88
6813 49
6814 43
6815 93
6816 78
6817 88
6818 60
6819 28
6820 14
6821 60
6822 36
6823 93
6824 23
6825 76
6826 32
6827 36
6828 41
6829 33
6830 60
6831 81
6832 2
6833 19
6834 69
6835 32
6836 118
6837 88
6838 51
6839 11
6840 8
6841 93
6842 67
6843 11
6844 16
6845 93
6846 2
6847 49
6848 11
6849 44
6850 78
6851 67
6852 85
6853 2
6854 66
6855 32
6856 78
6857 14
6858 21
6859 24
6860 17
6861 93
6862 76
6863 85
6864 78
6865 11
6866 74
6867 11
6868 70
6869 11
6870 2
6871 75
6872 27
6873 94
6874 94
6875 55
6876 11
6877 62
6878 67
6879 58
6880 61
6881 93
6882 109
6883 23
6884 75
6885 50
6886 74
6887 2
6888 11
6889 88
6890 23
6891 21
6892 81
6893 23
6894 14
6895 76
6896 49
6897 103
6898 76
6899 46
6900 23
6901 66
6902 91
6903 14
6904 88
6905 55
6906 2
6907 11
6908 12
6909 74
6910 67
6911 90
6912 32
6913 74
6914 74
6915 91
6916 35
6917 76
6918 11
6919 88
6920 35
6921 19
6922 53
6923 59
6924 17
6925 91
6926 24
6927 58
6928 83
6929 49
6930 74
6931 51
6932 35
6933 21
6934 60
6935 23
6936 5
6937 116
6938 51
6939 5
6940 64
6941 2
6942 42
6943 11
6944 76
6945 35
6946 13
6947 49
6948 26
6949 51
6950 76
6951 51
6952 26
6953 78
6954 41
6955 67
6956 51
6957 51
6958 30
6959 91
6960 74
6961 69
6962 49
6963 17
6964 76
6965 49
6966 19
6967 21
6968 57
6969 130
6970 93
6971 59
6972 73
6973 23
6974 30
6975 11
6976 54
6977 16
6978 35
6979 67
6980 86
6981 59
6982 46
6983 35
6984 93
6985 91
6986 102
6987 2
6988 88
6989 51
6990 23
6991 105
6992 28
6993 76
6994 49
6995 74
6996 46
6997 60
6998 41
6999 67
7000 64
7001 41
7002 60
7003 17
7004 38
7005 108
7006 42
7007 51
7008 108
7009 5
7010 64
7011 74
7012 58
7013 58
7014 37
7015 117
7016 108
7017 11
7018 35
7019 108
7020 27
7021 10
7022 23
7023 23
7024 94
7025 36
7026 64
7027 51
7028 93
7029 76
7030 76
7031 67
7032 79
7033 58
7034 2
7035 5
7036 11
7037 54
7038 61
7039 5
7040 67
7041 21
7042 81
7043 73
7044 64
7045 27
7046 2
7047 30
7048 30
7049 11
7050 60
7051 74
7052 11
7053 72
7054 28
7055 17
7056 49
7057 49
7058 21
7059 51
7060 2
7061 64
7062 33
7063 5
7064 77
7065 35
7066 51
7067 108
7068 0
7069 56
7070 74
7071 74
7072 73
7073 60
7074 26
7075 11
7076 76
7077 108
7078 23
7079 21
7080 30
7081 88
7082 59
7083 24
7084 60
7085 23
7086 17
7087 16
7088 76
7089 35
7090 35
7091 28
7092 73
7093 10
7094 91
7095 5
7096 102
7097 75
7098 60
7099 30
7100 11
7101 28
7102 13
7103 81
7104 2
7105 5
7106 41
7107 35
7108 35
7109 51
7110 11
7111 60
7112 50
7113 74
7114 60
7115 76
7116 28
7117 2
7118 51
7119 24
7120 108
7121 104
7122 10
7123 35
7124 35
7125 54
7126 64
7127 2
7128 97
7129 73
7130 5
7131 60
7132 2
7133 24
7134 54
7135 30
7136 51
7137 93
7138 127
7139 17
7140 21
7141 83
7142 91
7143 60
7144 94
7145 2
7146 67
7147 64
7148 2
7149 91
7150 23
7151 96
7152 76
7153 24
7154 91
7155 17
7156 69
7157 2
7158 23
7159 23
7160 81
7161 91
7162 23
7163 21
7164 96
7165 31
7166 66
7167 51
7168 28
7169 24
7170 46
7171 11
7172 30
7173 30
7174 84
7175 67
7176 113
7177 64
7178 64
7179 69
7180 123
7181 23
7182 113
7183 24
7184 67
7185 45
7186 74
7187 76
7188 41
7189 42
7190 93
7191 26
7192 27
7193 93
7194 3
7195 60
7196 96
7197 0
7198 2
7199 21
7200 50
7201 13
7202 2
7203 95
7204 93
7205 15
7206 67
7207 46
7208 30
7209 2
7210 129
7211 14
7212 30
7213 35
7214 73
7215 104
7216 86
7217 11
7218 27
7219 24
7220 5
7221 2
7222 17
7223 91
7224 69
7225 17
7226 2
7227 2
7228 93
7229 11
7230 11
7231 76
7232 69
7233 18
7234 30
7235 37
7236 21
7237 113
7238 35
7239 85
7240 108
7241 9
7242 22
7243 74
7244 50
7245 35
7246 43
7247 73
7248 74
7249 61
7250 13
7251 23
7252 102
7253 2
7254 49
7255 26
7256 90
7257 60
7258 11
7259 103
7260 69
7261 11
7262 66
7263 93
7264 2
7265 64
7266 48
7267 93
7268 93
7269 67
7270 35
7271 94
7272 34
7273 60
7274 17
7275 21
7276 78
7277 41
7278 64
7279 43
7280 23
7281 78
7282 91
7283 24
7284 6
7285 28
7286 68
7287 11
7288 93
7289 54
7290 11
7291 37
7292 22
7293 60
7294 21
7295 115
7296 39
7297 91
7298 125
7299 23
7300 11
7301 2
7302 78
7303 110
7304 5
7305 14
7306 60
7307 76
7308 13
7309 74
7310 35
7311 112
7312 12
7313 28
7314 5
7315 24
7316 14
7317 56
7318 93
7319 43
7320 54
7321 103
7322 61
7323 11
7324 35
7325 8
7326 17
7327 30
7328 21
7329 60
7330 86
7331 24
7332 24
7333 23
7334 5
7335 66
7336 88
7337 93
7338 93
7339 8
7340 92
7341 86
7342 26
7343 118
7344 2
7345 104
7346 60
7347 25
7348 66
7349 14
7350 35
7351 64
7352 78
7353 23
7354 11
7355 104
7356 69
7357 11
7358 88
7359 85
7360 76
7361 66
7362 5
7363 51
7364 120
7365 23
7366 104
7367 45
7368 4
7369 23
7370 14
7371 35
7372 16
7373 38
7374 21
7375 60
7376 57
7377 17
7378 101
7379 32
7380 5
7381 35
7382 106
7383 13
7384 104
7385 17
7386 86
7387 23
7388 17
7389 106
7390 35
7391 30
7392 60
7393 76
7394 30
7395 2
7396 11
7397 23
7398 17
7399 66
7400 12
7401 127
7402 11
7403 128
7404 107
7405 11
7406 75
7407 102
7408 81
7409 24
7410 76
7411 28
7412 60
7413 59
7414 5
7415 42
7416 54
7417 69
7418 67
7419 94
7420 60
7421 14
7422 67
7423 21
7424 21
7425 33
7426 17
7427 35
7428 69
7429 81
7430 91
7431 43
7432 92
7433 51
7434 51
7435 27
7436 52
7437 27
7438 93
7439 112
7440 115
7441 17
7442 18
7443 35
7444 93
7445 16
7446 11
7447 26
7448 46
7449 8
7450 35
7451 5
7452 27
7453 35
7454 78
7455 35
7456 66
7457 88
7458 28
7459 95
7460 88
7461 100
7462 93
7463 60
7464 94
7465 28
7466 59
7467 108
7468 104
7469 46
7470 72
7471 5
7472 106
7473 25
7474 5
7475 93
7476 40
7477 11
7478 5
7479 21
7480 28
7481 94
7482 108
7483 54
7484 94
7485 69
7486 14
7487 61
7488 43
7489 34
7490 14
7491 18
7492 17
7493 39
7494 113
7495 5
7496 78
7497 129
7498 14
7499 72
7500 26
7501 17
7502 88
7503 10
7504 15
7505 93
7506 11
7507 23
7508 5
7509 2
7510 11
7511 108
7512 108
7513 73
7514 102
7515 16
7516 21
7517 117
7518 18
7519 17
7520 65
7521 76
7522 17
7523 46
7524 2
7525 109
7526 2
7527 58
7528 11
7529 108
7530 0
7531 9
7532 21
7533 60
7534 106
7535 73
7536 35
7537 10
7538 93
7539 58
7540 74
7541 38
7542 70
7543 103
7544 6
7545 103
7546 108
7547 66
7548 34
7549 70
7550 23
7551 25
7552 60
7553 125
7554 2
7555 6
7556 76
7557 43
7558 88
7559 17
7560 102
7561 94
7562 19
7563 17
7564 74
7565 37
7566 2
7567 112
7568 16
7569 35
7570 74
7571 102
7572 67
7573 60
7574 91
7575 50
7576 103
7577 50
7578 27
7579 36
7580 50
7581 74
7582 31
7583 67
7584 50
7585 50
7586 108
7587 5
7588 5
7589 32
7590 120
7591 17
7592 91
7593 110
7594 74
7595 76
7596 60
7597 35
7598 94
7599 37
7600 119
7601 64
7602 126
7603 79
7604 5
7605 0
7606 10
7607 122
7608 2
7609 21
7610 34
7611 50
7612 76
7613 130
7614 21
7615 2
7616 16
7617 2
7618 60
7619 93
7620 51
7621 12
7622 49
7623 11
7624 93
7625 20
7626 108
7627 93
7628 11
7629 5
7630 76
7631 17
7632 44
7633 60
7634 64
7635 35
7636 93
7637 91
7638 81
7639 31
7640 25
7641 60
7642 81
7643 6
7644 21
7645 11
7646 79
7647 94
7648 17
7649 18
7650 54
7651 81
7652 108
7653 79
7654 23
7655 129
7656 76
7657 21
7658 11
7659 67
7660 11
7661 67
7662 5
7663 49
7664 14
7665 17
7666 11
7667 70
7668 35
7669 73
7670 91
7671 85
7672 39
7673 35
7674 11
7675 86
7676 60
7677 49
7678 2
7679 29
7680 102
7681 19
7682 27
7683 49
7684 41
7685 6
7686 20
7687 51
7688 49
7689 21
7690 23
7691 11
7692 49
7693 2
7694 102
7695 50
7696 9
7697 35
7698 113
7699 89
7700 43
7701 74
7702 104
7703 2
7704 41
7705 27
7706 70
7707 59
7708 34
7709 31
7710 30
7711 93
7712 49
7713 88
7714 81
7715 33
7716 12
7717 1
7718 59
7719 11
7720 34
7721 41
7722 11
7723 8
7724 42
7725 52
7726 88
7727 5
7728 93
7729 42
7730 2
7731 2
7732 35
7733 11
7734 18
7735 34
7736 35
7737 81
7738 17
7739 128
7740 5
7741 11
7742 35
7743 108
7744 108
7745 93
7746 64
7747 21
7748 30
7749 108
7750 41
7751 49
7752 74
7753 28
7754 83
7755 42
7756 60
7757 28
7758 23
7759 18
7760 89
7761 5
7762 11
7763 93
7764 13
7765 64
7766 21
7767 66
7768 37
7769 54
7770 36
7771 48
7772 49
7773 23
7774 35
7775 59
7776 91
7777 23
7778 93
7779 103
7780 63
7781 92
7782 81
7783 60
7784 17
7785 46
7786 20
7787 5
7788 105
7789 5
7790 17
7791 73
7792 21
7793 4
7794 64
7795 11
7796 27
7797 55
7798 23
7799 51
7800 118
7801 104
7802 108
7803 93
7804 76
7805 31
7806 106
7807 19
7808 103
7809 35
7810 60
7811 114
7812 2
7813 104
7814 2
7815 81
7816 35
7817 60
7818 93
7819 23
7820 11
7821 93
7822 14
7823 66
7824 2
7825 81
7826 23
7827 13
7828 17
7829 123
7830 50
7831 78
7832 60
7833 41
7834 51
7835 25
7836 91
7837 2
7838 85
7839 2
7840 108
7841 93
7842 67
7843 58
7844 21
7845 78
7846 88
7847 54
7848 91
7849 127
7850 35
7851 108
7852 2
7853 34
7854 42
7855 60
7856 58
7857 35
7858 100
7859 67
7860 91
7861 41
7862 69
7863 86
7864 76
7865 25
7866 35
7867 90
7868 28
7869 67
7870 29
7871 23
7872 60
7873 69
7874 6
7875 88
7876 65
7877 14
7878 23
7879 74
7880 108
7881 94
7882 61
7883 91
7884 5
7885 8
7886 93
7887 88
7888 30
7889 108
7890 93
7891 41
7892 21
7893 41
7894 93
7895 24
7896 81
7897 93
7898 35
7899 27
7900 11
7901 35
7902 23
7903 112
7904 11
7905 90
7906 16
7907 93
7908 94
7909 67
7910 117
7911 60
7912 73
7913 11
7914 13
7915 5
7916 60
7917 35
7918 97
7919 102
7920 10
7921 11
7922 93
7923 108
7924 18
7925 76
7926 91
7927 8
7928 24
7929 43
7930 102
7931 67
7932 74
7933 50
7934 17
7935 76
7936 30
7937 59
7938 70
7939 11
7940 67
7941 35
7942 88
7943 18
7944 24
7945 18
7946 18
7947 68
7948 21
7949 60
7950 18
7951 60
7952 51
7953 2
7954 86
7955 93
7956 33
7957 5
7958 54
7959 2
7960 56
7961 2
7962 81
7963 49
7964 76
7965 102
7966 21
7967 11
7968 21
7969 64
7970 51
7971 108
7972 70
7973 51
7974 16
7975 59
7976 91
7977 23
7978 109
7979 81
7980 93
7981 57
7982 34
7983 67
7984 96
7985 23
7986 83
7987 67
7988 64
7989 49
7990 49
7991 11
7992 122
7993 5
7994 34
7995 91
7996 88
7997 37
7998 104
7999 64
8000 18
8001 27
8002 19
8003 76
8004 108
8005 108
8006 49
8007 11
8008 73
8009 32
8010 43
8011 36
8012 35
8013 2
8014 34
8015 28
8016 49
8017 11
8018 11
8019 30
8020 52
8021 116
8022 60
8023 66
8024 54
8025 93
8026 21
8027 64
8028 17
8029 21
8030 108
8031 65
8032 28
8033 57
8034 18
8035 49
8036 5
8037 24
8038 93
8039 49
8040 94
8041 64
8042 67
8043 91
8044 11
8045 58
8046 28
8047 5
8048 30
8049 5
8050 108
8051 54
8052 108
8053 91
8054 49
8055 35
8056 102
8057 76
8058 91
8059 60
8060 74
8061 59
8062 35
8063 51
8064 23
8065 78
8066 76
8067 60
8068 49
8069 5
8070 67
8071 23
8072 0
8073 49
8074 91
8075 64
8076 108
8077 58
8078 30
8079 21
8080 28
8081 101
8082 21
8083 85
8084 31
8085 24
8086 35
8087 67
8088 17
8089 31
8090 121
8091 60
8092 14
8093 109
8094 17
8095 6
8096 30
8097 6
8098 74
8099 64
8100 108
8101 75
8102 29
8103 76
8104 5
8105 5
8106 64
8107 108
8108 31
8109 11
8110 49
8111 94
8112 67
8113 5
8114 2
8115 73
8116 54
8117 108
8118 93
8119 30
8120 74
8121 91
8122 91
8123 91
8124 47
8125 67
8126 55
8127 26
8128 17
8129 6
8130 91
8131 95
8132 5
8133 66
8134 5
8135 11
8136 17
8137 124
8138 18
8139 30
8140 54
8141 81
8142 60
8143 67
8144 76
8145 51
8146 51
8147 64
8148 67
8149 88
8150 0
8151 56
8152 21
8153 41
8154 11
8155 73
8156 34
8157 41
8158 21
8159 81
8160 64
8161 49
8162 49
8163 60
8164 24
8165 5
8166 91
8167 11
8168 24
8169 33
8170 81
8171 88
8172 2
8173 91
8174 100
8175 42
8176 81
8177 91
8178 17
8179 69
8180 24
8181 24
8182 90
8183 74
8184 69
8185 60
8186 74
8187 51
8188 93
8189 91
8190 17
8191 11
8192 28
8193 39
8194 58
8195 73
8196 53
8197 120
8198 94
8199 94
8200 35
8201 24
8202 108
8203 11
8204 3
8205 69
8206 42
8207 31
8208 42
8209 58
8210 11
8211 90
8212 42
8213 54
8214 126
8215 0
8216 69
8217 41
8218 51
8219 58
8220 13
8221 67
8222 29
8223 24
8224 95
8225 11
8226 86
8227 42
8228 11
8229 94
8230 0
8231 74
8232 88
8233 91
8234 88
8235 94
8236 0
8237 73
8238 13
8239 2
8240 58
8241 49
8242 53
8243 0
8244 39
8245 17
8246 72
8247 72
8248 11
8249 41
8250 18
8251 40
8252 54
8253 11
8254 102
8255 123
8256 37
8257 42
8258 13
8259 31
8260 108
8261 18
8262 91
8263 49
8264 13
8265 54
8266 73
8267 89
8268 78
8269 61
8270 28
8271 30
8272 40
8273 22
8274 72
8275 18
8276 30
8277 42
8278 76
8279 4
8280 10
8281 63
8282 17
8283 81
8284 66
8285 24
8286 35
8287 104
8288 96
8289 57
8290 30
8291 50
8292 73
8293 52
8294 128
8295 2
8296 98
8297 96
8298 102
8299 64
8300 20
8301 96
8302 21
8303 67
8304 78
8305 103
8306 83
8307 8
8308 11
8309 32
8310 51
8311 46
8312 24
8313 40
8314 11
8315 81
8316 113
8317 11
8318 105
8319 104
8320 57
8321 24
8322 83
8323 32
8324 16
8325 11
8326 87
8327 79
8328 24
8329 28
8330 56
8331 104
8332 64
8333 51
8334 16
8335 30
8336 35
8337 61
8338 48
8339 64
8340 11
8341 79
8342 91
8343 14
8344 64
8345 85
8346 102
8347 110
8348 86
8349 28
8350 78
8351 88
8352 108
8353 66
8354 0
8355 7
8356 85
8357 11
8358 11
8359 74
8360 16
8361 14
8362 88
8363 24
8364 126
8365 66
8366 51
8367 130
8368 66
8369 66
8370 24
8371 24
8372 75
8373 108
8374 65
8375 110
8376 83
8377 24
8378 118
8379 88
8380 66
8381 78
8382 48
8383 104
8384 29
8385 64
8386 36
8387 28
8388 39
8389 24
8390 5
8391 34
8392 83
8393 119
8394 51
8395 86
8396 88
8397 40
8398 93
8399 90
8400 91
8401 30
8402 97
8403 83
8404 22
8405 24
8406 33
8407 2
8408 11
8409 121
8410 128
8411 104
8412 101
8413 35
8414 38
8415 57
8416 97
8417 93
8418 35
8419 11
8420 83
8421 2
8422 125
8423 18
8424 5
8425 50
8426 95
8427 57
8428 36
8429 104
8430 35
8431 62
8432 69
8433 64
8434 13
8435 47
8436 22
8437 79
8438 108
8439 54
8440 81
8441 71
8442 11
8443 68
8444 11
8445 28
8446 1
8447 93
8448 17
8449 14
8450 97
8451 119
8452 24
8453 57
8454 46
8455 91
8456 63
8457 54
8458 23
8459 84
8460 85
8461 21
8462 75
8463 88
8464 42
8465 32
8466 21
8467 11
8468 42
8469 29
8470 64
8471 75
8472 54
8473 23
8474 94
8475 11
8476 93
8477 11
8478 17
8479 46
8480 51
8481 120
8482 23
8483 54
8484 35
8485 94
8486 10
8487 74
8488 11
8489 19
8490 52
8491 93
8492 59
8493 74
8494 66
8495 23
8496 16
8497 26
8498 26
8499 66
8500 72
8501 43
8502 11
8503 120
8504 72
8505 91
8506 11
8507 128
8508 46
8509 19
8510 44
8511 105
8512 73
8513 108
8514 124
8515 11
8516 54
8517 56
8518 51
8519 37
8520 8
8521 90
8522 63
8523 11
8524 94
8525 5
8526 74
8527 34
8528 76
8529 11
8530 23
8531 35
8532 119
8533 78
8534 76
8535 110
8536 24
8537 42
8538 93
8539 44
8540 129
8541 34
8542 26
8543 73
8544 94
8545 66
8546 32
8547 86
8548 108
8549 11
8550 21
8551 74
8552 0
8553 76
8554 6
8555 97
8556 65
8557 83
8558 96
8559 23
8560 108
8561 18
8562 76
8563 11
8564 36
8565 23
8566 17
8567 59
8568 76
8569 110
8570 93
8571 44
8572 21
8573 44
8574 35
8575 76
8576 76
8577 21
8578 55
8579 54
8580 19
8581 104
8582 44
8583 40
8584 11
8585 30
8586 17
8587 108
8588 21
8589 77
8590 114
8591 97
8592 58
8593 21
8594 108
8595 123
8596 27
8597 16
8598 75
8599 11
8600 17
8601 42
8602 23
8603 5
8604 67
8605 93
8606 50
8607 117
8608 116
8609 74
8610 29
8611 125
8612 76
8613 74
8614 42
8615 69
8616 23
8617 116
8618 28
8619 76
8620 74
8621 62
8622 90
8623 5
8624 118
8625 93
8626 52
8627 16
8628 80
8629 17
8630 94
8631 58
8632 5
8633 31
8634 104
8635 17
8636 108
8637 86
8638 91
8639 75
8640 41
8641 108
8642 93
8643 92
8644 76
8645 5
8646 13
8647 13
8648 94
8649 23
8650 54
8651 74
8652 83
8653 67
8654 5
8655 29
8656 31
8657 23
8658 4
8659 69
8660 21
8661 74
8662 94
8663 21
8664 95
8665 60
8666 13
8667 31
8668 2
8669 76
8670 27
8671 9
8672 34
8673 94
8674 58
8675 108
8676 12
8677 128
8678 4
8679 83
8680 36
8681 2
8682 28
8683 49
8684 2
8685 41
8686 60
8687 28
8688 21
8689 2
8690 23
8691 11
8692 49
8693 67
8694 19
8695 23
8696 68
8697 93
8698 67
8699 5
8700 86
8701 58
8702 32
8703 5
8704 50
8705 79
8706 0
8707 49
8708 89
8709 20
8710 58
8711 20
8712 2
8713 98
8714 83
8715 39
8716 8
8717 11
8718 20
8719 93
8720 5
8721 98
8722 73
8723 51
8724 69
8725 51
8726 30
8727 74
8728 42
8729 39
8730 23
8731 128
8732 55
8733 1
8734 51
8735 108
8736 76
8737 76
8738 5
8739 30
8740 42
8741 31
8742 100
8743 93
8744 81
8745 18
8746 2
8747 28
8748 113
8749 49
8750 78
8751 2
8752 81
8753 6
8754 29
8755 46
8756 79
8757 106
8758 51
8759 19
8760 81
8761 84
8762 2
8763 69
8764 91
8765 91
8766 45
8767 21
8768 81
8769 46
8770 30
8771 21
8772 93
8773 5
8774 21
8775 102
8776 60
8777 63
8778 35
8779 47
8780 60
8781 30
8782 57
8783 22
8784 57
8785 55
8786 40
8787 28
8788 81
8789 114
8790 12
8791 52
8792 23
8793 17
8794 67
8795 51
8796 49
8797 83
8798 11
8799 57
8800 51
8801 64
8802 110
8803 113
8804 42
8805 97
8806 102
8807 87
8808 70
8809 17
8810 42
8811 21
8812 60
8813 91
8814 2
8815 5
8816 23
8817 2
8818 76
8819 68
8820 32
8821 36
8822 27
8823 21
8824 90
8825 37
8826 5
8827 60
8828 11
8829 17
8830 57
8831 111
8832 80
8833 66
8834 23
8835 74
8836 58
8837 21
8838 74
8839 2
8840 84
8841 5
8842 57
8843 39
8844 17
8845 43
8846 17
8847 16
8848 93
8849 33
8850 5
8851 21
8852 11
8853 5
8854 50
8855 11
8856 75
8857 110
8858 21
8859 28
8860 93
8861 93
8862 88
8863 21
8864 104
8865 5
8866 30
8867 93
8868 93
8869 67
8870 93
8871 17
8872 104
8873 2
8874 2
8875 60
8876 67
8877 26
8878 21
8879 21
8880 74
8881 93
8882 74
8883 5
8884 26
8885 88
8886 26
8887 91
8888 31
8889 11
8890 23
8891 21
8892 62
8893 88
8894 11
8895 94
8896 2
8897 2
8898 97
8899 10
8900 76
8901 17
8902 19
8903 6
8904 17
8905 28
8906 11
8907 74
8908 60
8909 111
8910 2
8911 26
8912 93
8913 14
8914 74
8915 12
8916 19
8917 15
8918 94
8919 113
8920 17
8921 91
8922 11
8923 78
8924 5
8925 32
8926 5
8927 23
8928 28
8929 76
8930 26
8931 36
8932 36
8933 18
8934 88
8935 93
8936 63
8937 23
8938 88
8939 67
8940 24
8941 42
8942 61
8943 23
8944 91
8945 23
8946 76
8947 57
8948 74
8949 21
8950 76
8951 52
8952 27
8953 19
8954 5
8955 27
8956 27
8957 81
8958 23
8959 24
8960 11
8961 60
8962 76
8963 76
8964 76
8965 11
8966 52
8967 21
8968 57
8969 23
8970 3
8971 17
8972 64
8973 107
8974 113
8975 83
8976 60
8977 78
8978 24
8979 2
8980 91
8981 23
8982 11
8983 70
8984 91
8985 51
8986 24
8987 2
8988 5
8989 35
8990 11
8991 108
8992 2
8993 35
8994 66
8995 35
8996 17
8997 60
8998 46
8999 11
9000 21
9001 91
9002 21
9003 30
9004 106
9005 49
9006 11
9007 88
9008 16
9009 11
9010 125
9011 29
9012 35
9013 35
9014 54
9015 11
9016 93
9017 74
9018 5
9019 49
9020 123
9021 90
9022 30
9023 35
9024 64
9025 67
9026 54
9027 64
9028 5
9029 111
9030 21
9031 74
9032 108
9033 91
9034 57
9035 35
9036 5
9037 93
9038 35
9039 11
9040 20
9041 27
9042 32
9043 104
9044 60
9045 67
9046 16
9047 21
9048 103
9049 58
9050 28
9051 35
9052 51
9053 91
9054 74
9055 18
9056 51
9057 60
9058 0
9059 58
9060 91
9061 93
9062 28
9063 36
9064 108
9065 70
9066 17
9067 28
9068 74
9069 74
9070 11
9071 41
9072 35
9073 74
9074 17
9075 49
9076 112
9077 73
9078 5
9079 102
9080 60
9081 76
9082 74
9083 104
9084 17
9085 76
9086 39
9087 73
9088 76
9089 31
9090 103
9091 17
9092 88
9093 60
9094 54
9095 21
9096 23
9097 11
9098 49
9099 30
9100 67
9101 49
9102 51
9103 74
9104 49
9105 11
9106 93
9107 91
9108 70
9109 108
9110 31
9111 75
9112 88
9113 24
9114 94
9115 67
9116 30
9117 42
9118 17
9119 24
9120 17
9121 67
9122 76
9123 39
9124 70
9125 50
9126 49
9127 93
9128 64
9129 108
9130 64
9131 91
9132 17
9133 105
9134 74
9135 33
9136 62
9137 24
9138 5
9139 24
9140 49
9141 93
9142 5
9143 88
9144 13
9145 99
9146 0
9147 69
9148 57
9149 41
9150 105
9151 69
9152 93
9153 18
9154 11
9155 108
9156 83
9157 76
9158 94
9159 23
9160 2
9161 75
9162 93
9163 21
9164 11
9165 69
9166 54
9167 35
9168 60
9169 60
9170 74
9171 81
9172 24
9173 35
9174 41
9175 76
9176 60
9177 119
9178 67
9179 67
9180 49
9181 91
9182 64
9183 67
9184 76
9185 17
9186 69
9187 91
9188 109
9189 54
9190 30
9191 108
9192 16
9193 17
9194 35
9195 35
9196 74
9197 2
9198 2
9199 25
9200 67
9201 3
9202 74
9203 96
9204 52
9205 21
9206 11
9207 75
9208 57
9209 28
9210 64
9211 97
9212 51
9213 31
9214 91
9215 21
9216 11
9217 69
9218 75
9219 2
9220 0
9221 69
9222 25
9223 58
9224 18
9225 51
9226 33
9227 97
9228 2
9229 102
9230 127
9231 55
9232 30
9233 2
9234 69
9235 28
9236 49
9237 37
9238 88
9239 54
9240 46
9241 43
9242 61
9243 24
9244 69
9245 41
9246 43
9247 67
9248 11
9249 2
9250 94
9251 30
9252 65
9253 93
9254 11
9255 35
9256 60
9257 11
9258 42
9259 10
9260 74
9261 120
9262 58
9263 2
9264 93
9265 60
9266 76
9267 111
9268 16
9269 5
9270 88
9271 58
9272 18
9273 47
9274 21
9275 74
9276 35
9277 37
9278 127
9279 18
9280 64
9281 99
9282 104
9283 105
9284 28
9285 28
9286 5
9287 24
9288 32
9289 93
9290 60
9291 64
9292 93
9293 21
9294 103
9295 28
9296 81
9297 13
9298 35
9299 24
9300 6
9301 82
9302 93
9303 64
9304 11
9305 41
9306 35
9307 8
9308 11
9309 19
9310 21
9311 65
9312 50
9313 37
9314 113
9315 103
9316 21
9317 74
9318 35
9319 2
9320 8
9321 60
9322 31
9323 78
9324 30
9325 41
9326 0
9327 17
9328 17
9329 55
9330 21
9331 106
9332 0
9333 66
9334 5
9335 73
9336 5
9337 130
9338 9
9339 14
9340 90
9341 49
9342 11
9343 78
9344 103
9345 104
9346 93
9347 90
9348 11
9349 5
9350 69
9351 128
9352 78
9353 122
9354 60
9355 9
9356 85
9357 6
9358 52
9359 9
9360 17
9361 37
9362 21
9363 11
9364 26
9365 25
9366 36
9367 73
9368 66
9369 5
9370 31
9371 11
9372 60
9373 55
9374 23
9375 17
9376 31
9377 55
9378 74
9379 41
9380 17
9381 21
9382 30
9383 16
9384 127
9385 45
9386 23
9387 16
9388 11
9389 56
9390 6
9391 60
9392 16
9393 5
9394 66
9395 90
9396 11
9397 60
9398 35
9399 74
9400 5
9401 104
9402 13
9403 55
9404 7
9405 94
9406 11
9407 11
9408 80
9409 5
9410 5
9411 28
9412 64
9413 32
9414 35
9415 35
9416 17
9417 11
9418 93
9419 5
9420 5
9421 32
9422 21
9423 18
9424 11
9425 17
9426 66
9427 50
9428 94
9429 86
9430 51
9431 57
9432 2
9433 69
9434 116
9435 96
9436 88
9437 35
9438 35
9439 75
9440 11
9441 88
9442 24
9443 51
9444 17
9445 107
9446 73
9447 121
9448 17
9449 35
9450 11
9451 17
9452 31
9453 9
9454 46
9455 27
9456 65
9457 35
9458 79
9459 60
9460 104
9461 28
9462 57
9463 60
9464 14
9465 52
9466 60
9467 11
9468 23
9469 17
9470 94
9471 23
9472 60
9473 88
9474 23
9475 23
9476 41
9477 113
9478 54
9479 60
9480 17
9481 21
9482 2
9483 60
9484 57
9485 42
9486 30
9487 21
9488 25
9489 11
9490 32
9491 8
9492 28
9493 91
9494 35
9495 30
9496 59
9497 2
9498 104
9499 5
9500 17
9501 3
9502 35
9503 33
9504 23
9505 29
9506 120
9507 5
9508 94
9509 11
9510 51
9511 11
9512 5
9513 23
9514 0
9515 23
9516 42
9517 27
9518 32
9519 76
9520 21
9521 20
9522 108
9523 11
9524 17
9525 94
9526 59
9527 27
9528 35
9529 5
9530 66
9531 130
9532 35
9533 53
9534 8
9535 2
9536 2
9537 104
9538 51
9539 16
9540 73
9541 11
9542 85
9543 90
9544 118
9545 60
9546 62
9547 56
9548 83
9549 36
9550 5
9551 21
9552 76
9553 76
9554 16
9555 93
9556 23
9557 76
9558 58
9559 21
9560 34
9561 27
9562 10
9563 74
9564 4
9565 73
9566 16
9567 66
9568 129
9569 55
9570 42
9571 21
9572 65
9573 82
9574 76
9575 5
9576 2
9577 19
9578 21
9579 107
9580 74
9581 118
9582 108
9583 78
9584 76
9585 74
9586 8
9587 66
9588 11
9589 58
9590 11
9591 0
9592 16
9593 2
9594 79
9595 27
9596 1
9597 58
9598 58
9599 5
9600 111
9601 74
9602 73
9603 39
9604 76
9605 108
9606 92
9607 91
9608 108
9609 61
9610 122
9611 60
9612 74
9613 44
9614 102
9615 130
9616 35
9617 79
9618 17
9619 91
9620 8
9621 21
9622 50
9623 21
9624 58
9625 11
9626 8
9627 74
9628 35
9629 11
9630 0
9631 11
9632 108
9633 17
9634 8
9635 93
9636 27
9637 11
9638 26
9639 70
9640 130
9641 102
9642 8
9643 91
9644 93
9645 59
9646 91
9647 60
9648 58
9649 76
9650 35
9651 78
9652 67
9653 75
9654 73
9655 21
9656 67
9657 60
9658 69
9659 91
9660 49
9661 23
9662 37
9663 9
9664 29
9665 5
9666 5
9667 91
9668 29
9669 23
9670 46
9671 97
9672 74
9673 76
9674 10
9675 76
9676 16
9677 35
9678 81
9679 21
9680 74
9681 91
9682 38
9683 57
9684 67
9685 5
9686 79
9687 11
9688 45
9689 34
9690 93
9691 49
9692 60
9693 108
9694 0
9695 67
9696 35
9697 76
9698 93
9699 29
9700 108
9701 93
9702 69
9703 49
9704 76
9705 107
9706 119
9707 50
9708 5
9709 109
9710 11
9711 51
9712 9
9713 21
9714 94
9715 49
9716 81
9717 10
9718 65
9719 102
9720 23
9721 23
9722 13
9723 6
9724 51
9725 41
9726 81
9727 31
9728 96
9729 39
9730 54
9731 106
9732 54
9733 122
9734 88
9735 20
9736 41
9737 88
9738 47
9739 49
9740 81
9741 17
9742 93
9743 35
9744 102
9745 26
9746 96
9747 11
9748 2
9749 18
9750 27
9751 2
9752 30
9753 108
9754 41
9755 42
9756 11
9757 51
9758 58
9759 41
9760 50
9761 39
9762 6
9763 43
9764 18
9765 37
9766 60
9767 18
9768 93
9769 93
9770 11
9771 72
9772 93
9773 20
9774 8
9775 13
9776 11
9777 60
9778 54
9779 23
9780 18
9781 76
9782 11
9783 60
9784 3
9785 79
9786 5
9787 5
9788 80
9789 30
9790 31
9791 72
9792 11
9793 30
9794 51
9795 49
9796 91
9797 5
9798 23
9799 68
9800 42
9801 17
9802 35
9803 93
9804 11
9805 113
9806 2
9807 60
9808 23
9809 46
9810 96
9811 35
9812 41
9813 76
9814 62
9815 2
9816 102
9817 104
9818 28
9819 96
9820 17
9821 49
9822 50
9823 102
9824 42
9825 23
9826 113
9827 93
9828 78
9829 21
9830 56
9831 36
9832 35
9833 107
9834 113
9835 2
9836 103
9837 93
9838 66
9839 51
9840 5
9841 76
9842 17
9843 17
9844 74
9845 61
9846 35
9847 54
9848 23
9849 104
9850 49
9851 107
9852 74
9853 93
9854 108
9855 60
9856 78
9857 103
9858 90
9859 37
9860 28
9861 57
9862 21
9863 35
9864 77
9865 120
9866 49
9867 21
9868 79
9869 25
9870 31
9871 108
9872 73
9873 51
9874 21
9875 26
9876 102
9877 98
9878 64
9879 23
9880 74
9881 5
9882 91
9883 67
9884 93
9885 37
9886 67
9887 108
9888 108
9889 11
9890 67
9891 58
9892 11
9893 17
9894 67
9895 5
9896 28
9897 88
9898 91
9899 11
9900 76
9901 91
9902 91
9903 83
9904 23
9905 11
9906 90
9907 16
9908 76
9909 74
9910 76
9911 90
9912 5
9913 74
9914 57
9915 11
9916 35
9917 67
9918 67
9919 91
9920 53
9921 83
9922 35
9923 33
9924 108
9925 110
9926 35
9927 48
9928 67
9929 60
9930 110
9931 10
9932 5
9933 4
9934 91
9935 64
9936 90
9937 5
9938 62
9939 76
9940 42
9941 0
9942 11
9943 35
9944 21
9945 32
9946 11
9947 67
9948 11
9949 49
9950 21
9951 17
9952 60
9953 74
9954 67
9955 27
9956 30
9957 11
9958 9
9959 2
9960 83
9961 23
9962 108
9963 76
9964 78
9965 108
9966 61
9967 67
9968 11
9969 108
9970 21
9971 108
9972 16
9973 9
9974 74
9975 118
9976 27
9977 16
9978 60
9979 108
9980 2
9981 11
9982 12
9983 38
9984 74
9985 78
9986 78
9987 17
9988 19
9989 108
9990 23
9991 25
9992 42
9993 75
9994 51
9995 23
9996 18
9997 35
9998 93
9999 18
