0 0
1 1
2 2
3 3
4 4
5 5
6 6
7 7
8 8
9 9
10 8
11 10
12 11
13 0
14 12
15 13
16 14
17 1
18 15
19 16
20 17
21 8
22 18
23 19
24 20
25 21
26 22
27 23
28 24
29 25
30 6
31 26
32 27
33 28
34 15
35 29
36 30
37 13
38 0
39 30
40 31
41 32
42 33
43 34
44 5
45 35
46 36
47 10
48 20
49 27
50 37
51 38
52 11
53 39
54 0
55 24
56 40
57 41
58 42
59 0
60 2
61 43
62 33
63 44
64 45
65 19
66 3
67 46
68 47
69 48
70 49
71 50
72 38
73 4
74 47
75 25
76 51
77 39
78 52
79 30
80 53
81 34
82 48
83 48
84 54
85 55
86 51
87 56
88 57
89 2
90 33
91 46
92 10
93 58
94 59
95 24
96 13
97 58
98 60
99 29
100 61
101 62
102 63
103 63
104 23
105 64
106 65
107 2
108 42
109 60
110 20
111 66
112 53
113 12
114 57
115 67
116 0
117 62
118 65
119 46
120 34
121 46
122 46
123 68
124 69
125 70
126 71
127 5
128 63
129 66
130 18
131 23
132 72
133 31
134 52
135 73
136 6
137 74
138 15
139 35
140 75
141 75
142 70
143 11
144 21
145 11
146 11
147 13
148 76
149 65
150 25
151 77
152 78
153 23
154 36
155 74
156 15
157 24
158 24
159 79
160 14
161 80
162 13
163 17
164 79
165 52
166 81
167 82
168 73
169 83
170 24
171 30
172 84
173 79
174 85
175 86
176 10
177 23
178 82
179 14
180 16
181 13
182 29
183 38
184 87
185 11
186 66
187 65
188 75
189 88
190 45
191 14
192 60
193 47
194 65
195 23
196 24
197 79
198 77
199 89
200 11
201 83
202 62
203 23
204 76
205 24
206 90
207 6
208 10
209 91
210 63
211 84
212 84
213 31
214 92
215 91
216 24
217 93
218 29
219 81
220 76
221 92
222 24
223 76
224 27
225 23
226 28
227 91
228 26
229 26
230 94
231 95
232 58
233 96
234 70
235 28
236 97
237 28
238 25
239 33
240 95
241 98
242 11
243 81
244 69
245 24
246 56
247 99
248 62
249 67
250 56
251 100
252 45
253 84
254 99
255 25
256 11
257 60
258 13
259 62
260 31
261 50
262 62
263 23
264 2
265 101
266 20
267 54
268 102
269 92
270 98
271 91
272 73
273 32
274 23
275 84
276 102
277 20
278 95
279 95
280 103
281 16
282 52
283 88
284 17
285 69
286 69
287 102
288 69
289 83
290 84
291 46
292 50
293 60
294 86
295 72
296 47
297 11
298 54
299 50
300 26
301 63
302 44
303 50
304 98
305 16
306 62
307 4
308 16
309 89
310 10
311 68
312 70
313 91
314 14
315 92
316 22
317 104
318 10
319 17
320 62
321 103
322 14
323 40
324 60
325 84
326 71
327 66
328 105
329 54
330 57
331 98
332 102
333 24
334 21
335 62
336 20
337 11
338 19
339 70
340 57
341 55
342 72
343 17
344 25
345 72
346 53
347 15
348 34
349 102
350 11
351 52
352 72
353 36
354 91
355 71
356 17
357 41
358 50
359 80
360 20
361 72
362 66
363 51
364 17
365 11
366 31
367 20
368 102
369 49
370 106
371 100
372 14
373 100
374 22
375 106
376 54
377 107
378 91
379 91
380 2
381 50
382 57
383 53
384 107
385 50
386 16
387 102
388 54
389 86
390 18
391 91
392 108
393 98
394 6
395 38
396 52
397 50
398 53
399 63
400 92
401 16
402 97
403 109
404 34
405 110
406 50
407 62
408 111
409 29
410 98
411 72
412 74
413 35
414 102
415 32
416 32
417 33
418 17
419 72
420 32
421 1
422 16
423 83
424 91
425 14
426 11
427 6
428 104
429 93
430 92
431 11
432 93
433 70
434 73
435 96
436 93
437 32
438 22
439 63
440 83
441 70
442 89
443 72
444 89
445 104
446 63
447 70
448 58
449 103
450 103
451 13
452 4
453 63
454 86
455 92
456 107
457 0
458 36
459 6
460 70
461 20
462 11
463 91
464 15
465 1
466 55
467 93
468 20
469 0
470 13
471 30
472 2
473 79
474 32
475 2
476 46
477 55
478 89
479 92
480 96
481 38
482 61
483 79
484 92
485 63
486 55
487 92
488 11
489 12
490 53
491 2
492 55
493 65
494 112
495 22
496 63
497 107
498 65
499 91
500 16
501 46
502 74
503 22
504 102
505 2
506 93
507 72
508 60
509 47
510 2
511 66
512 4
513 11
514 11
515 87
516 13
517 72
518 85
519 72
520 79
521 32
522 47
523 89
524 72
525 2
526 84
527 56
528 11
529 45
530 74
531 89
532 86
533 98
534 36
535 27
536 30
537 2
538 103
539 27
540 91
541 27
542 42
543 24
544 6
545 10
546 0
547 63
548 79
549 37
550 82
551 16
552 63
553 73
554 63
555 12
556 112
557 2
558 85
559 27
560 2
561 89
562 45
563 48
564 2
565 100
566 46
567 48
568 56
569 32
570 113
571 28
572 31
573 55
574 109
575 91
576 33
577 93
578 114
579 54
580 51
581 102
582 22
583 25
584 35
585 107
586 39
587 5
588 83
589 57
590 70
591 2
592 11
593 69
594 56
595 14
596 3
597 62
598 29
599 115
600 91
601 109
602 68
603 101
604 38
605 116
606 62
607 51
608 7
609 55
610 62
611 109
612 93
613 62
614 47
615 24
616 20
617 22
618 16
619 117
620 10
621 72
622 16
623 103
624 52
625 79
626 29
627 20
628 85
629 53
630 28
631 56
632 31
633 89
634 88
635 13
636 118
637 76
638 79
639 47
640 74
641 13
642 72
643 16
644 86
645 40
646 33
647 29
648 14
649 76
650 2
651 86
652 20
653 29
654 72
655 22
656 86
657 102
658 16
659 30
660 47
661 31
662 75
663 15
664 76
665 73
666 118
667 72
668 63
669 72
670 3
671 72
672 53
673 2
674 119
675 20
676 35
677 107
678 55
679 11
680 58
681 45
682 32
683 98
684 1
685 20
686 86
687 76
688 82
689 15
690 2
691 31
692 29
693 89
694 72
695 14
696 13
697 43
698 74
699 75
700 120
701 103
702 2
703 98
704 100
705 62
706 63
707 36
708 14
709 62
710 86
711 0
712 88
713 2
714 107
715 56
716 16
717 91
718 98
719 21
720 62
721 74
722 95
723 2
724 104
725 70
726 64
727 98
728 16
729 12
730 107
731 60
732 26
733 16
734 118
735 1
736 62
737 98
738 2
739 117
740 89
741 107
742 10
743 98
744 58
745 25
746 31
747 5
748 34
749 39
750 0
751 61
752 63
753 55
754 89
755 17
756 34
757 95
758 75
759 2
760 56
761 102
762 89
763 88
764 56
765 34
766 14
767 29
768 56
769 90
770 32
771 96
772 91
773 63
774 89
775 81
776 3
777 5
778 39
779 61
780 12
781 47
782 27
783 91
784 54
785 92
786 107
787 47
788 6
789 16
790 26
791 50
792 56
793 113
794 95
795 10
796 86
797 50
798 26
799 15
800 20
801 50
802 20
803 78
804 22
805 22
806 53
807 2
808 92
809 72
810 89
811 47
812 91
813 5
814 107
815 31
816 27
817 72
818 110
819 92
820 45
821 34
822 76
823 34
824 2
825 70
826 50
827 11
828 18
829 15
830 38
831 91
832 79
833 5
834 24
835 11
836 89
837 121
838 11
839 88
840 25
841 74
842 117
843 29
844 35
845 45
846 63
847 41
848 69
849 4
850 18
851 52
852 33
853 12
854 108
855 26
856 89
857 60
858 119
859 29
860 11
861 40
862 98
863 86
864 56
865 29
866 17
867 89
868 91
869 45
870 108
871 74
872 62
873 15
874 91
875 74
876 89
877 20
878 48
879 62
880 23
881 89
882 4
883 33
884 17
885 2
886 69
887 17
888 92
889 15
890 60
891 110
892 63
893 83
894 56
895 2
896 60
897 72
898 50
899 107
900 11
901 6
902 105
903 24
904 37
905 103
906 62
907 2
908 60
909 50
910 113
911 7
912 53
913 79
914 47
915 107
916 86
917 56
918 44
919 89
920 2
921 27
922 20
923 107
924 58
925 54
926 5
927 51
928 52
929 100
930 109
931 25
932 56
933 79
934 28
935 24
936 20
937 76
938 107
939 5
940 121
941 23
942 5
943 56
944 29
945 5
946 66
947 84
948 11
949 27
950 107
951 34
952 50
953 59
954 58
955 20
956 89
957 91
958 91
959 77
960 16
961 79
962 91
963 46
964 29
965 72
966 79
967 98
968 11
969 74
970 86
971 45
972 15
973 0
974 72
975 11
976 43
977 15
978 5
979 95
980 0
981 60
982 20
983 92
984 72
985 88
986 26
987 20
988 70
989 70
990 26
991 86
992 23
993 27
994 63
995 5
996 89
997 93
998 89
999 11
1000 5
1001 56
1002 28
1003 115
1004 15
1005 73
1006 48
1007 60
1008 11
1009 55
1010 16
1011 95
1012 17
1013 107
1014 6
1015 118
1016 111
1017 72
1018 48
1019 5
1020 70
1021 88
1022 50
1023 81
1024 47
1025 29
1026 99
1027 107
1028 76
1029 47
1030 55
1031 74
1032 60
1033 24
1034 47
1035 88
1036 63
1037 115
1038 23
1039 63
1040 91
1041 18
1042 2
1043 6
1044 0
1045 91
1046 23
1047 23
1048 13
1049 96
1050 2
1051 60
1052 95
1053 39
1054 63
1055 29
1056 54
1057 108
1058 18
1059 53
1060 19
1061 44
1062 119
1063 72
1064 13
1065 55
1066 36
1067 55
1068 11
1069 60
1070 91
1071 53
1072 30
1073 63
1074 17
1075 61
1076 27
1077 65
1078 121
1079 98
1080 3
1081 11
1082 112
1083 23
1084 122
1085 28
1086 104
1087 4
1088 40
1089 43
1090 85
1091 56
1092 22
1093 103
1094 14
1095 24
1096 50
1097 10
1098 20
1099 2
1100 36
1101 40
1102 45
1103 24
1104 79
1105 48
1106 91
1107 23
1108 62
1109 89
1110 25
1111 11
1112 18
1113 74
1114 0
1115 79
1116 45
1117 16
1118 91
1119 22
1120 62
1121 47
1122 91
1123 61
1124 24
1125 52
1126 16
1127 104
1128 60
1129 26
1130 22
1131 34
1132 91
1133 62
1134 31
1135 36
1136 23
1137 5
1138 11
1139 51
1140 79
1141 2
1142 20
1143 26
1144 30
1145 2
1146 56
1147 20
1148 2
1149 95
1150 27
1151 23
1152 6
1153 101
1154 76
1155 91
1156 87
1157 55
1158 79
1159 2
1160 42
1161 46
1162 97
1163 31
1164 2
1165 72
1166 11
1167 84
1168 72
1169 62
1170 27
1171 16
1172 96
1173 32
1174 47
1175 120
1176 14
1177 62
1178 63
1179 15
1180 86
1181 73
1182 57
1183 77
1184 79
1185 11
1186 22
1187 11
1188 15
1189 2
1190 44
1191 29
1192 63
1193 109
1194 15
1195 34
1196 20
1197 26
1198 24
1199 99
1200 16
1201 32
1202 98
1203 77
1204 57
1205 23
1206 84
1207 86
1208 109
1209 88
1210 20
1211 13
1212 84
1213 28
1214 29
1215 43
1216 2
1217 34
1218 88
1219 79
1220 94
1221 92
1222 5
1223 60
1224 4
1225 96
1226 24
1227 70
1228 92
1229 56
1230 98
1231 11
1232 55
1233 17
1234 17
1235 63
1236 16
1237 34
1238 81
1239 73
1240 41
1241 47
1242 4
1243 5
1244 20
1245 17
1246 22
1247 98
1248 28
1249 79
1250 56
1251 91
1252 58
1253 69
1254 10
1255 22
1256 55
1257 76
1258 96
1259 11
1260 92
1261 46
1262 30
1263 76
1264 11
1265 58
1266 5
1267 92
1268 10
1269 27
1270 76
1271 43
1272 5
1273 27
1274 84
1275 62
1276 16
1277 5
1278 5
1279 17
1280 17
1281 64
1282 91
1283 37
1284 56
1285 16
1286 18
1287 45
1288 8
1289 92
1290 17
1291 27
1292 48
1293 10
1294 18
1295 108
1296 86
1297 20
1298 84
1299 102
1300 88
1301 92
1302 56
1303 11
1304 94
1305 55
1306 100
1307 107
1308 11
1309 23
1310 54
1311 2
1312 56
1313 31
1314 33
1315 91
1316 123
1317 33
1318 20
1319 102
1320 69
1321 62
1322 111
1323 28
1324 107
1325 113
1326 16
1327 107
1328 86
1329 91
1330 22
1331 76
1332 26
1333 66
1334 88
1335 20
1336 56
1337 70
1338 5
1339 107
1340 107
1341 81
1342 92
1343 1
1344 107
1345 4
1346 102
1347 113
1348 31
1349 12
1350 76
1351 16
1352 74
1353 2
1354 56
1355 76
1356 60
1357 48
1358 107
1359 11
1360 26
1361 91
1362 26
1363 93
1364 52
1365 74
1366 79
1367 54
1368 91
1369 20
1370 46
1371 76
1372 107
1373 56
1374 15
1375 20
1376 0
1377 35
1378 84
1379 74
1380 107
1381 70
1382 15
1383 20
1384 5
1385 53
1386 72
1387 48
1388 56
1389 102
1390 16
1391 124
1392 55
1393 109
1394 2
1395 26
1396 0
1397 24
1398 51
1399 2
1400 70
1401 50
1402 9
1403 82
1404 47
1405 84
1406 30
1407 56
1408 86
1409 0
1410 95
1411 16
1412 11
1413 87
1414 38
1415 84
1416 72
1417 24
1418 109
1419 24
1420 95
1421 60
1422 26
1423 92
1424 30
1425 17
1426 114
1427 34
1428 25
1429 26
1430 89
1431 89
1432 11
1433 30
1434 102
1435 20
1436 32
1437 93
1438 71
1439 88
1440 0
1441 87
1442 56
1443 28
1444 72
1445 22
1446 20
1447 65
1448 10
1449 5
1450 98
1451 16
1452 74
1453 34
1454 2
1455 102
1456 102
1457 22
1458 49
1459 26
1460 32
1461 60
1462 92
1463 91
1464 50
1465 62
1466 17
1467 87
1468 70
1469 8
1470 20
1471 11
1472 98
1473 32
1474 91
1475 51
1476 32
1477 34
1478 14
1479 5
1480 74
1481 66
1482 76
1483 124
1484 73
1485 34
1486 56
1487 79
1488 11
1489 115
1490 107
1491 20
1492 56
1493 11
1494 14
1495 83
1496 85
1497 89
1498 55
1499 8
1500 47
1501 93
1502 114
1503 102
1504 98
1505 45
1506 7
1507 96
1508 107
1509 2
1510 117
1511 20
1512 74
1513 86
1514 59
1515 34
1516 34
1517 110
1518 89
1519 91
1520 107
1521 22
1522 17
1523 65
1524 74
1525 107
1526 62
1527 96
1528 11
1529 63
1530 16
1531 47
1532 79
1533 84
1534 118
1535 48
1536 33
1537 78
1538 5
1539 17
1540 26
1541 79
1542 27
1543 28
1544 112
1545 79
1546 55
1547 84
1548 91
1549 12
1550 73
1551 24
1552 105
1553 11
1554 53
1555 107
1556 2
1557 93
1558 24
1559 39
1560 2
1561 40
1562 53
1563 40
1564 91
1565 63
1566 86
1567 3
1568 93
1569 0
1570 50
1571 63
1572 107
1573 112
1574 16
1575 81
1576 2
1577 45
1578 2
1579 30
1580 36
1581 91
1582 27
1583 34
1584 27
1585 47
1586 58
1587 5
1588 3
1589 45
1590 56
1591 0
1592 11
1593 34
1594 6
1595 88
1596 79
1597 72
1598 2
1599 47
1600 53
1601 57
1602 56
1603 47
1604 89
1605 22
1606 10
1607 11
1608 17
1609 55
1610 98
1611 91
1612 11
1613 16
1614 90
1615 76
1616 44
1617 5
1618 16
1619 7
1620 30
1621 47
1622 79
1623 11
1624 60
1625 102
1626 79
1627 56
1628 47
1629 5
1630 11
1631 18
1632 67
1633 50
1634 82
1635 55
1636 22
1637 125
1638 10
1639 0
1640 65
1641 52
1642 34
1643 91
1644 17
1645 105
1646 93
1647 11
1648 91
1649 79
1650 40
1651 77
1652 37
1653 5
1654 61
1655 96
1656 56
1657 34
1658 44
1659 30
1660 20
1661 36
1662 116
1663 20
1664 50
1665 5
1666 74
1667 36
1668 88
1669 22
1670 9
1671 57
1672 53
1673 3
1674 76
1675 19
1676 33
1677 72
1678 86
1679 15
1680 19
1681 2
1682 56
1683 34
1684 63
1685 86
1686 11
1687 46
1688 101
1689 22
1690 98
1691 75
1692 3
1693 2
1694 86
1695 30
1696 11
1697 48
1698 16
1699 34
1700 2
1701 48
1702 24
1703 29
1704 63
1705 91
1706 56
1707 63
1708 32
1709 56
1710 91
1711 11
1712 86
1713 72
1714 86
1715 20
1716 46
1717 60
1718 76
1719 12
1720 96
1721 0
1722 16
1723 0
1724 89
1725 2
1726 22
1727 89
1728 20
1729 5
1730 11
1731 10
1732 11
1733 6
1734 60
1735 10
1736 91
1737 86
1738 96
1739 62
1740 34
1741 60
1742 24
1743 79
1744 84
1745 53
1746 62
1747 63
1748 89
1749 63
1750 11
1751 91
1752 81
1753 17
1754 22
1755 1
1756 11
1757 63
1758 92
1759 11
1760 22
1761 56
1762 16
1763 20
1764 86
1765 86
1766 65
1767 25
1768 45
1769 11
1770 96
1771 123
1772 86
1773 27
1774 84
1775 56
1776 15
1777 107
1778 2
1779 91
1780 99
1781 48
1782 17
1783 56
1784 34
1785 37
1786 66
1787 40
1788 107
1789 63
1790 34
1791 60
1792 5
1793 74
1794 50
1795 15
1796 20
1797 76
1798 91
1799 91
1800 29
1801 86
1802 17
1803 107
1804 18
1805 34
1806 93
1807 45
1808 11
1809 73
1810 11
1811 62
1812 2
1813 113
1814 27
1815 14
1816 89
1817 1
1818 12
1819 91
1820 56
1821 92
1822 107
1823 34
1824 63
1825 11
1826 34
1827 33
1828 86
1829 11
1830 17
1831 126
1832 29
1833 76
1834 45
1835 74
1836 89
1837 76
1838 22
1839 34
1840 99
1841 78
1842 26
1843 95
1844 7
1845 29
1846 45
1847 26
1848 2
1849 17
1850 70
1851 91
1852 11
1853 11
1854 56
1855 45
1856 22
1857 33
1858 120
1859 16
1860 7
1861 92
1862 52
1863 22
1864 2
1865 72
1866 112
1867 14
1868 20
1869 2
1870 102
1871 29
1872 15
1873 25
1874 47
1875 89
1876 2
1877 89
1878 47
1879 81
1880 34
1881 16
1882 72
1883 34
1884 1
1885 89
1886 20
1887 11
1888 63
1889 27
1890 102
1891 88
1892 85
1893 20
1894 45
1895 34
1896 3
1897 107
1898 11
1899 58
1900 22
1901 50
1902 50
1903 15
1904 11
1905 34
1906 27
1907 89
1908 15
1909 19
1910 72
1911 31
1912 74
1913 66
1914 35
1915 25
1916 107
1917 123
1918 22
1919 56
1920 91
1921 6
1922 91
1923 29
1924 11
1925 98
1926 62
1927 30
1928 79
1929 106
1930 5
1931 50
1932 98
1933 11
1934 34
1935 29
1936 91
1937 56
1938 107
1939 23
1940 70
1941 22
1942 50
1943 107
1944 74
1945 107
1946 22
1947 22
1948 89
1949 72
1950 102
1951 36
1952 45
1953 28
1954 45
1955 102
1956 107
1957 89
1958 107
1959 16
1960 73
1961 47
1962 60
1963 79
1964 107
1965 20
1966 51
1967 22
1968 60
1969 47
1970 74
1971 91
1972 102
1973 94
1974 34
1975 74
1976 22
1977 121
1978 72
1979 33
1980 107
1981 70
1982 54
1983 74
1984 29
1985 20
1986 45
1987 13
1988 64
1989 20
1990 91
1991 86
1992 91
1993 79
1994 47
1995 96
1996 50
1997 91
1998 27
1999 110
2000 79
2001 13
2002 29
2003 79
2004 11
2005 102
2006 41
2007 55
2008 89
2009 28
2010 77
2011 22
2012 115
2013 60
2014 5
2015 85
2016 11
2017 63
2018 55
2019 72
2020 27
2021 2
2022 13
2023 34
2024 95
2025 5
2026 74
2027 63
2028 72
2029 95
2030 58
2031 11
2032 27
2033 16
2034 47
2035 107
2036 30
2037 2
2038 79
2039 45
2040 47
2041 0
2042 107
2043 16
2044 2
2045 2
2046 48
2047 15
2048 86
2049 55
2050 56
2051 74
2052 0
2053 27
2054 45
2055 89
2056 69
2057 76
2058 98
2059 67
2060 45
2061 40
2062 115
2063 17
2064 86
2065 22
2066 107
2067 88
2068 44
2069 86
2070 47
2071 79
2072 54
2073 66
2074 23
2075 40
2076 39
2077 74
2078 23
2079 100
2080 102
2081 58
2082 13
2083 79
2084 23
2085 17
2086 89
2087 54
2088 79
2089 16
2090 59
2091 24
2092 69
2093 100
2094 45
2095 45
2096 34
2097 70
2098 5
2099 61
2100 82
2101 11
2102 69
2103 28
2104 19
2105 63
2106 48
2107 127
2108 45
2109 63
2110 85
2111 27
2112 29
2113 57
2114 41
2115 52
2116 60
2117 13
2118 13
2119 60
2120 76
2121 25
2122 60
2123 29
2124 103
2125 1
2126 64
2127 34
2128 96
2129 16
2130 60
2131 93
2132 72
2133 110
2134 24
2135 1
2136 35
2137 103
2138 121
2139 123
2140 35
2141 27
2142 29
2143 23
2144 72
2145 38
2146 105
2147 13
2148 106
2149 45
2150 30
2151 33
2152 52
2153 76
2154 62
2155 52
2156 11
2157 108
2158 86
2159 63
2160 36
2161 60
2162 43
2163 92
2164 10
2165 77
2166 35
2167 63
2168 107
2169 0
2170 47
2171 107
2172 36
2173 103
2174 23
2175 24
2176 75
2177 62
2178 11
2179 25
2180 39
2181 48
2182 11
2183 46
2184 35
2185 62
2186 101
2187 123
2188 2
2189 60
2190 107
2191 29
2192 3
2193 45
2194 86
2195 45
2196 86
2197 58
2198 14
2199 88
2200 62
2201 87
2202 15
2203 2
2204 62
2205 19
2206 2
2207 6
2208 88
2209 62
2210 62
2211 126
2212 86
2213 82
2214 85
2215 46
2216 103
2217 61
2218 2
2219 5
2220 65
2221 40
2222 25
2223 2
2224 15
2225 6
2226 75
2227 19
2228 89
2229 56
2230 55
2231 10
2232 79
2233 11
2234 85
2235 88
2236 56
2237 66
2238 105
2239 60
2240 31
2241 104
2242 31
2243 76
2244 43
2245 84
2246 117
2247 55
2248 114
2249 78
2250 15
2251 15
2252 109
2253 54
2254 93
2255 121
2256 41
2257 81
2258 84
2259 86
2260 92
2261 76
2262 91
2263 78
2264 11
2265 17
2266 39
2267 88
2268 119
2269 12
2270 9
2271 57
2272 76
2273 8
2274 14
2275 98
2276 83
2277 45
2278 72
2279 60
2280 90
2281 24
2282 26
2283 83
2284 28
2285 106
2286 91
2287 99
2288 85
2289 103
2290 86
2291 95
2292 2
2293 93
2294 91
2295 2
2296 36
2297 73
2298 112
2299 28
2300 9
2301 26
2302 50
2303 68
2304 93
2305 62
2306 44
2307 58
2308 23
2309 9
2310 3
2311 113
2312 11
2313 24
2314 77
2315 67
2316 20
2317 11
2318 34
2319 60
2320 118
2321 2
2322 69
2323 112
2324 42
2325 112
2326 76
2327 20
2328 30
2329 84
2330 95
2331 34
2332 124
2333 77
2334 26
2335 31
2336 107
2337 125
2338 75
2339 98
2340 66
2341 86
2342 85
2343 30
2344 47
2345 20
2346 11
2347 18
2348 14
2349 17
2350 9
2351 40
2352 86
2353 112
2354 86
2355 57
2356 16
2357 81
2358 22
2359 16
2360 85
2361 33
2362 63
2363 86
2364 92
2365 110
2366 26
2367 4
2368 84
2369 102
2370 32
2371 16
2372 74
2373 25
2374 17
2375 95
2376 42
2377 16
2378 30
2379 14
2380 51
2381 70
2382 72
2383 116
2384 11
2385 98
2386 70
2387 58
2388 11
2389 36
2390 46
2391 91
2392 112
2393 92
2394 22
2395 22
2396 123
2397 22
2398 107
2399 0
2400 90
2401 54
2402 91
2403 53
2404 16
2405 16
2406 105
2407 22
2408 91
2409 113
2410 11
2411 31
2412 22
2413 86
2414 28
2415 60
2416 76
2417 75
2418 11
2419 107
2420 20
2421 117
2422 57
2423 116
2424 6
2425 22
2426 10
2427 25
2428 33
2429 70
2430 107
2431 3
2432 22
2433 11
2434 77
2435 72
2436 112
2437 64
2438 10
2439 19
2440 111
2441 15
2442 111
2443 60
2444 89
2445 0
2446 16
2447 91
2448 50
2449 52
2450 29
2451 0
2452 30
2453 20
2454 17
2455 76
2456 64
2457 84
2458 11
2459 5
2460 62
2461 22
2462 42
2463 11
2464 75
2465 107
2466 32
2467 76
2468 81
2469 15
2470 28
2471 50
2472 93
2473 109
2474 34
2475 96
2476 86
2477 77
2478 33
2479 22
2480 25
2481 105
2482 77
2483 89
2484 56
2485 30
2486 125
2487 24
2488 11
2489 63
2490 107
2491 98
2492 16
2493 89
2494 79
2495 63
2496 24
2497 107
2498 11
2499 20
2500 2
2501 26
2502 19
2503 11
2504 46
2505 107
2506 107
2507 79
2508 52
2509 10
2510 0
2511 87
2512 87
2513 81
2514 47
2515 77
2516 26
2517 76
2518 98
2519 81
2520 63
2521 63
2522 46
2523 22
2524 5
2525 0
2526 72
2527 60
2528 62
2529 7
2530 0
2531 27
2532 6
2533 47
2534 45
2535 72
2536 2
2537 13
2538 2
2539 27
2540 107
2541 9
2542 11
2543 11
2544 77
2545 100
2546 98
2547 74
2548 45
2549 26
2550 63
2551 72
2552 20
2553 49
2554 12
2555 45
2556 2
2557 92
2558 56
2559 24
2560 112
2561 30
2562 81
2563 100
2564 79
2565 26
2566 102
2567 83
2568 53
2569 70
2570 50
2571 63
2572 25
2573 53
2574 123
2575 10
2576 47
2577 76
2578 98
2579 4
2580 102
2581 22
2582 11
2583 39
2584 57
2585 86
2586 45
2587 78
2588 15
2589 89
2590 5
2591 2
2592 45
2593 8
2594 11
2595 2
2596 32
2597 73
2598 28
2599 47
2600 92
2601 69
2602 79
2603 28
2604 0
2605 3
2606 12
2607 45
2608 79
2609 5
2610 83
2611 24
2612 83
2613 29
2614 11
2615 20
2616 16
2617 36
2618 56
2619 13
2620 2
2621 14
2622 53
2623 91
2624 19
2625 48
2626 56
2627 91
2628 70
2629 109
2630 83
2631 46
2632 89
2633 27
2634 24
2635 45
2636 83
2637 27
2638 5
2639 7
2640 56
2641 72
2642 40
2643 46
2644 72
2645 1
2646 103
2647 82
2648 91
2649 55
2650 76
2651 39
2652 5
2653 51
2654 124
2655 45
2656 66
2657 56
2658 96
2659 52
2660 40
2661 2
2662 30
2663 30
2664 98
2665 91
2666 35
2667 86
2668 30
2669 2
2670 65
2671 85
2672 45
2673 102
2674 112
2675 70
2676 123
2677 63
2678 76
2679 29
2680 22
2681 6
2682 47
2683 86
2684 72
2685 24
2686 120
2687 14
2688 17
2689 20
2690 79
2691 20
2692 86
2693 15
2694 56
2695 76
2696 76
2697 127
2698 11
2699 72
2700 36
2701 127
2702 52
2703 11
2704 56
2705 63
2706 72
2707 107
2708 16
2709 60
2710 40
2711 65
2712 52
2713 58
2714 15
2715 53
2716 19
2717 5
2718 91
2719 98
2720 2
2721 51
2722 16
2723 22
2724 62
2725 11
2726 30
2727 88
2728 65
2729 2
2730 84
2731 60
2732 73
2733 98
2734 73
2735 67
2736 14
2737 27
2738 27
2739 16
2740 72
2741 2
2742 24
2743 16
2744 46
2745 91
2746 13
2747 65
2748 28
2749 20
2750 20
2751 22
2752 11
2753 81
2754 16
2755 7
2756 58
2757 72
2758 35
2759 83
2760 14
2761 15
2762 16
2763 72
2764 107
2765 56
2766 63
2767 81
2768 93
2769 53
2770 16
2771 31
2772 86
2773 83
2774 107
2775 61
2776 72
2777 107
2778 72
2779 11
2780 98
2781 89
2782 63
2783 84
2784 107
2785 5
2786 25
2787 90
2788 72
2789 11
2790 86
2791 27
2792 27
2793 54
2794 10
2795 54
2796 60
2797 98
2798 85
2799 64
2800 29
2801 19
2802 50
2803 48
2804 72
2805 102
2806 56
2807 11
2808 11
2809 107
2810 34
2811 56
2812 91
2813 93
2814 72
2815 12
2816 63
2817 102
2818 107
2819 96
2820 107
2821 91
2822 9
2823 14
2824 74
2825 2
2826 107
2827 45
2828 74
2829 11
2830 64
2831 40
2832 93
2833 63
2834 74
2835 20
2836 69
2837 56
2838 107
2839 45
2840 98
2841 44
2842 11
2843 47
2844 2
2845 22
2846 29
2847 74
2848 63
2849 62
2850 42
2851 72
2852 47
2853 98
2854 34
2855 20
2856 56
2857 11
2858 50
2859 60
2860 33
2861 84
2862 5
2863 107
2864 33
2865 30
2866 61
2867 11
2868 92
2869 53
2870 36
2871 36
2872 40
2873 38
2874 74
2875 47
2876 26
2877 59
2878 76
2879 51
2880 74
2881 11
2882 72
2883 62
2884 56
2885 93
2886 11
2887 11
2888 29
2889 56
2890 48
2891 45
2892 74
2893 107
2894 66
2895 56
2896 45
2897 33
2898 16
2899 107
2900 57
2901 63
2902 89
2903 62
2904 5
2905 11
2906 103
2907 6
2908 16
2909 34
2910 63
2911 2
2912 23
2913 70
2914 63
2915 23
2916 17
2917 60
2918 86
2919 22
2920 107
2921 50
2922 2
2923 74
2924 63
2925 89
2926 79
2927 79
2928 2
2929 100
2930 34
2931 25
2932 20
2933 79
2934 89
2935 50
2936 23
2937 72
2938 5
2939 60
2940 89
2941 55
2942 29
2943 34
2944 20
2945 91
2946 92
2947 105
2948 117
2949 47
2950 56
2951 23
2952 60
2953 27
2954 6
2955 16
2956 72
2957 72
2958 16
2959 16
2960 45
2961 23
2962 83
2963 0
2964 93
2965 63
2966 20
2967 79
2968 63
2969 23
2970 84
2971 27
2972 14
2973 27
2974 101
2975 30
2976 20
2977 89
2978 24
2979 124
2980 89
2981 63
2982 47
2983 121
2984 27
2985 2
2986 53
2987 10
2988 29
2989 56
2990 79
2991 16
2992 29
2993 5
2994 56
2995 16
2996 24
2997 5
2998 98
2999 89
3000 45
3001 60
3002 28
3003 2
3004 2
3005 63
3006 20
3007 22
3008 20
3009 54
3010 34
3011 23
3012 60
3013 16
3014 6
3015 102
3016 63
3017 91
3018 5
3019 60
3020 79
3021 25
3022 93
3023 107
3024 47
3025 2
3026 107
3027 60
3028 16
3029 60
3030 66
3031 22
3032 74
3033 10
3034 100
3035 50
3036 45
3037 56
3038 45
3039 93
3040 22
3041 95
3042 2
3043 56
3044 27
3045 20
3046 63
3047 32
3048 46
3049 46
3050 22
3051 23
3052 27
3053 102
3054 107
3055 89
3056 65
3057 89
3058 27
3059 47
3060 16
3061 60
3062 22
3063 56
3064 29
3065 91
3066 11
3067 27
3068 47
3069 48
3070 46
3071 91
3072 73
3073 1
3074 65
3075 8
3076 91
3077 100
3078 72
3079 77
3080 9
3081 24
3082 11
3083 60
3084 46
3085 27
3086 47
3087 30
3088 39
3089 20
3090 91
3091 11
3092 55
3093 11
3094 13
3095 53
3096 11
3097 52
3098 74
3099 11
3100 53
3101 3
3102 13
3103 56
3104 115
3105 16
3106 24
3107 86
3108 91
3109 56
3110 93
3111 112
3112 12
3113 56
3114 74
3115 2
3116 11
3117 56
3118 84
3119 16
3120 11
3121 5
3122 107
3123 23
3124 72
3125 34
3126 5
3127 2
3128 91
3129 62
3130 104
3131 5
3132 47
3133 2
3134 34
3135 27
3136 32
3137 40
3138 42
3139 23
3140 69
3141 2
3142 28
3143 72
3144 38
3145 36
3146 5
3147 50
3148 60
3149 14
3150 48
3151 117
3152 93
3153 103
3154 48
3155 2
3156 76
3157 29
3158 52
3159 56
3160 89
3161 47
3162 36
3163 56
3164 20
3165 63
3166 43
3167 34
3168 24
3169 51
3170 107
3171 6
3172 40
3173 92
3174 34
3175 34
3176 94
3177 22
3178 22
3179 67
3180 22
3181 91
3182 31
3183 79
3184 16
3185 74
3186 20
3187 27
3188 91
3189 29
3190 31
3191 23
3192 54
3193 26
3194 22
3195 47
3196 24
3197 5
3198 90
3199 91
3200 34
3201 123
3202 55
3203 56
3204 9
3205 2
3206 5
3207 30
3208 72
3209 77
3210 100
3211 53
3212 30
3213 15
3214 88
3215 122
3216 47
3217 27
3218 75
3219 45
3220 11
3221 24
3222 42
3223 23
3224 31
3225 22
3226 34
3227 105
3228 63
3229 45
3230 26
3231 20
3232 84
3233 32
3234 31
3235 22
3236 76
3237 61
3238 22
3239 5
3240 32
3241 20
3242 28
3243 91
3244 93
3245 5
3246 25
3247 84
3248 103
3249 12
3250 81
3251 37
3252 47
3253 32
3254 76
3255 22
3256 32
3257 6
3258 2
3259 28
3260 20
3261 73
3262 86
3263 80
3264 29
3265 38
3266 92
3267 11
3268 11
3269 22
3270 15
3271 22
3272 76
3273 10
3274 31
3275 15
3276 11
3277 76
3278 15
3279 86
3280 36
3281 90
3282 2
3283 46
3284 11
3285 48
3286 47
3287 60
3288 86
3289 91
3290 2
3291 34
3292 96
3293 34
3294 34
3295 7
3296 31
3297 72
3298 42
3299 29
3300 16
3301 35
3302 27
3303 84
3304 9
3305 13
3306 34
3307 5
3308 62
3309 14
3310 91
3311 2
3312 123
3313 34
3314 45
3315 5
3316 99
3317 72
3318 60
3319 50
3320 110
3321 34
3322 11
3323 56
3324 88
3325 29
3326 5
3327 102
3328 30
3329 7
3330 15
3331 91
3332 34
3333 81
3334 2
3335 91
3336 11
3337 22
3338 56
3339 56
3340 22
3341 25
3342 100
3343 16
3344 86
3345 2
3346 91
3347 86
3348 34
3349 20
3350 66
3351 86
3352 2
3353 124
3354 20
3355 40
3356 20
3357 29
3358 69
3359 2
3360 126
3361 107
3362 90
3363 2
3364 16
3365 60
3366 56
3367 32
3368 12
3369 25
3370 60
3371 5
3372 56
3373 22
3374 20
3375 63
3376 74
3377 65
3378 114
3379 70
3380 102
3381 34
3382 17
3383 116
3384 91
3385 48
3386 107
3387 67
3388 56
3389 17
3390 84
3391 61
3392 34
3393 34
3394 33
3395 54
3396 72
3397 16
3398 34
3399 52
3400 61
3401 99
3402 115
3403 113
3404 107
3405 104
3406 84
3407 40
3408 107
3409 68
3410 40
3411 91
3412 11
3413 91
3414 69
3415 88
3416 40
3417 20
3418 36
3419 16
3420 72
3421 76
3422 107
3423 84
3424 34
3425 2
3426 69
3427 11
3428 11
3429 104
3430 117
3431 26
3432 2
3433 65
3434 43
3435 79
3436 74
3437 56
3438 107
3439 70
3440 22
3441 90
3442 20
3443 32
3444 2
3445 60
3446 16
3447 6
3448 91
3449 91
3450 85
3451 95
3452 38
3453 16
3454 15
3455 74
3456 34
3457 2
3458 1
3459 20
3460 100
3461 20
3462 52
3463 20
3464 56
3465 86
3466 52
3467 56
3468 56
3469 30
3470 11
3471 2
3472 32
3473 51
3474 63
3475 72
3476 98
3477 27
3478 11
3479 53
3480 89
3481 66
3482 5
3483 7
3484 5
3485 76
3486 63
3487 1
3488 63
3489 20
3490 56
3491 73
3492 25
3493 46
3494 12
3495 91
3496 34
3497 107
3498 20
3499 8
3500 102
3501 117
3502 29
3503 53
3504 81
3505 56
3506 65
3507 3
3508 91
3509 103
3510 16
3511 120
3512 56
3513 20
3514 112
3515 56
3516 34
3517 26
3518 2
3519 2
3520 25
3521 34
3522 91
3523 46
3524 65
3525 17
3526 5
3527 93
3528 33
3529 33
3530 107
3531 5
3532 47
3533 63
3534 5
3535 13
3536 89
3537 91
3538 22
3539 11
3540 34
3541 89
3542 95
3543 20
3544 92
3545 55
3546 34
3547 91
3548 89
3549 34
3550 46
3551 95
3552 39
3553 14
3554 13
3555 74
3556 66
3557 5
3558 72
3559 27
3560 65
3561 5
3562 74
3563 5
3564 11
3565 79
3566 93
3567 63
3568 13
3569 93
3570 63
3571 49
3572 59
3573 11
3574 5
3575 20
3576 15
3577 25
3578 56
3579 43
3580 93
3581 27
3582 27
3583 67
3584 50
3585 18
3586 53
3587 23
3588 89
3589 2
3590 22
3591 27
3592 30
3593 26
3594 24
3595 65
3596 2
3597 112
3598 65
3599 79
3600 11
3601 79
3602 40
3603 62
3604 4
3605 26
3606 91
3607 26
3608 12
3609 74
3610 106
3611 88
3612 2
3613 66
3614 0
3615 63
3616 42
3617 108
3618 50
3619 54
3620 72
3621 102
3622 70
3623 65
3624 30
3625 34
3626 47
3627 84
3628 93
3629 31
3630 2
3631 2
3632 101
3633 15
3634 56
3635 5
3636 66
3637 73
3638 91
3639 15
3640 25
3641 68
3642 54
3643 125
3644 24
3645 38
3646 17
3647 46
3648 74
3649 63
3650 2
3651 55
3652 5
3653 91
3654 2
3655 74
3656 5
3657 65
3658 56
3659 34
3660 5
3661 79
3662 22
3663 22
3664 109
3665 17
3666 38
3667 31
3668 20
3669 53
3670 48
3671 16
3672 11
3673 10
3674 47
3675 5
3676 55
3677 34
3678 11
3679 60
3680 60
3681 11
3682 25
3683 34
3684 54
3685 20
3686 30
3687 2
3688 108
3689 76
3690 89
3691 114
3692 91
3693 60
3694 46
3695 107
3696 5
3697 109
3698 60
3699 74
3700 29
3701 22
3702 36
3703 103
3704 72
3705 61
3706 16
3707 4
3708 5
3709 5
3710 2
3711 91
3712 53
3713 107
3714 107
3715 107
3716 15
3717 122
3718 27
3719 85
3720 2
3721 72
3722 2
3723 13
3724 5
3725 35
3726 33
3727 52
3728 11
3729 76
3730 15
3731 84
3732 16
3733 72
3734 86
3735 114
3736 5
3737 2
3738 56
3739 15
3740 22
3741 30
3742 35
3743 79
3744 75
3745 22
3746 15
3747 51
3748 34
3749 14
3750 22
3751 2
3752 11
3753 102
3754 107
3755 102
3756 2
3757 74
3758 34
3759 72
3760 74
3761 34
3762 96
3763 0
3764 47
3765 56
3766 15
3767 75
3768 107
3769 45
3770 22
3771 11
3772 70
3773 92
3774 32
3775 34
3776 89
3777 91
3778 12
3779 73
3780 88
3781 55
3782 23
3783 66
3784 72
3785 22
3786 22
3787 72
3788 56
3789 15
3790 34
3791 7
3792 98
3793 34
3794 10
3795 74
3796 107
3797 107
3798 72
3799 114
3800 5
3801 11
3802 72
3803 15
3804 73
3805 63
3806 76
3807 63
3808 2
3809 32
3810 11
3811 2
3812 11
3813 91
3814 120
3815 91
3816 107
3817 98
3818 72
3819 91
3820 34
3821 31
3822 72
3823 2
3824 34
3825 2
3826 34
3827 89
3828 60
3829 89
3830 22
3831 6
3832 100
3833 46
3834 11
3835 92
3836 22
3837 11
3838 77
3839 96
3840 39
3841 31
3842 56
3843 62
3844 92
3845 74
3846 81
3847 34
3848 10
3849 72
3850 34
3851 56
3852 37
3853 89
3854 5
3855 45
3856 107
3857 26
3858 11
3859 45
3860 91
3861 47
3862 15
3863 72
3864 47
3865 118
3866 47
3867 74
3868 20
3869 34
3870 16
3871 34
3872 2
3873 63
3874 47
3875 34
3876 23
3877 88
3878 72
3879 5
3880 74
3881 86
3882 45
3883 6
3884 89
3885 28
3886 55
3887 38
3888 11
3889 17
3890 72
3891 29
3892 91
3893 45
3894 17
3895 38
3896 16
3897 20
3898 47
3899 67
3900 22
3901 109
3902 33
3903 36
3904 11
3905 50
3906 29
3907 45
3908 63
3909 86
3910 52
3911 20
3912 86
3913 57
3914 107
3915 72
3916 99
3917 54
3918 63
3919 11
3920 34
3921 107
3922 63
3923 20
3924 34
3925 16
3926 5
3927 47
3928 14
3929 26
3930 47
3931 98
3932 45
3933 29
3934 11
3935 74
3936 27
3937 23
3938 16
3939 15
3940 74
3941 2
3942 70
3943 56
3944 18
3945 72
3946 91
3947 34
3948 27
3949 86
3950 2
3951 47
3952 50
3953 2
3954 20
3955 88
3956 89
3957 89
3958 34
3959 88
3960 63
3961 29
3962 1
3963 72
3964 2
3965 27
3966 45
3967 29
3968 79
3969 86
3970 11
3971 39
3972 9
3973 23
3974 72
3975 72
3976 102
3977 50
3978 29
3979 48
3980 56
3981 45
3982 107
3983 72
3984 22
3985 27
3986 79
3987 89
3988 47
3989 34
3990 63
3991 0
3992 75
3993 63
3994 89
3995 50
3996 63
3997 50
3998 45
3999 5
4000 72
4001 107
4002 3
4003 11
4004 74
4005 91
4006 27
4007 56
4008 85
4009 65
4010 22
4011 54
4012 91
4013 30
4014 89
4015 56
4016 13
4017 85
4018 56
4019 72
4020 30
4021 2
4022 0
4023 10
4024 20
4025 29
4026 5
4027 107
4028 121
4029 72
4030 22
4031 27
4032 34
4033 70
4034 11
4035 45
4036 89
4037 72
4038 23
4039 107
4040 11
4041 58
4042 86
4043 16
4044 10
4045 29
4046 10
4047 91
4048 21
4049 47
4050 56
4051 32
4052 74
4053 2
4054 60
4055 103
4056 74
4057 2
4058 77
4059 22
4060 1
4061 29
4062 23
4063 45
4064 11
4065 22
4066 20
4067 29
4068 22
4069 56
4070 5
4071 17
4072 53
4073 2
4074 45
4075 5
4076 15
4077 47
4078 12
4079 30
4080 11
4081 17
4082 16
4083 27
4084 29
4085 0
4086 20
4087 20
4088 56
4089 15
4090 7
4091 10
4092 2
4093 5
4094 23
4095 25
4096 104
4097 54
4098 0
4099 21
4100 34
4101 33
4102 63
4103 48
4104 11
4105 47
4106 50
4107 48
4108 55
4109 60
4110 71
4111 46
4112 23
4113 48
4114 24
4115 49
4116 11
4117 21
4118 53
4119 65
4120 10
4121 107
4122 50
4123 50
4124 60
4125 47
4126 6
4127 3
4128 11
4129 46
4130 18
4131 11
4132 74
4133 27
4134 65
4135 34
4136 31
4137 29
4138 94
4139 29
4140 5
4141 65
4142 27
4143 49
4144 98
4145 47
4146 11
4147 11
4148 48
4149 29
4150 79
4151 25
4152 48
4153 83
4154 11
4155 30
4156 46
4157 29
4158 27
4159 89
4160 23
4161 109
4162 30
4163 79
4164 74
4165 29
4166 52
4167 92
4168 57
4169 2
4170 91
4171 111
4172 23
4173 76
4174 89
4175 60
4176 13
4177 23
4178 55
4179 89
4180 86
4181 47
4182 62
4183 24
4184 34
4185 30
4186 1
4187 63
4188 76
4189 35
4190 68
4191 11
4192 65
4193 13
4194 47
4195 23
4196 72
4197 126
4198 54
4199 103
4200 75
4201 0
4202 24
4203 65
4204 89
4205 84
4206 103
4207 75
4208 60
4209 55
4210 41
4211 3
4212 47
4213 25
4214 45
4215 79
4216 86
4217 5
4218 106
4219 57
4220 0
4221 35
4222 77
4223 47
4224 11
4225 118
4226 72
4227 122
4228 62
4229 22
4230 11
4231 21
4232 37
4233 7
4234 29
4235 21
4236 54
4237 29
4238 4
4239 11
4240 67
4241 14
4242 79
4243 109
4244 30
4245 29
4246 63
4247 63
4248 27
4249 63
4250 14
4251 77
4252 63
4253 107
4254 76
4255 37
4256 47
4257 11
4258 53
4259 16
4260 11
4261 30
4262 52
4263 85
4264 11
4265 11
4266 24
4267 25
4268 44
4269 40
4270 70
4271 32
4272 82
4273 81
4274 29
4275 53
4276 86
4277 89
4278 94
4279 67
4280 106
4281 6
4282 73
4283 63
4284 93
4285 73
4286 88
4287 92
4288 33
4289 27
4290 28
4291 27
4292 4
4293 5
4294 53
4295 13
4296 66
4297 15
4298 65
4299 48
4300 63
4301 33
4302 8
4303 98
4304 102
4305 80
4306 125
4307 29
4308 99
4309 15
4310 91
4311 53
4312 123
4313 71
4314 32
4315 92
4316 15
4317 104
4318 76
4319 93
4320 76
4321 31
4322 110
4323 11
4324 92
4325 56
4326 45
4327 98
4328 106
4329 42
4330 58
4331 11
4332 85
4333 99
4334 96
4335 89
4336 102
4337 60
4338 25
4339 11
4340 68
4341 26
4342 121
4343 98
4344 23
4345 50
4346 87
4347 65
4348 77
4349 47
4350 66
4351 57
4352 96
4353 12
4354 27
4355 50
4356 2
4357 91
4358 98
4359 46
4360 5
4361 105
4362 25
4363 8
4364 76
4365 22
4366 11
4367 17
4368 91
4369 29
4370 42
4371 82
4372 103
4373 51
4374 13
4375 60
4376 11
4377 53
4378 45
4379 36
4380 75
4381 54
4382 91
4383 40
4384 20
4385 15
4386 121
4387 44
4388 24
4389 42
4390 88
4391 11
4392 107
4393 35
4394 65
4395 107
4396 62
4397 16
4398 77
4399 79
4400 20
4401 15
4402 91
4403 34
4404 39
4405 88
4406 26
4407 74
4408 11
4409 54
4410 1
4411 34
4412 26
4413 91
4414 48
4415 16
4416 54
4417 123
4418 29
4419 8
4420 105
4421 15
4422 93
4423 91
4424 43
4425 98
4426 23
4427 109
4428 107
4429 98
4430 54
4431 21
4432 52
4433 11
4434 93
4435 79
4436 107
4437 74
4438 22
4439 47
4440 119
4441 22
4442 16
4443 66
4444 76
4445 53
4446 70
4447 23
4448 91
4449 27
4450 74
4451 76
4452 74
4453 24
4454 76
4455 68
4456 19
4457 86
4458 17
4459 53
4460 3
4461 106
4462 11
4463 91
4464 37
4465 93
4466 53
4467 31
4468 2
4469 55
4470 74
4471 75
4472 61
4473 54
4474 38
4475 11
4476 91
4477 91
4478 17
4479 53
4480 69
4481 103
4482 107
4483 35
4484 17
4485 55
4486 86
4487 26
4488 11
4489 74
4490 75
4491 23
4492 89
4493 89
4494 70
4495 91
4496 91
4497 20
4498 59
4499 16
4500 102
4501 95
4502 76
4503 107
4504 33
4505 5
4506 46
4507 36
4508 74
4509 5
4510 62
4511 58
4512 72
4513 5
4514 84
4515 20
4516 23
4517 40
4518 84
4519 20
4520 74
4521 62
4522 111
4523 16
4524 74
4525 92
4526 91
4527 46
4528 106
4529 73
4530 107
4531 20
4532 120
4533 89
4534 105
4535 91
4536 63
4537 24
4538 86
4539 46
4540 99
4541 45
4542 11
4543 74
4544 99
4545 2
4546 45
4547 102
4548 5
4549 5
4550 20
4551 47
4552 22
4553 8
4554 102
4555 22
4556 32
4557 79
4558 16
4559 56
4560 28
4561 10
4562 72
4563 56
4564 95
4565 10
4566 35
4567 90
4568 89
4569 58
4570 91
4571 81
4572 91
4573 13
4574 91
4575 93
4576 5
4577 22
4578 0
4579 45
4580 24
4581 11
4582 22
4583 56
4584 16
4585 91
4586 46
4587 102
4588 107
4589 85
4590 2
4591 89
4592 107
4593 62
4594 107
4595 2
4596 65
4597 26
4598 89
4599 47
4600 22
4601 14
4602 47
4603 11
4604 65
4605 41
4606 66
4607 63
4608 112
4609 75
4610 106
4611 20
4612 20
4613 74
4614 113
4615 63
4616 91
4617 40
4618 127
4619 43
4620 93
4621 81
4622 24
4623 58
4624 46
4625 63
4626 50
4627 86
4628 40
4629 79
4630 29
4631 73
4632 81
4633 11
4634 48
4635 79
4636 11
4637 10
4638 91
4639 86
4640 15
4641 79
4642 86
4643 11
4644 11
4645 70
4646 70
4647 95
4648 91
4649 32
4650 50
4651 0
4652 93
4653 63
4654 27
4655 127
4656 104
4657 74
4658 123
4659 71
4660 16
4661 10
4662 16
4663 70
4664 2
4665 29
4666 56
4667 5
4668 11
4669 47
4670 107
4671 47
4672 29
4673 20
4674 20
4675 102
4676 39
4677 103
4678 27
4679 85
4680 45
4681 29
4682 42
4683 56
4684 11
4685 16
4686 56
4687 44
4688 12
4689 102
4690 55
4691 5
4692 76
4693 113
4694 16
4695 47
4696 89
4697 13
4698 11
4699 95
4700 5
4701 2
4702 63
4703 47
4704 91
4705 79
4706 79
4707 43
4708 76
4709 66
4710 29
4711 1
4712 35
4713 45
4714 120
4715 91
4716 21
4717 50
4718 91
4719 107
4720 9
4721 16
4722 56
4723 20
4724 31
4725 95
4726 2
4727 62
4728 91
4729 29
4730 13
4731 98
4732 107
4733 56
4734 56
4735 6
4736 91
4737 91
4738 79
4739 25
4740 50
4741 92
4742 20
4743 76
4744 60
4745 110
4746 77
4747 100
4748 13
4749 0
4750 22
4751 11
4752 11
4753 71
4754 6
4755 71
4756 5
4757 79
4758 72
4759 124
4760 11
4761 7
4762 98
4763 63
4764 33
4765 5
4766 14
4767 14
4768 103
4769 16
4770 22
4771 55
4772 20
4773 22
4774 5
4775 93
4776 58
4777 63
4778 22
4779 56
4780 56
4781 107
4782 22
4783 107
4784 11
4785 8
4786 98
4787 8
4788 14
4789 86
4790 48
4791 56
4792 86
4793 79
4794 35
4795 63
4796 43
4797 20
4798 20
4799 84
4800 56
4801 2
4802 2
4803 5
4804 98
4805 63
4806 11
4807 74
4808 91
4809 56
4810 72
4811 2
4812 2
4813 46
4814 22
4815 91
4816 56
4817 17
4818 3
4819 20
4820 49
4821 76
4822 90
4823 74
4824 11
4825 16
4826 20
4827 36
4828 26
4829 55
4830 75
4831 107
4832 34
4833 26
4834 63
4835 20
4836 22
4837 107
4838 34
4839 88
4840 89
4841 56
4842 89
4843 52
4844 107
4845 13
4846 16
4847 2
4848 62
4849 52
4850 63
4851 17
4852 20
4853 56
4854 50
4855 85
4856 89
4857 22
4858 56
4859 84
4860 50
4861 29
4862 91
4863 107
4864 95
4865 16
4866 91
4867 16
4868 107
4869 72
4870 91
4871 66
4872 95
4873 45
4874 27
4875 20
4876 2
4877 17
4878 11
4879 91
4880 56
4881 13
4882 26
4883 79
4884 34
4885 46
4886 92
4887 98
4888 2
4889 34
4890 66
4891 112
4892 16
4893 7
4894 74
4895 107
4896 56
4897 91
4898 34
4899 102
4900 98
4901 11
4902 2
4903 15
4904 74
4905 16
4906 89
4907 60
4908 20
4909 66
4910 31
4911 119
4912 66
4913 70
4914 20
4915 75
4916 22
4917 88
4918 33
4919 56
4920 16
4921 91
4922 76
4923 60
4924 60
4925 2
4926 63
4927 62
4928 11
4929 29
4930 38
4931 59
4932 66
4933 20
4934 56
4935 15
4936 89
4937 74
4938 89
4939 35
4940 59
4941 29
4942 107
4943 98
4944 52
4945 60
4946 5
4947 92
4948 81
4949 5
4950 47
4951 56
4952 58
4953 11
4954 110
4955 63
4956 91
4957 31
4958 2
4959 11
4960 25
4961 11
4962 23
4963 25
4964 107
4965 31
4966 109
4967 63
4968 72
4969 45
4970 20
4971 88
4972 107
4973 53
4974 63
4975 29
4976 45
4977 89
4978 16
4979 70
4980 74
4981 33
4982 86
4983 63
4984 63
4985 29
4986 76
4987 27
4988 2
4989 27
4990 42
4991 31
4992 34
4993 114
4994 20
4995 20
4996 23
4997 63
4998 79
4999 79
5000 11
5001 7
5002 2
5003 22
5004 0
5005 79
5006 102
5007 34
5008 72
5009 56
5010 11
5011 76
5012 56
5013 22
5014 79
5015 72
5016 89
5017 74
5018 76
5019 29
5020 7
5021 102
5022 70
5023 23
5024 29
5025 79
5026 89
5027 102
5028 11
5029 16
5030 79
5031 103
5032 20
5033 79
5034 47
5035 12
5036 45
5037 26
5038 16
5039 47
5040 28
5041 56
5042 104
5043 74
5044 60
5045 45
5046 60
5047 96
5048 2
5049 29
5050 60
5051 45
5052 2
5053 71
5054 60
5055 45
5056 11
5057 76
5058 91
5059 23
5060 63
5061 102
5062 74
5063 31
5064 13
5065 4
5066 102
5067 26
5068 22
5069 74
5070 74
5071 107
5072 72
5073 86
5074 45
5075 72
5076 60
5077 80
5078 5
5079 20
5080 34
5081 63
5082 56
5083 29
5084 99
5085 93
5086 5
5087 107
5088 25
5089 121
5090 22
5091 91
5092 29
5093 56
5094 16
5095 2
5096 1
5097 22
5098 29
5099 22
5100 54
5101 11
5102 45
5103 16
5104 67
5105 20
5106 23
5107 89
5108 47
5109 30
5110 74
5111 47
5112 105
5113 107
5114 22
5115 20
5116 35
5117 11
5118 91
5119 33
5120 108
5121 15
5122 50
5123 33
5124 102
5125 84
5126 55
5127 91
5128 92
5129 10
5130 40
5131 2
5132 2
5133 91
5134 18
5135 88
5136 11
5137 47
5138 34
5139 108
5140 91
5141 7
5142 5
5143 47
5144 30
5145 63
5146 107
5147 29
5148 80
5149 11
5150 17
5151 102
5152 27
5153 2
5154 91
5155 24
5156 15
5157 121
5158 34
5159 106
5160 12
5161 18
5162 19
5163 87
5164 11
5165 55
5166 83
5167 92
5168 34
5169 87
5170 63
5171 58
5172 2
5173 56
5174 8
5175 60
5176 29
5177 96
5178 56
5179 2
5180 55
5181 46
5182 23
5183 86
5184 20
5185 2
5186 112
5187 63
5188 55
5189 109
5190 86
5191 27
5192 20
5193 22
5194 5
5195 16
5196 16
5197 20
5198 76
5199 5
5200 56
5201 53
5202 23
5203 112
5204 59
5205 56
5206 23
5207 119
5208 69
5209 34
5210 16
5211 0
5212 35
5213 23
5214 24
5215 0
5216 56
5217 20
5218 74
5219 76
5220 60
5221 112
5222 91
5223 22
5224 55
5225 11
5226 29
5227 76
5228 62
5229 123
5230 11
5231 74
5232 65
5233 56
5234 27
5235 62
5236 16
5237 16
5238 6
5239 20
5240 88
5241 24
5242 24
5243 22
5244 103
5245 23
5246 24
5247 34
5248 34
5249 91
5250 36
5251 27
5252 11
5253 72
5254 73
5255 0
5256 23
5257 78
5258 15
5259 91
5260 2
5261 16
5262 127
5263 89
5264 13
5265 123
5266 46
5267 83
5268 29
5269 11
5270 86
5271 115
5272 56
5273 9
5274 27
5275 91
5276 5
5277 74
5278 31
5279 76
5280 23
5281 86
5282 13
5283 47
5284 34
5285 22
5286 25
5287 48
5288 34
5289 86
5290 115
5291 2
5292 47
5293 88
5294 0
5295 5
5296 20
5297 20
5298 20
5299 16
5300 72
5301 5
5302 11
5303 5
5304 16
5305 58
5306 2
5307 45
5308 91
5309 105
5310 22
5311 42
5312 34
5313 122
5314 80
5315 20
5316 78
5317 31
5318 93
5319 6
5320 34
5321 72
5322 5
5323 16
5324 16
5325 99
5326 72
5327 3
5328 34
5329 76
5330 91
5331 22
5332 98
5333 34
5334 11
5335 2
5336 91
5337 35
5338 88
5339 2
5340 53
5341 56
5342 84
5343 98
5344 34
5345 79
5346 10
5347 92
5348 11
5349 10
5350 11
5351 98
5352 11
5353 73
5354 91
5355 27
5356 11
5357 93
5358 15
5359 25
5360 5
5361 29
5362 32
5363 92
5364 15
5365 86
5366 19
5367 50
5368 17
5369 56
5370 2
5371 56
5372 48
5373 26
5374 93
5375 62
5376 20
5377 20
5378 27
5379 27
5380 91
5381 16
5382 78
5383 81
5384 91
5385 11
5386 20
5387 46
5388 22
5389 22
5390 95
5391 76
5392 22
5393 16
5394 84
5395 39
5396 92
5397 23
5398 71
5399 25
5400 84
5401 2
5402 30
5403 14
5404 91
5405 23
5406 20
5407 23
5408 47
5409 15
5410 24
5411 20
5412 102
5413 86
5414 26
5415 22
5416 16
5417 62
5418 84
5419 56
5420 20
5421 44
5422 74
5423 74
5424 107
5425 16
5426 74
5427 45
5428 5
5429 110
5430 22
5431 56
5432 76
5433 38
5434 50
5435 10
5436 54
5437 22
5438 26
5439 91
5440 56
5441 35
5442 112
5443 114
5444 9
5445 27
5446 103
5447 74
5448 56
5449 66
5450 121
5451 98
5452 64
5453 107
5454 92
5455 12
5456 1
5457 5
5458 107
5459 27
5460 14
5461 14
5462 65
5463 16
5464 16
5465 22
5466 62
5467 109
5468 22
5469 76
5470 54
5471 62
5472 74
5473 20
5474 11
5475 20
5476 39
5477 56
5478 0
5479 53
5480 20
5481 66
5482 92
5483 107
5484 91
5485 69
5486 40
5487 34
5488 72
5489 0
5490 72
5491 56
5492 48
5493 112
5494 86
5495 74
5496 123
5497 109
5498 86
5499 86
5500 37
5501 6
5502 2
5503 51
5504 102
5505 15
5506 105
5507 35
5508 5
5509 87
5510 86
5511 22
5512 91
5513 106
5514 10
5515 29
5516 5
5517 102
5518 32
5519 74
5520 108
5521 91
5522 89
5523 5
5524 11
5525 63
5526 33
5527 89
5528 2
5529 73
5530 74
5531 54
5532 30
5533 107
5534 0
5535 20
5536 72
5537 85
5538 63
5539 57
5540 76
5541 25
5542 74
5543 80
5544 107
5545 77
5546 63
5547 16
5548 0
5549 102
5550 60
5551 28
5552 34
5553 22
5554 30
5555 70
5556 56
5557 34
5558 89
5559 29
5560 38
5561 81
5562 30
5563 54
5564 91
5565 45
5566 22
5567 70
5568 15
5569 65
5570 47
5571 31
5572 11
5573 26
5574 23
5575 4
5576 66
5577 28
5578 84
5579 26
5580 20
5581 66
5582 89
5583 53
5584 45
5585 15
5586 34
5587 34
5588 31
5589 56
5590 72
5591 72
5592 22
5593 74
5594 79
5595 83
5596 16
5597 34
5598 17
5599 63
5600 79
5601 35
5602 20
5603 91
5604 26
5605 0
5606 27
5607 61
5608 2
5609 95
5610 102
5611 72
5612 89
5613 27
5614 73
5615 91
5616 65
5617 74
5618 27
5619 123
5620 50
5621 19
5622 46
5623 85
5624 16
5625 89
5626 107
5627 17
5628 63
5629 45
5630 62
5631 32
5632 34
5633 89
5634 65
5635 30
5636 46
5637 89
5638 75
5639 38
5640 2
5641 21
5642 91
5643 11
5644 22
5645 74
5646 53
5647 40
5648 2
5649 31
5650 5
5651 63
5652 2
5653 18
5654 46
5655 42
5656 2
5657 46
5658 11
5659 3
5660 87
5661 22
5662 112
5663 54
5664 2
5665 40
5666 43
5667 17
5668 69
5669 11
5670 33
5671 104
5672 11
5673 2
5674 55
5675 47
5676 112
5677 91
5678 93
5679 54
5680 91
5681 7
5682 2
5683 11
5684 77
5685 70
5686 77
5687 92
5688 5
5689 91
5690 56
5691 73
5692 9
5693 73
5694 51
5695 20
5696 2
5697 88
5698 46
5699 5
5700 64
5701 66
5702 56
5703 5
5704 29
5705 34
5706 104
5707 5
5708 2
5709 65
5710 91
5711 34
5712 11
5713 17
5714 105
5715 22
5716 11
5717 26
5718 20
5719 28
5720 60
5721 47
5722 79
5723 21
5724 79
5725 5
5726 45
5727 45
5728 70
5729 56
5730 51
5731 36
5732 76
5733 50
5734 60
5735 63
5736 20
5737 2
5738 5
5739 34
5740 62
5741 34
5742 27
5743 26
5744 25
5745 72
5746 2
5747 39
5748 68
5749 109
5750 57
5751 16
5752 11
5753 11
5754 27
5755 48
5756 24
5757 34
5758 91
5759 5
5760 16
5761 86
5762 79
5763 16
5764 2
5765 52
5766 56
5767 45
5768 7
5769 39
5770 107
5771 109
5772 24
5773 62
5774 16
5775 72
5776 72
5777 79
5778 89
5779 5
5780 45
5781 94
5782 45
5783 20
5784 62
5785 15
5786 124
5787 89
5788 2
5789 47
5790 72
5791 14
5792 5
5793 11
5794 100
5795 29
5796 91
5797 31
5798 0
5799 91
5800 117
5801 5
5802 16
5803 107
5804 98
5805 72
5806 32
5807 72
5808 107
5809 63
5810 29
5811 22
5812 70
5813 74
5814 93
5815 22
5816 89
5817 36
5818 107
5819 107
5820 63
5821 89
5822 15
5823 56
5824 11
5825 11
5826 82
5827 13
5828 63
5829 91
5830 56
5831 89
5832 56
5833 45
5834 63
5835 5
5836 86
5837 89
5838 105
5839 16
5840 56
5841 89
5842 29
5843 11
5844 7
5845 86
5846 1
5847 11
5848 16
5849 91
5850 17
5851 75
5852 72
5853 56
5854 22
5855 16
5856 89
5857 85
5858 63
5859 76
5860 86
5861 72
5862 95
5863 58
5864 45
5865 42
5866 72
5867 52
5868 4
5869 75
5870 25
5871 91
5872 34
5873 2
5874 34
5875 92
5876 72
5877 61
5878 34
5879 81
5880 102
5881 29
5882 29
5883 89
5884 34
5885 31
5886 20
5887 31
5888 11
5889 11
5890 86
5891 2
5892 23
5893 72
5894 47
5895 16
5896 16
5897 56
5898 24
5899 72
5900 45
5901 2
5902 6
5903 56
5904 107
5905 74
5906 34
5907 34
5908 45
5909 55
5910 16
5911 72
5912 86
5913 72
5914 5
5915 67
5916 20
5917 89
5918 86
5919 81
5920 116
5921 102
5922 89
5923 27
5924 28
5925 43
5926 31
5927 54
5928 47
5929 26
5930 33
5931 16
5932 22
5933 112
5934 74
5935 22
5936 29
5937 91
5938 11
5939 16
5940 56
5941 33
5942 29
5943 72
5944 47
5945 91
5946 56
5947 51
5948 72
5949 5
5950 23
5951 29
5952 97
5953 47
5954 83
5955 34
5956 5
5957 29
5958 20
5959 60
5960 34
5961 89
5962 89
5963 107
5964 32
5965 86
5966 11
5967 34
5968 91
5969 20
5970 74
5971 25
5972 5
5973 53
5974 33
5975 45
5976 16
5977 63
5978 91
5979 22
5980 27
5981 29
5982 2
5983 45
5984 60
5985 22
5986 34
5987 98
5988 60
5989 88
5990 107
5991 0
5992 45
5993 91
5994 79
5995 22
5996 47
5997 18
5998 0
5999 108
6000 50
6001 63
6002 92
6003 52
6004 72
6005 22
6006 91
6007 23
6008 60
6009 23
6010 76
6011 16
6012 50
6013 2
6014 107
6015 2
6016 89
6017 72
6018 53
6019 16
6020 13
6021 20
6022 0
6023 50
6024 25
6025 79
6026 17
6027 72
6028 56
6029 16
6030 19
6031 63
6032 86
6033 27
6034 27
6035 91
6036 27
6037 75
6038 46
6039 74
6040 91
6041 2
6042 66
6043 47
6044 74
6045 76
6046 56
6047 107
6048 29
6049 56
6050 70
6051 74
6052 107
6053 17
6054 6
6055 86
6056 34
6057 2
6058 60
6059 63
6060 11
6061 91
6062 0
6063 91
6064 98
6065 88
6066 84
6067 26
6068 42
6069 27
6070 49
6071 107
6072 27
6073 10
6074 50
6075 11
6076 34
6077 45
6078 16
6079 83
6080 107
6081 23
6082 55
6083 66
6084 72
6085 34
6086 74
6087 56
6088 5
6089 79
6090 56
6091 2
6092 2
6093 60
6094 65
6095 55
6096 28
6097 6
6098 26
6099 47
6100 72
6101 27
6102 72
6103 63
6104 45
6105 23
6106 56
6107 72
6108 60
6109 20
6110 22
6111 47
6112 47
6113 59
6114 72
6115 22
6116 103
6117 91
6118 58
6119 79
6120 89
6121 55
6122 16
6123 5
6124 91
6125 57
6126 83
6127 29
6128 43
6129 2
6130 83
6131 91
6132 27
6133 5
6134 89
6135 22
6136 27
6137 60
6138 79
6139 98
6140 5
6141 29
6142 34
6143 56
6144 89
6145 34
6146 70
6147 37
6148 47
6149 48
6150 63
6151 11
6152 79
6153 89
6154 70
6155 24
6156 11
6157 27
6158 23
6159 112
6160 11
6161 43
6162 95
6163 39
6164 34
6165 3
6166 94
6167 74
6168 53
6169 73
6170 44
6171 86
6172 56
6173 0
6174 40
6175 92
6176 5
6177 11
6178 79
6179 66
6180 33
6181 43
6182 104
6183 11
6184 83
6185 102
6186 79
6187 95
6188 0
6189 11
6190 58
6191 5
6192 31
6193 15
6194 40
6195 60
6196 5
6197 96
6198 104
6199 47
6200 46
6201 102
6202 13
6203 4
6204 100
6205 0
6206 125
6207 28
6208 95
6209 5
6210 11
6211 79
6212 109
6213 84
6214 39
6215 48
6216 36
6217 37
6218 51
6219 66
6220 74
6221 55
6222 27
6223 86
6224 27
6225 27
6226 79
6227 78
6228 108
6229 54
6230 39
6231 70
6232 30
6233 41
6234 103
6235 86
6236 6
6237 76
6238 51
6239 76
6240 60
6241 24
6242 5
6243 84
6244 33
6245 73
6246 0
6247 43
6248 124
6249 38
6250 52
6251 123
6252 112
6253 53
6254 24
6255 40
6256 31
6257 62
6258 30
6259 97
6260 60
6261 86
6262 11
6263 6
6264 53
6265 46
6266 35
6267 3
6268 52
6269 66
6270 55
6271 56
6272 53
6273 24
6274 46
6275 14
6276 22
6277 31
6278 0
6279 78
6280 76
6281 65
6282 76
6283 85
6284 89
6285 60
6286 51
6287 32
6288 76
6289 86
6290 86
6291 116
6292 69
6293 11
6294 71
6295 15
6296 8
6297 60
6298 9
6299 25
6300 16
6301 94
6302 123
6303 118
6304 11
6305 52
6306 93
6307 93
6308 83
6309 104
6310 35
6311 6
6312 47
6313 27
6314 13
6315 32
6316 109
6317 103
6318 81
6319 5
6320 57
6321 11
6322 59
6323 28
6324 96
6325 88
6326 71
6327 0
6328 18
6329 8
6330 13
6331 17
6332 69
6333 41
6334 31
6335 73
6336 55
6337 63
6338 33
6339 87
6340 86
6341 23
6342 65
6343 77
6344 32
6345 15
6346 9
6347 79
6348 22
6349 1
6350 71
6351 15
6352 91
6353 23
6354 76
6355 91
6356 58
6357 88
6358 5
6359 55
6360 60
6361 17
6362 71
6363 75
6364 52
6365 24
6366 21
6367 67
6368 75
6369 92
6370 11
6371 11
6372 45
6373 24
6374 35
6375 21
6376 46
6377 110
6378 62
6379 91
6380 4
6381 29
6382 60
6383 14
6384 76
6385 88
6386 55
6387 31
6388 112
6389 126
6390 58
6391 52
6392 117
6393 50
6394 62
6395 20
6396 91
6397 96
6398 66
6399 81
6400 25
6401 34
6402 113
6403 16
6404 20
6405 24
6406 117
6407 66
6408 95
6409 52
6410 66
6411 24
6412 98
6413 47
6414 103
6415 50
6416 13
6417 61
6418 73
6419 15
6420 26
6421 22
6422 50
6423 121
6424 17
6425 112
6426 102
6427 6
6428 93
6429 48
6430 22
6431 11
6432 22
6433 62
6434 16
6435 45
6436 91
6437 83
6438 15
6439 11
6440 16
6441 32
6442 70
6443 50
6444 11
6445 20
6446 100
6447 24
6448 93
6449 44
6450 91
6451 42
6452 74
6453 4
6454 33
6455 4
6456 57
6457 28
6458 91
6459 16
6460 50
6461 3
6462 19
6463 20
6464 46
6465 70
6466 20
6467 19
6468 16
6469 36
6470 31
6471 70
6472 38
6473 26
6474 82
6475 73
6476 93
6477 55
6478 95
6479 21
6480 94
6481 23
6482 44
6483 53
6484 50
6485 40
6486 34
6487 44
6488 72
6489 11
6490 86
6491 58
6492 107
6493 36
6494 22
6495 1
6496 107
6497 91
6498 107
6499 54
6500 45
6501 78
6502 48
6503 1
6504 75
6505 70
6506 20
6507 14
6508 74
6509 10
6510 74
6511 102
6512 18
6513 69
6514 20
6515 65
6516 88
6517 24
6518 107
6519 91
6520 50
6521 72
6522 22
6523 113
6524 92
6525 10
6526 22
6527 107
6528 30
6529 88
6530 60
6531 0
6532 45
6533 70
6534 66
6535 7
6536 87
6537 89
6538 83
6539 51
6540 38
6541 22
6542 9
6543 84
6544 11
6545 83
6546 58
6547 29
6548 91
6549 70
6550 74
6551 95
6552 25
6553 31
6554 30
6555 72
6556 84
6557 72
6558 20
6559 100
6560 98
6561 8
6562 72
6563 108
6564 10
6565 107
6566 124
6567 92
6568 22
6569 91
6570 11
6571 22
6572 107
6573 72
6574 86
6575 13
6576 25
6577 89
6578 72
6579 5
6580 74
6581 74
6582 28
6583 20
6584 63
6585 26
6586 98
6587 91
6588 2
6589 16
6590 24
6591 77
6592 5
6593 11
6594 20
6595 11
6596 25
6597 91
6598 54
6599 2
6600 53
6601 113
6602 89
6603 102
6604 107
6605 91
6606 11
6607 91
6608 54
6609 22
6610 5
6611 5
6612 15
6613 89
6614 0
6615 45
6616 72
6617 74
6618 70
6619 13
6620 89
6621 39
6622 20
6623 83
6624 1
6625 103
6626 18
6627 44
6628 110
6629 106
6630 45
6631 41
6632 2
6633 85
6634 91
6635 16
6636 27
6637 16
6638 102
6639 5
6640 5
6641 74
6642 56
6643 2
6644 28
6645 76
6646 46
6647 32
6648 55
6649 47
6650 72
6651 14
6652 66
6653 50
6654 52
6655 48
6656 112
6657 11
6658 86
6659 95
6660 10
6661 75
6662 59
6663 86
6664 91
6665 104
6666 19
6667 18
6668 86
6669 63
6670 126
6671 50
6672 42
6673 11
6674 2
6675 91
6676 91
6677 32
6678 89
6679 0
6680 36
6681 22
6682 91
6683 107
6684 65
6685 56
6686 36
6687 11
6688 48
6689 66
6690 45
6691 2
6692 50
6693 29
6694 43
6695 123
6696 39
6697 78
6698 47
6699 56
6700 23
6701 98
6702 29
6703 0
6704 86
6705 33
6706 49
6707 95
6708 33
6709 13
6710 53
6711 65
6712 110
6713 16
6714 46
6715 41
6716 29
6717 16
6718 78
6719 32
6720 28
6721 25
6722 102
6723 2
6724 16
6725 57
6726 2
6727 89
6728 91
6729 30
6730 90
6731 25
6732 1
6733 79
6734 45
6735 11
6736 16
6737 50
6738 20
6739 109
6740 22
6741 47
6742 20
6743 76
6744 33
6745 60
6746 56
6747 20
6748 5
6749 72
6750 22
6751 29
6752 29
6753 66
6754 2
6755 89
6756 46
6757 22
6758 7
6759 102
6760 16
6761 66
6762 47
6763 62
6764 20
6765 56
6766 2
6767 16
6768 20
6769 91
6770 16
6771 47
6772 46
6773 106
6774 60
6775 72
6776 13
6777 79
6778 17
6779 91
6780 45
6781 108
6782 2
6783 91
6784 51
6785 65
6786 56
6787 53
6788 24
6789 86
6790 56
6791 2
6792 109
6793 91
6794 5
6795 89
6796 72
6797 89
6798 55
6799 31
6800 83
6801 11
6802 86
6803 52
6804 9
6805 43
6806 25
6807 31
6808 60
6809 91
6810 7
6811 91
6812 98
6813 45
6814 40
6815 91
6816 76
6817 98
6818 56
6819 27
6820 14
6821 56
6822 35
6823 91
6824 22
6825 74
6826 31
6827 35
6828 55
6829 32
6830 56
6831 79
6832 2
6833 18
6834 65
6835 31
6836 122
6837 98
6838 47
6839 11
6840 8
6841 91
6842 63
6843 11
6844 15
6845 91
6846 2
6847 45
6848 11
6849 41
6850 76
6851 63
6852 83
6853 2
6854 62
6855 31
6856 76
6857 14
6858 20
6859 23
6860 16
6861 91
6862 74
6863 83
6864 76
6865 11
6866 72
6867 11
6868 66
6869 11
6870 2
6871 73
6872 26
6873 92
6874 92
6875 25
6876 11
6877 58
6878 63
6879 53
6880 57
6881 91
6882 108
6883 22
6884 73
6885 46
6886 72
6887 2
6888 11
6889 98
6890 22
6891 20
6892 79
6893 22
6894 14
6895 74
6896 45
6897 103
6898 74
6899 85
6900 22
6901 62
6902 89
6903 14
6904 98
6905 25
6906 2
6907 11
6908 12
6909 72
6910 63
6911 88
6912 31
6913 72
6914 72
6915 89
6916 34
6917 74
6918 11
6919 86
6920 34
6921 18
6922 49
6923 54
6924 16
6925 89
6926 23
6927 53
6928 81
6929 45
6930 72
6931 47
6932 34
6933 20
6934 56
6935 22
6936 5
6937 115
6938 47
6939 5
6940 60
6941 2
6942 71
6943 11
6944 74
6945 34
6946 13
6947 45
6948 93
6949 47
6950 74
6951 47
6952 93
6953 76
6954 55
6955 63
6956 47
6957 47
6958 29
6959 89
6960 72
6961 65
6962 45
6963 16
6964 74
6965 45
6966 113
6967 20
6968 52
6969 127
6970 91
6971 54
6972 70
6973 22
6974 29
6975 11
6976 50
6977 15
6978 34
6979 63
6980 84
6981 54
6982 42
6983 34
6984 91
6985 89
6986 102
6987 2
6988 98
6989 47
6990 22
6991 104
6992 27
6993 74
6994 45
6995 72
6996 85
6997 56
6998 39
6999 63
7000 60
7001 55
7002 56
7003 16
7004 10
7005 107
7006 15
7007 47
7008 107
7009 5
7010 60
7011 72
7012 53
7013 53
7014 36
7015 116
7016 107
7017 11
7018 34
7019 107
7020 26
7021 10
7022 22
7023 22
7024 92
7025 35
7026 60
7027 47
7028 91
7029 74
7030 74
7031 63
7032 77
7033 53
7034 2
7035 5
7036 11
7037 50
7038 57
7039 5
7040 63
7041 20
7042 79
7043 70
7044 60
7045 26
7046 2
7047 29
7048 29
7049 11
7050 56
7051 72
7052 11
7053 69
7054 27
7055 16
7056 45
7057 45
7058 20
7059 47
7060 2
7061 60
7062 32
7063 5
7064 75
7065 34
7066 47
7067 107
7068 0
7069 51
7070 72
7071 72
7072 70
7073 56
7074 93
7075 11
7076 74
7077 107
7078 22
7079 20
7080 29
7081 98
7082 54
7083 23
7084 56
7085 22
7086 16
7087 15
7088 74
7089 34
7090 34
7091 27
7092 70
7093 10
7094 89
7095 5
7096 102
7097 73
7098 56
7099 29
7100 11
7101 27
7102 13
7103 79
7104 2
7105 5
7106 55
7107 34
7108 34
7109 47
7110 11
7111 56
7112 46
7113 72
7114 56
7115 74
7116 27
7117 2
7118 47
7119 23
7120 107
7121 86
7122 10
7123 34
7124 34
7125 50
7126 60
7127 2
7128 96
7129 70
7130 5
7131 56
7132 2
7133 23
7134 50
7135 29
7136 47
7137 91
7138 7
7139 16
7140 20
7141 81
7142 89
7143 56
7144 92
7145 2
7146 63
7147 60
7148 2
7149 89
7150 22
7151 95
7152 74
7153 23
7154 89
7155 16
7156 65
7157 2
7158 22
7159 22
7160 79
7161 89
7162 22
7163 20
7164 95
7165 30
7166 62
7167 47
7168 27
7169 23
7170 85
7171 11
7172 29
7173 29
7174 82
7175 63
7176 112
7177 60
7178 60
7179 65
7180 121
7181 22
7182 112
7183 23
7184 63
7185 42
7186 72
7187 74
7188 55
7189 71
7190 91
7191 93
7192 26
7193 91
7194 3
7195 56
7196 95
7197 0
7198 2
7199 20
7200 46
7201 13
7202 2
7203 94
7204 91
7205 1
7206 63
7207 85
7208 29
7209 2
7210 67
7211 14
7212 29
7213 34
7214 70
7215 86
7216 84
7217 11
7218 26
7219 23
7220 5
7221 2
7222 16
7223 89
7224 65
7225 16
7226 2
7227 2
7228 91
7229 11
7230 11
7231 74
7232 65
7233 17
7234 29
7235 36
7236 20
7237 112
7238 34
7239 83
7240 107
7241 9
7242 21
7243 72
7244 46
7245 34
7246 40
7247 70
7248 72
7249 57
7250 13
7251 22
7252 102
7253 2
7254 45
7255 93
7256 88
7257 56
7258 11
7259 103
7260 65
7261 11
7262 62
7263 91
7264 2
7265 60
7266 44
7267 91
7268 91
7269 63
7270 34
7271 92
7272 33
7273 56
7274 16
7275 20
7276 76
7277 55
7278 60
7279 40
7280 22
7281 76
7282 89
7283 23
7284 6
7285 27
7286 64
7287 11
7288 91
7289 50
7290 11
7291 36
7292 21
7293 56
7294 20
7295 114
7296 37
7297 89
7298 123
7299 22
7300 11
7301 2
7302 76
7303 109
7304 5
7305 14
7306 56
7307 74
7308 13
7309 72
7310 34
7311 111
7312 12
7313 27
7314 5
7315 23
7316 14
7317 51
7318 91
7319 40
7320 50
7321 103
7322 57
7323 11
7324 34
7325 8
7326 16
7327 29
7328 20
7329 56
7330 84
7331 23
7332 23
7333 22
7334 5
7335 62
7336 98
7337 91
7338 91
7339 120
7340 90
7341 84
7342 93
7343 122
7344 2
7345 86
7346 56
7347 24
7348 62
7349 14
7350 34
7351 60
7352 76
7353 22
7354 11
7355 86
7356 65
7357 11
7358 98
7359 83
7360 74
7361 62
7362 5
7363 47
7364 118
7365 22
7366 86
7367 42
7368 4
7369 22
7370 14
7371 34
7372 15
7373 10
7374 20
7375 56
7376 52
7377 16
7378 101
7379 31
7380 5
7381 34
7382 105
7383 13
7384 86
7385 16
7386 84
7387 22
7388 16
7389 105
7390 34
7391 29
7392 56
7393 74
7394 29
7395 2
7396 11
7397 22
7398 16
7399 62
7400 12
7401 7
7402 11
7403 125
7404 106
7405 25
7406 73
7407 102
7408 79
7409 23
7410 74
7411 27
7412 56
7413 54
7414 5
7415 24
7416 50
7417 65
7418 63
7419 92
7420 56
7421 14
7422 63
7423 20
7424 20
7425 32
7426 16
7427 34
7428 65
7429 79
7430 89
7431 40
7432 90
7433 47
7434 47
7435 26
7436 48
7437 26
7438 91
7439 111
7440 114
7441 16
7442 17
7443 34
7444 91
7445 15
7446 11
7447 93
7448 2
7449 8
7450 34
7451 5
7452 26
7453 34
7454 76
7455 34
7456 62
7457 86
7458 27
7459 94
7460 98
7461 100
7462 91
7463 56
7464 92
7465 27
7466 54
7467 107
7468 86
7469 2
7470 69
7471 5
7472 105
7473 24
7474 5
7475 91
7476 38
7477 11
7478 5
7479 20
7480 27
7481 92
7482 107
7483 50
7484 92
7485 65
7486 14
7487 57
7488 40
7489 33
7490 14
7491 17
7492 16
7493 37
7494 112
7495 5
7496 76
7497 67
7498 14
7499 69
7500 25
7501 16
7502 98
7503 10
7504 1
7505 91
7506 11
7507 22
7508 5
7509 2
7510 11
7511 107
7512 107
7513 70
7514 102
7515 15
7516 20
7517 116
7518 17
7519 16
7520 61
7521 74
7522 16
7523 42
7524 2
7525 108
7526 2
7527 53
7528 11
7529 107
7530 0
7531 9
7532 20
7533 56
7534 105
7535 70
7536 34
7537 10
7538 91
7539 53
7540 72
7541 10
7542 66
7543 103
7544 6
7545 103
7546 107
7547 62
7548 33
7549 66
7550 22
7551 24
7552 56
7553 123
7554 2
7555 6
7556 74
7557 40
7558 98
7559 16
7560 102
7561 92
7562 18
7563 16
7564 72
7565 97
7566 2
7567 111
7568 15
7569 34
7570 72
7571 102
7572 63
7573 56
7574 89
7575 46
7576 103
7577 46
7578 26
7579 35
7580 46
7581 72
7582 30
7583 63
7584 46
7585 46
7586 107
7587 5
7588 5
7589 31
7590 118
7591 16
7592 89
7593 109
7594 72
7595 74
7596 56
7597 34
7598 92
7599 36
7600 117
7601 60
7602 124
7603 77
7604 5
7605 0
7606 10
7607 113
7608 2
7609 20
7610 33
7611 46
7612 74
7613 127
7614 20
7615 2
7616 15
7617 2
7618 56
7619 91
7620 47
7621 12
7622 45
7623 11
7624 91
7625 19
7626 107
7627 91
7628 11
7629 5
7630 74
7631 16
7632 41
7633 56
7634 60
7635 34
7636 91
7637 89
7638 79
7639 30
7640 24
7641 56
7642 79
7643 6
7644 20
7645 11
7646 77
7647 92
7648 16
7649 17
7650 50
7651 79
7652 107
7653 77
7654 22
7655 67
7656 74
7657 20
7658 11
7659 63
7660 11
7661 63
7662 5
7663 45
7664 14
7665 16
7666 11
7667 66
7668 34
7669 70
7670 89
7671 83
7672 37
7673 34
7674 11
7675 84
7676 56
7677 45
7678 2
7679 28
7680 102
7681 18
7682 26
7683 45
7684 55
7685 6
7686 19
7687 47
7688 45
7689 20
7690 22
7691 11
7692 45
7693 2
7694 102
7695 46
7696 9
7697 34
7698 112
7699 87
7700 40
7701 72
7702 86
7703 2
7704 39
7705 26
7706 66
7707 54
7708 33
7709 30
7710 29
7711 91
7712 45
7713 86
7714 79
7715 32
7716 12
7717 1
7718 54
7719 11
7720 33
7721 55
7722 11
7723 8
7724 24
7725 48
7726 98
7727 5
7728 91
7729 24
7730 2
7731 2
7732 34
7733 11
7734 17
7735 33
7736 34
7737 79
7738 16
7739 125
7740 5
7741 11
7742 34
7743 107
7744 107
7745 91
7746 60
7747 20
7748 29
7749 107
7750 55
7751 45
7752 72
7753 27
7754 81
7755 24
7756 56
7757 27
7758 22
7759 17
7760 87
7761 5
7762 11
7763 91
7764 13
7765 60
7766 20
7767 62
7768 36
7769 50
7770 35
7771 44
7772 45
7773 22
7774 34
7775 54
7776 89
7777 22
7778 91
7779 103
7780 59
7781 90
7782 79
7783 56
7784 16
7785 2
7786 19
7787 5
7788 104
7789 5
7790 16
7791 70
7792 20
7793 4
7794 60
7795 11
7796 26
7797 25
7798 22
7799 47
7800 122
7801 86
7802 107
7803 91
7804 74
7805 30
7806 105
7807 18
7808 103
7809 34
7810 56
7811 93
7812 2
7813 86
7814 2
7815 79
7816 34
7817 56
7818 91
7819 22
7820 11
7821 91
7822 14
7823 62
7824 2
7825 79
7826 22
7827 13
7828 16
7829 121
7830 46
7831 76
7832 56
7833 55
7834 47
7835 24
7836 89
7837 2
7838 83
7839 2
7840 107
7841 91
7842 63
7843 53
7844 20
7845 76
7846 98
7847 50
7848 89
7849 7
7850 34
7851 107
7852 2
7853 33
7854 24
7855 56
7856 53
7857 34
7858 100
7859 63
7860 89
7861 55
7862 65
7863 84
7864 74
7865 24
7866 34
7867 88
7868 27
7869 63
7870 28
7871 22
7872 56
7873 65
7874 6
7875 98
7876 61
7877 14
7878 22
7879 72
7880 107
7881 92
7882 57
7883 89
7884 5
7885 8
7886 91
7887 98
7888 29
7889 107
7890 91
7891 55
7892 20
7893 39
7894 91
7895 23
7896 79
7897 91
7898 34
7899 26
7900 11
7901 34
7902 22
7903 111
7904 11
7905 88
7906 15
7907 91
7908 92
7909 63
7910 116
7911 56
7912 70
7913 11
7914 13
7915 5
7916 56
7917 34
7918 96
7919 102
7920 10
7921 11
7922 91
7923 107
7924 17
7925 74
7926 89
7927 126
7928 23
7929 40
7930 102
7931 63
7932 72
7933 46
7934 16
7935 74
7936 29
7937 54
7938 66
7939 11
7940 63
7941 34
7942 86
7943 17
7944 23
7945 17
7946 17
7947 64
7948 20
7949 56
7950 17
7951 56
7952 47
7953 2
7954 84
7955 91
7956 32
7957 5
7958 50
7959 2
7960 51
7961 2
7962 79
7963 45
7964 74
7965 102
7966 20
7967 11
7968 20
7969 47
7970 47
7971 107
7972 66
7973 47
7974 15
7975 54
7976 89
7977 22
7978 108
7979 79
7980 91
7981 52
7982 33
7983 63
7984 95
7985 22
7986 81
7987 63
7988 60
7989 45
7990 45
7991 11
7992 113
7993 5
7994 33
7995 89
7996 98
7997 36
7998 86
7999 60
8000 17
8001 26
8002 18
8003 74
8004 107
8005 107
8006 45
8007 11
8008 70
8009 31
8010 40
8011 35
8012 34
8013 2
8014 33
8015 27
8016 45
8017 11
8018 11
8019 29
8020 48
8021 115
8022 56
8023 62
8024 50
8025 91
8026 20
8027 60
8028 16
8029 20
8030 107
8031 61
8032 27
8033 52
8034 17
8035 45
8036 5
8037 23
8038 91
8039 45
8040 92
8041 60
8042 63
8043 89
8044 11
8045 53
8046 27
8047 5
8048 29
8049 5
8050 107
8051 50
8052 107
8053 89
8054 45
8055 34
8056 102
8057 74
8058 89
8059 56
8060 72
8061 54
8062 34
8063 47
8064 22
8065 76
8066 74
8067 56
8068 45
8069 5
8070 63
8071 22
8072 0
8073 45
8074 89
8075 60
8076 107
8077 53
8078 29
8079 20
8080 27
8081 101
8082 20
8083 83
8084 30
8085 23
8086 34
8087 63
8088 16
8089 30
8090 119
8091 56
8092 14
8093 108
8094 16
8095 6
8096 29
8097 6
8098 72
8099 60
8100 107
8101 73
8102 28
8103 74
8104 5
8105 5
8106 60
8107 107
8108 30
8109 11
8110 45
8111 92
8112 63
8113 5
8114 2
8115 70
8116 50
8117 107
8118 91
8119 29
8120 72
8121 89
8122 89
8123 89
8124 43
8125 63
8126 25
8127 93
8128 16
8129 6
8130 89
8131 94
8132 5
8133 62
8134 5
8135 11
8136 16
8137 48
8138 17
8139 29
8140 50
8141 79
8142 56
8143 63
8144 74
8145 47
8146 47
8147 60
8148 63
8149 98
8150 0
8151 51
8152 20
8153 55
8154 11
8155 70
8156 33
8157 55
8158 20
8159 79
8160 60
8161 45
8162 45
8163 56
8164 23
8165 5
8166 89
8167 11
8168 23
8169 32
8170 79
8171 98
8172 2
8173 89
8174 100
8175 24
8176 79
8177 89
8178 16
8179 65
8180 23
8181 23
8182 88
8183 72
8184 65
8185 56
8186 72
8187 47
8188 91
8189 89
8190 16
8191 11
8192 27
8193 37
8194 53
8195 70
8196 49
8197 118
8198 92
8199 92
8200 34
8201 23
8202 107
8203 11
8204 3
8205 65
8206 24
8207 30
8208 24
8209 53
8210 11
8211 88
8212 24
8213 50
8214 124
8215 0
8216 65
8217 39
8218 47
8219 53
8220 13
8221 63
8222 28
8223 23
8224 94
8225 11
8226 84
8227 15
8228 11
8229 92
8230 0
8231 72
8232 98
8233 89
8234 86
8235 92
8236 0
8237 70
8238 13
8239 2
8240 53
8241 45
8242 49
8243 0
8244 37
8245 16
8246 69
8247 69
8248 11
8249 39
8250 17
8251 38
8252 50
8253 11
8254 102
8255 121
8256 36
8257 24
8258 13
8259 30
8260 107
8261 17
8262 89
8263 45
8264 13
8265 50
8266 70
8267 58
8268 76
8269 57
8270 27
8271 29
8272 38
8273 21
8274 69
8275 17
8276 29
8277 24
8278 74
8279 4
8280 10
8281 59
8282 16
8283 79
8284 62
8285 23
8286 34
8287 86
8288 95
8289 52
8290 29
8291 46
8292 70
8293 48
8294 125
8295 2
8296 25
8297 95
8298 102
8299 60
8300 19
8301 95
8302 20
8303 63
8304 76
8305 103
8306 81
8307 8
8308 11
8309 31
8310 47
8311 85
8312 23
8313 38
8314 11
8315 79
8316 112
8317 11
8318 104
8319 86
8320 52
8321 23
8322 81
8323 31
8324 15
8325 11
8326 85
8327 77
8328 23
8329 27
8330 51
8331 86
8332 60
8333 47
8334 15
8335 29
8336 34
8337 57
8338 44
8339 60
8340 11
8341 77
8342 89
8343 14
8344 60
8345 83
8346 102
8347 109
8348 84
8349 27
8350 76
8351 98
8352 107
8353 62
8354 0
8355 7
8356 83
8357 11
8358 11
8359 72
8360 15
8361 14
8362 98
8363 23
8364 124
8365 62
8366 47
8367 127
8368 62
8369 62
8370 23
8371 23
8372 73
8373 107
8374 61
8375 109
8376 81
8377 23
8378 7
8379 98
8380 62
8381 76
8382 44
8383 86
8384 28
8385 60
8386 35
8387 27
8388 37
8389 23
8390 5
8391 33
8392 81
8393 117
8394 47
8395 84
8396 98
8397 38
8398 91
8399 88
8400 89
8401 29
8402 96
8403 81
8404 21
8405 23
8406 32
8407 2
8408 11
8409 119
8410 125
8411 86
8412 101
8413 11
8414 10
8415 52
8416 96
8417 91
8418 34
8419 11
8420 81
8421 2
8422 123
8423 17
8424 5
8425 46
8426 94
8427 52
8428 35
8429 86
8430 34
8431 58
8432 65
8433 60
8434 13
8435 43
8436 21
8437 77
8438 107
8439 50
8440 79
8441 68
8442 11
8443 64
8444 11
8445 27
8446 1
8447 91
8448 16
8449 14
8450 96
8451 117
8452 23
8453 52
8454 85
8455 89
8456 59
8457 50
8458 22
8459 82
8460 83
8461 20
8462 73
8463 86
8464 71
8465 31
8466 20
8467 11
8468 24
8469 28
8470 60
8471 73
8472 50
8473 22
8474 92
8475 11
8476 91
8477 11
8478 16
8479 2
8480 47
8481 118
8482 22
8483 50
8484 34
8485 92
8486 10
8487 72
8488 11
8489 18
8490 48
8491 91
8492 54
8493 24
8494 62
8495 22
8496 15
8497 25
8498 25
8499 62
8500 69
8501 40
8502 11
8503 118
8504 69
8505 89
8506 11
8507 125
8508 85
8509 18
8510 41
8511 104
8512 70
8513 107
8514 48
8515 11
8516 50
8517 51
8518 47
8519 97
8520 126
8521 88
8522 59
8523 11
8524 92
8525 5
8526 72
8527 33
8528 74
8529 11
8530 22
8531 34
8532 117
8533 76
8534 74
8535 109
8536 23
8537 24
8538 91
8539 41
8540 67
8541 33
8542 93
8543 70
8544 92
8545 62
8546 31
8547 84
8548 107
8549 11
8550 20
8551 72
8552 0
8553 74
8554 6
8555 96
8556 61
8557 81
8558 95
8559 22
8560 107
8561 17
8562 74
8563 11
8564 35
8565 22
8566 16
8567 54
8568 74
8569 109
8570 91
8571 41
8572 20
8573 41
8574 34
8575 74
8576 74
8577 20
8578 25
8579 50
8580 18
8581 86
8582 41
8583 38
8584 11
8585 29
8586 16
8587 107
8588 20
8589 75
8590 93
8591 96
8592 53
8593 20
8594 107
8595 121
8596 26
8597 15
8598 73
8599 11
8600 16
8601 24
8602 22
8603 5
8604 63
8605 91
8606 46
8607 116
8608 115
8609 72
8610 28
8611 123
8612 74
8613 72
8614 71
8615 65
8616 22
8617 115
8618 27
8619 74
8620 72
8621 58
8622 88
8623 5
8624 122
8625 91
8626 48
8627 15
8628 78
8629 16
8630 92
8631 53
8632 5
8633 30
8634 86
8635 16
8636 107
8637 84
8638 89
8639 73
8640 55
8641 107
8642 91
8643 90
8644 74
8645 5
8646 13
8647 13
8648 92
8649 22
8650 50
8651 72
8652 81
8653 63
8654 5
8655 28
8656 30
8657 22
8658 4
8659 65
8660 20
8661 72
8662 92
8663 20
8664 94
8665 56
8666 13
8667 30
8668 2
8669 74
8670 26
8671 9
8672 33
8673 92
8674 53
8675 107
8676 12
8677 125
8678 4
8679 81
8680 35
8681 2
8682 27
8683 45
8684 2
8685 55
8686 56
8687 27
8688 20
8689 2
8690 22
8691 11
8692 45
8693 63
8694 18
8695 22
8696 64
8697 91
8698 63
8699 5
8700 84
8701 53
8702 31
8703 5
8704 46
8705 77
8706 0
8707 45
8708 87
8709 19
8710 53
8711 19
8712 2
8713 25
8714 81
8715 37
8716 8
8717 11
8718 19
8719 91
8720 5
8721 25
8722 70
8723 47
8724 65
8725 47
8726 29
8727 72
8728 24
8729 37
8730 22
8731 125
8732 25
8733 1
8734 47
8735 107
8736 74
8737 74
8738 5
8739 29
8740 24
8741 30
8742 100
8743 91
8744 79
8745 17
8746 2
8747 27
8748 112
8749 45
8750 76
8751 2
8752 79
8753 6
8754 28
8755 85
8756 77
8757 105
8758 47
8759 18
8760 79
8761 82
8762 2
8763 65
8764 89
8765 89
8766 42
8767 20
8768 79
8769 2
8770 29
8771 20
8772 91
8773 5
8774 20
8775 102
8776 56
8777 59
8778 34
8779 43
8780 56
8781 29
8782 52
8783 21
8784 52
8785 25
8786 38
8787 27
8788 79
8789 93
8790 12
8791 48
8792 22
8793 16
8794 63
8795 47
8796 45
8797 81
8798 11
8799 52
8800 47
8801 60
8802 109
8803 112
8804 71
8805 96
8806 102
8807 85
8808 66
8809 16
8810 15
8811 20
8812 56
8813 89
8814 2
8815 5
8816 22
8817 2
8818 74
8819 64
8820 31
8821 35
8822 26
8823 20
8824 88
8825 36
8826 5
8827 56
8828 11
8829 16
8830 52
8831 110
8832 78
8833 62
8834 22
8835 72
8836 53
8837 20
8838 72
8839 2
8840 82
8841 5
8842 52
8843 37
8844 16
8845 40
8846 16
8847 15
8848 91
8849 32
8850 5
8851 20
8852 11
8853 5
8854 46
8855 11
8856 73
8857 109
8858 20
8859 27
8860 91
8861 91
8862 98
8863 20
8864 86
8865 5
8866 29
8867 91
8868 91
8869 63
8870 91
8871 16
8872 86
8873 2
8874 2
8875 56
8876 63
8877 93
8878 20
8879 20
8880 72
8881 91
8882 72
8883 5
8884 93
8885 98
8886 25
8887 89
8888 30
8889 11
8890 22
8891 20
8892 58
8893 98
8894 11
8895 92
8896 2
8897 2
8898 96
8899 10
8900 74
8901 16
8902 113
8903 6
8904 16
8905 27
8906 11
8907 72
8908 56
8909 110
8910 2
8911 93
8912 91
8913 14
8914 72
8915 12
8916 18
8917 1
8918 92
8919 112
8920 16
8921 89
8922 11
8923 76
8924 5
8925 31
8926 5
8927 22
8928 27
8929 74
8930 93
8931 35
8932 35
8933 17
8934 98
8935 91
8936 59
8937 22
8938 98
8939 63
8940 23
8941 24
8942 57
8943 22
8944 89
8945 22
8946 74
8947 52
8948 72
8949 20
8950 74
8951 48
8952 26
8953 18
8954 5
8955 26
8956 26
8957 79
8958 22
8959 23
8960 11
8961 56
8962 74
8963 74
8964 74
8965 11
8966 48
8967 20
8968 52
8969 22
8970 3
8971 16
8972 60
8973 106
8974 112
8975 81
8976 56
8977 76
8978 23
8979 2
8980 89
8981 22
8982 11
8983 66
8984 89
8985 47
8986 23
8987 2
8988 5
8989 34
8990 11
8991 107
8992 2
8993 34
8994 62
8995 34
8996 16
8997 56
8998 2
8999 11
9000 20
9001 89
9002 20
9003 29
9004 105
9005 45
9006 11
9007 86
9008 15
9009 11
9010 123
9011 28
9012 34
9013 34
9014 50
9015 11
9016 91
9017 72
9018 5
9019 45
9020 121
9021 88
9022 29
9023 34
9024 60
9025 63
9026 50
9027 60
9028 5
9029 110
9030 20
9031 72
9032 107
9033 89
9034 52
9035 34
9036 5
9037 91
9038 34
9039 11
9040 19
9041 26
9042 31
9043 86
9044 56
9045 63
9046 15
9047 20
9048 103
9049 53
9050 27
9051 34
9052 47
9053 89
9054 72
9055 17
9056 47
9057 56
9058 0
9059 53
9060 89
9061 91
9062 27
9063 35
9064 107
9065 66
9066 16
9067 27
9068 72
9069 72
9070 11
9071 55
9072 34
9073 72
9074 16
9075 45
9076 111
9077 70
9078 5
9079 102
9080 56
9081 74
9082 72
9083 86
9084 16
9085 74
9086 37
9087 70
9088 74
9089 30
9090 103
9091 16
9092 98
9093 56
9094 50
9095 20
9096 22
9097 11
9098 45
9099 29
9100 63
9101 45
9102 47
9103 72
9104 45
9105 11
9106 91
9107 89
9108 66
9109 107
9110 30
9111 73
9112 98
9113 23
9114 92
9115 63
9116 29
9117 71
9118 16
9119 23
9120 16
9121 63
9122 74
9123 37
9124 66
9125 46
9126 45
9127 91
9128 60
9129 107
9130 60
9131 89
9132 16
9133 104
9134 72
9135 32
9136 58
9137 23
9138 5
9139 23
9140 45
9141 91
9142 5
9143 98
9144 13
9145 99
9146 0
9147 65
9148 52
9149 55
9150 104
9151 65
9152 91
9153 17
9154 11
9155 107
9156 81
9157 74
9158 92
9159 22
9160 2
9161 73
9162 91
9163 20
9164 11
9165 65
9166 50
9167 34
9168 56
9169 56
9170 72
9171 79
9172 23
9173 34
9174 39
9175 74
9176 56
9177 117
9178 63
9179 63
9180 45
9181 89
9182 60
9183 63
9184 74
9185 16
9186 65
9187 89
9188 108
9189 50
9190 29
9191 107
9192 15
9193 16
9194 34
9195 34
9196 72
9197 2
9198 2
9199 24
9200 63
9201 3
9202 72
9203 95
9204 48
9205 20
9206 11
9207 73
9208 52
9209 27
9210 60
9211 96
9212 47
9213 30
9214 89
9215 20
9216 11
9217 65
9218 73
9219 2
9220 0
9221 65
9222 24
9223 53
9224 17
9225 47
9226 32
9227 96
9228 2
9229 102
9230 7
9231 25
9232 29
9233 2
9234 65
9235 27
9236 45
9237 97
9238 98
9239 50
9240 2
9241 40
9242 57
9243 23
9244 65
9245 55
9246 40
9247 63
9248 11
9249 2
9250 92
9251 29
9252 67
9253 91
9254 11
9255 34
9256 56
9257 11
9258 24
9259 10
9260 72
9261 118
9262 53
9263 2
9264 91
9265 56
9266 74
9267 110
9268 15
9269 5
9270 86
9271 53
9272 17
9273 43
9274 20
9275 72
9276 34
9277 97
9278 7
9279 17
9280 60
9281 99
9282 86
9283 104
9284 27
9285 27
9286 5
9287 23
9288 31
9289 91
9290 56
9291 60
9292 91
9293 20
9294 103
9295 27
9296 79
9297 13
9298 34
9299 23
9300 6
9301 80
9302 91
9303 60
9304 11
9305 55
9306 34
9307 126
9308 11
9309 18
9310 20
9311 61
9312 46
9313 36
9314 112
9315 103
9316 20
9317 72
9318 34
9319 2
9320 120
9321 56
9322 30
9323 76
9324 29
9325 55
9326 0
9327 16
9328 16
9329 25
9330 20
9331 105
9332 0
9333 62
9334 5
9335 70
9336 5
9337 127
9338 9
9339 14
9340 88
9341 45
9342 11
9343 76
9344 103
9345 86
9346 91
9347 88
9348 11
9349 5
9350 65
9351 125
9352 76
9353 113
9354 56
9355 9
9356 83
9357 6
9358 48
9359 9
9360 16
9361 36
9362 20
9363 11
9364 93
9365 24
9366 35
9367 70
9368 62
9369 5
9370 30
9371 11
9372 56
9373 25
9374 22
9375 16
9376 30
9377 25
9378 72
9379 55
9380 16
9381 20
9382 29
9383 15
9384 7
9385 42
9386 22
9387 15
9388 11
9389 51
9390 6
9391 56
9392 15
9393 5
9394 62
9395 88
9396 11
9397 56
9398 34
9399 72
9400 5
9401 86
9402 13
9403 25
9404 7
9405 92
9406 11
9407 11
9408 78
9409 5
9410 5
9411 27
9412 60
9413 31
9414 34
9415 34
9416 16
9417 11
9418 91
9419 5
9420 5
9421 31
9422 20
9423 17
9424 11
9425 16
9426 62
9427 46
9428 92
9429 84
9430 47
9431 52
9432 2
9433 65
9434 115
9435 95
9436 98
9437 34
9438 34
9439 73
9440 11
9441 98
9442 23
9443 47
9444 16
9445 106
9446 70
9447 119
9448 16
9449 34
9450 11
9451 16
9452 30
9453 9
9454 85
9455 26
9456 67
9457 34
9458 77
9459 56
9460 86
9461 27
9462 52
9463 56
9464 14
9465 48
9466 56
9467 11
9468 22
9469 16
9470 92
9471 22
9472 56
9473 98
9474 22
9475 22
9476 55
9477 112
9478 50
9479 56
9480 16
9481 20
9482 2
9483 56
9484 52
9485 24
9486 29
9487 20
9488 24
9489 11
9490 31
9491 8
9492 27
9493 89
9494 34
9495 29
9496 54
9497 2
9498 86
9499 5
9500 16
9501 3
9502 34
9503 32
9504 22
9505 28
9506 118
9507 5
9508 92
9509 11
9510 47
9511 11
9512 5
9513 22
9514 0
9515 22
9516 71
9517 26
9518 31
9519 74
9520 20
9521 19
9522 107
9523 11
9524 16
9525 92
9526 54
9527 26
9528 34
9529 5
9530 62
9531 127
9532 34
9533 49
9534 126
9535 2
9536 2
9537 86
9538 47
9539 15
9540 70
9541 11
9542 83
9543 88
9544 122
9545 56
9546 58
9547 51
9548 81
9549 35
9550 5
9551 20
9552 74
9553 74
9554 15
9555 91
9556 22
9557 74
9558 53
9559 20
9560 33
9561 26
9562 10
9563 72
9564 4
9565 70
9566 15
9567 62
9568 67
9569 25
9570 24
9571 20
9572 67
9573 80
9574 74
9575 5
9576 2
9577 18
9578 20
9579 106
9580 72
9581 7
9582 107
9583 76
9584 74
9585 72
9586 120
9587 62
9588 11
9589 53
9590 11
9591 0
9592 15
9593 2
9594 77
9595 26
9596 1
9597 53
9598 53
9599 5
9600 110
9601 72
9602 70
9603 37
9604 74
9605 107
9606 90
9607 89
9608 107
9609 57
9610 113
9611 56
9612 72
9613 41
9614 102
9615 127
9616 34
9617 77
9618 16
9619 89
9620 8
9621 20
9622 46
9623 20
9624 53
9625 11
9626 8
9627 72
9628 34
9629 11
9630 0
9631 11
9632 107
9633 16
9634 8
9635 91
9636 26
9637 11
9638 93
9639 66
9640 127
9641 102
9642 8
9643 89
9644 91
9645 54
9646 89
9647 56
9648 53
9649 74
9650 34
9651 76
9652 63
9653 73
9654 70
9655 20
9656 63
9657 56
9658 65
9659 89
9660 45
9661 22
9662 97
9663 9
9664 28
9665 5
9666 5
9667 89
9668 28
9669 22
9670 85
9671 96
9672 72
9673 74
9674 10
9675 74
9676 15
9677 34
9678 79
9679 20
9680 72
9681 89
9682 10
9683 52
9684 63
9685 5
9686 77
9687 11
9688 42
9689 33
9690 91
9691 45
9692 56
9693 107
9694 0
9695 63
9696 34
9697 74
9698 91
9699 28
9700 107
9701 91
9702 65
9703 45
9704 74
9705 106
9706 117
9707 46
9708 5
9709 108
9710 11
9711 47
9712 9
9713 20
9714 92
9715 45
9716 79
9717 10
9718 61
9719 102
9720 22
9721 22
9722 13
9723 6
9724 47
9725 39
9726 79
9727 30
9728 95
9729 37
9730 50
9731 105
9732 50
9733 113
9734 98
9735 19
9736 39
9737 86
9738 43
9739 45
9740 79
9741 16
9742 91
9743 34
9744 102
9745 25
9746 95
9747 11
9748 2
9749 17
9750 26
9751 2
9752 29
9753 107
9754 55
9755 71
9756 11
9757 47
9758 53
9759 55
9760 46
9761 37
9762 6
9763 40
9764 17
9765 97
9766 56
9767 17
9768 91
9769 91
9770 11
9771 69
9772 91
9773 19
9774 120
9775 13
9776 24
9777 56
9778 50
9779 22
9780 17
9781 74
9782 11
9783 56
9784 3
9785 77
9786 5
9787 5
9788 78
9789 29
9790 30
9791 69
9792 11
9793 29
9794 47
9795 45
9796 89
9797 5
9798 22
9799 64
9800 71
9801 16
9802 34
9803 91
9804 11
9805 112
9806 2
9807 56
9808 22
9809 85
9810 95
9811 34
9812 55
9813 74
9814 58
9815 2
9816 102
9817 86
9818 27
9819 95
9820 16
9821 45
9822 46
9823 102
9824 24
9825 22
9826 112
9827 91
9828 76
9829 20
9830 51
9831 35
9832 34
9833 106
9834 112
9835 2
9836 103
9837 91
9838 62
9839 47
9840 5
9841 74
9842 16
9843 16
9844 72
9845 57
9846 34
9847 50
9848 22
9849 86
9850 45
9851 106
9852 72
9853 91
9854 107
9855 56
9856 76
9857 103
9858 88
9859 36
9860 27
9861 52
9862 20
9863 34
9864 75
9865 118
9866 45
9867 20
9868 77
9869 24
9870 30
9871 107
9872 70
9873 47
9874 20
9875 25
9876 102
9877 25
9878 60
9879 22
9880 72
9881 5
9882 89
9883 63
9884 91
9885 36
9886 63
9887 107
9888 107
9889 11
9890 63
9891 53
9892 11
9893 16
9894 63
9895 5
9896 27
9897 98
9898 89
9899 11
9900 74
9901 89
9902 89
9903 81
9904 22
9905 11
9906 88
9907 15
9908 74
9909 72
9910 74
9911 88
9912 5
9913 72
9914 52
9915 11
9916 34
9917 63
9918 63
9919 89
9920 49
9921 81
9922 34
9923 32
9924 107
9925 109
9926 34
9927 44
9928 63
9929 56
9930 109
9931 10
9932 5
9933 4
9934 89
9935 60
9936 88
9937 5
9938 58
9939 74
9940 71
9941 0
9942 11
9943 34
9944 20
9945 31
9946 11
9947 63
9948 11
9949 45
9950 20
9951 16
9952 56
9953 72
9954 63
9955 26
9956 29
9957 11
9958 9
9959 2
9960 81
9961 22
9962 107
9963 74
9964 76
9965 107
9966 57
9967 63
9968 11
9969 107
9970 20
9971 107
9972 15
9973 9
9974 72
9975 122
9976 26
9977 15
9978 56
9979 107
9980 2
9981 11
9982 12
9983 10
9984 72
9985 76
9986 76
9987 16
9988 18
9989 107
9990 22
9991 24
9992 24
9993 73
9994 47
9995 22
9996 17
9997 34
9998 91
9999 17
