0 0
1 1
2 2
3 3
4 4
5 5
6 6
7 7
8 8
9 9
10 10
11 11
12 12
13 13
14 14
15 15
16 16
17 17
18 3
19 10
20 17
21 4
22 18
23 19
24 20
25 21
26 22
27 23
28 24
29 25
30 1
31 11
32 26
33 27
34 25
35 28
36 29
37 24
38 2
39 30
40 31
41 4
42 32
43 33
44 34
45 35
46 36
47 2
48 37
49 38
50 39
51 40
52 14
53 40
54 41
55 42
56 16
57 2
58 43
59 40
60 44
61 45
62 46
63 2
64 47
65 9
66 48
67 49
68 50
69 51
70 23
71 52
72 40
73 6
74 53
75 44
76 40
77 54
78 14
79 14
80 55
81 56
82 57
83 58
84 59
85 45
86 25
87 24
88 60
89 58
90 61
91 25
92 62
93 45
94 11
95 63
96 64
97 65
98 55
99 3
100 66
101 67
102 23
103 12
104 54
105 68
106 69
107 70
108 38
109 71
110 72
111 28
112 49
113 73
114 74
115 67
116 65
117 75
118 25
119 76
120 77
121 56
122 51
123 2
124 41
125 78
126 63
127 43
128 11
129 2
130 79
131 2
132 65
133 61
134 61
135 74
136 75
137 15
138 52
139 40
140 26
141 24
142 47
143 25
144 7
145 13
146 24
147 56
148 80
149 81
150 82
151 24
152 80
153 83
154 49
155 34
156 25
157 20
158 73
159 24
160 14
161 24
162 33
163 18
164 36
165 14
166 23
167 53
168 24
169 10
170 59
171 40
172 41
173 83
174 72
175 3
176 12
177 43
178 23
179 84
180 21
181 56
182 72
183 85
184 86
185 87
186 88
187 63
188 64
189 89
190 90
191 72
192 8
193 91
194 78
195 92
196 70
197 23
198 79
199 3
200 65
201 3
202 23
203 92
204 25
205 72
206 73
207 20
208 65
209 74
210 93
211 62
212 28
213 48
214 26
215 17
216 49
217 58
218 42
219 38
220 82
221 20
222 60
223 73
224 82
225 52
226 62
227 26
228 37
229 29
230 94
231 95
232 96
233 18
234 91
235 72
236 95
237 39
238 95
239 6
240 97
241 21
242 76
243 47
244 21
245 61
246 8
247 93
248 98
249 99
250 62
251 18
252 100
253 91
254 101
255 45
256 102
257 23
258 103
259 13
260 37
261 40
262 25
263 13
264 28
265 104
266 74
267 98
268 28
269 58
270 48
271 6
272 80
273 103
274 105
275 15
276 106
277 72
278 107
279 80
280 62
281 108
282 83
283 109
284 102
285 3
286 56
287 110
288 84
289 111
290 65
291 37
292 70
293 14
294 47
295 112
296 23
297 3
298 106
299 107
300 27
301 58
302 37
303 24
304 45
305 88
306 97
307 40
308 113
309 42
310 38
311 23
312 105
313 114
314 20
315 90
316 53
317 83
318 52
319 100
320 24
321 2
322 24
323 70
324 80
325 62
326 72
327 110
328 9
329 103
330 77
331 1
332 95
333 79
334 113
335 92
336 40
337 65
338 113
339 101
340 25
341 87
342 53
343 80
344 52
345 59
346 56
347 37
348 56
349 113
350 80
351 18
352 115
353 100
354 107
355 116
356 95
357 87
358 2
359 35
360 87
361 10
362 101
363 104
364 34
365 110
366 20
367 26
368 25
369 64
370 45
371 58
372 23
373 18
374 80
375 92
376 46
377 52
378 84
379 49
380 55
381 76
382 5
383 88
384 63
385 23
386 42
387 14
388 26
389 91
390 93
391 80
392 49
393 9
394 88
395 8
396 75
397 11
398 91
399 33
400 56
401 23
402 1
403 75
404 86
405 1
406 28
407 4
408 102
409 33
410 52
411 100
412 88
413 61
414 46
415 97
416 59
417 73
418 3
419 38
420 44
421 24
422 73
423 5
424 43
425 117
426 61
427 80
428 47
429 48
430 15
431 23
432 40
433 2
434 92
435 72
436 84
437 108
438 56
439 24
440 17
441 42
442 32
443 3
444 39
445 86
446 80
447 33
448 56
449 110
450 62
451 13
452 86
453 72
454 6
455 86
456 56
457 58
458 59
459 72
460 2
461 38
462 13
463 92
464 30
465 107
466 77
467 34
468 90
469 95
470 9
471 52
472 118
473 60
474 34
475 7
476 46
477 84
478 63
479 34
480 95
481 21
482 45
483 48
484 11
485 41
486 3
487 74
488 71
489 2
490 106
491 62
492 110
493 6
494 23
495 6
496 62
497 23
498 111
499 40
500 39
501 87
502 27
503 93
504 8
505 101
506 69
507 49
508 3
509 82
510 1
511 112
512 7
513 59
514 101
515 94
516 36
517 40
518 79
519 41
520 78
521 14
522 9
523 47
524 54
525 44
526 58
527 42
528 116
529 119
530 11
531 120
532 11
533 38
534 12
535 60
536 1
537 108
538 60
539 52
540 8
541 6
542 97
543 45
544 62
545 21
546 44
547 18
548 24
549 105
550 18
551 52
552 55
553 2
554 33
555 7
556 71
557 73
558 86
559 63
560 91
561 22
562 15
563 95
564 74
565 93
566 12
567 121
568 8
569 74
570 40
571 122
572 95
573 63
574 87
575 123
576 121
577 82
578 92
579 113
580 33
581 124
582 24
583 75
584 63
585 108
586 70
587 123
588 104
589 3
590 25
591 19
592 33
593 80
594 32
595 84
596 13
597 9
598 2
599 2
600 62
601 125
602 13
603 125
604 11
605 53
606 33
607 21
608 23
609 24
610 36
611 101
612 40
613 20
614 73
615 55
616 91
617 114
618 36
619 100
620 65
621 98
622 2
623 72
624 82
625 7
626 32
627 80
628 23
629 33
630 17
631 17
632 9
633 20
634 63
635 88
636 56
637 63
638 126
639 73
640 110
641 61
642 79
643 48
644 74
645 86
646 60
647 92
648 111
649 127
650 93
651 23
652 17
653 2
654 99
655 74
656 35
657 77
658 73
659 61
660 108
661 116
662 123
663 103
664 21
665 26
666 123
667 78
668 107
669 76
670 6
671 97
672 46
673 42
674 105
675 123
676 20
677 52
678 48
679 128
680 80
681 61
682 98
683 18
684 48
685 25
686 88
687 87
688 80
689 62
690 23
691 64
692 25
693 14
694 60
695 4
696 65
697 111
698 97
699 93
700 47
701 51
702 83
703 88
704 27
705 32
706 53
707 14
708 24
709 100
710 62
711 106
712 54
713 24
714 72
715 23
716 17
717 110
718 97
719 10
720 71
721 4
722 94
723 54
724 18
725 97
726 99
727 1
728 93
729 46
730 21
731 1
732 22
733 65
734 14
735 103
736 35
737 86
738 34
739 23
740 78
741 8
742 86
743 93
744 45
745 13
746 47
747 116
748 54
749 72
750 78
751 72
752 47
753 36
754 79
755 39
756 7
757 105
758 57
759 110
760 106
761 27
762 33
763 21
764 73
765 62
766 3
767 23
768 4
769 11
770 107
771 103
772 6
773 45
774 100
775 40
776 35
777 32
778 54
779 76
780 47
781 9
782 20
783 67
784 77
785 110
786 82
787 105
788 11
789 103
790 80
791 87
792 114
793 47
794 12
795 37
796 8
797 102
798 23
799 58
800 33
801 15
802 119
803 23
804 77
805 56
806 99
807 92
808 20
809 24
810 110
811 80
812 58
813 39
814 95
815 74
816 56
817 90
818 92
819 129
820 25
821 23
822 120
823 76
824 90
825 28
826 46
827 125
828 4
829 44
830 20
831 125
832 26
833 12
834 3
835 112
836 83
837 82
838 122
839 7
840 63
841 83
842 99
843 37
844 23
845 119
846 11
847 93
848 61
849 11
850 49
851 129
852 70
853 100
854 58
855 106
856 106
857 45
858 55
859 35
860 28
861 93
862 1
863 57
864 37
865 59
866 14
867 47
868 113
869 7
870 74
871 77
872 95
873 88
874 1
875 10
876 4
877 54
878 55
879 73
880 125
881 110
882 98
883 100
884 81
885 44
886 111
887 45
888 61
889 13
890 5
891 56
892 72
893 6
894 6
895 25
896 61
897 80
898 71
899 83
900 100
901 24
902 93
903 93
904 129
905 23
906 45
907 52
908 15
909 93
910 130
911 2
912 70
913 101
914 105
915 44
916 61
917 34
918 82
919 83
920 60
921 47
922 3
923 74
924 86
925 109
926 52
927 21
928 7
929 124
930 57
931 94
932 45
933 124
934 120
935 52
936 95
937 51
938 61
939 32
940 61
941 88
942 103
943 17
944 20
945 74
946 8
947 21
948 55
949 83
950 45
951 93
952 108
953 49
954 6
955 42
956 8
957 29
958 4
959 8
960 101
961 2
962 55
963 13
964 45
965 61
966 107
967 62
968 25
969 100
970 10
971 111
972 32
973 55
974 10
975 92
976 51
977 26
978 88
979 56
980 39
981 110
982 51
983 53
984 20
985 74
986 46
987 97
988 59
989 43
990 5
991 106
992 120
993 65
994 3
995 124
996 55
997 109
998 29
999 120
1000 27
1001 18
1002 71
1003 94
1004 14
1005 56
1006 49
1007 100
1008 33
1009 12
1010 120
1011 58
1012 62
1013 37
1014 17
1015 80
1016 40
1017 37
1018 42
1019 79
1020 73
1021 97
1022 7
1023 111
1024 53
1025 72
1026 80
1027 103
1028 88
1029 4
1030 62
1031 105
1032 35
1033 52
1034 55
1035 54
1036 70
1037 130
1038 24
1039 4
1040 46
1041 3
1042 24
1043 116
1044 8
1045 9
1046 11
1047 73
1048 49
1049 20
1050 5
1051 11
1052 20
1053 94
1054 29
1055 88
1056 47
1057 39
1058 47
1059 57
1060 73
1061 99
1062 78
1063 71
1064 43
1065 54
1066 59
1067 3
1068 84
1069 24
1070 66
1071 8
1072 119
1073 84
1074 106
1075 3
1076 3
1077 25
1078 64
1079 21
1080 33
1081 21
1082 112
1083 65
1084 36
1085 20
1086 58
1087 0
1088 59
1089 114
1090 33
1091 120
1092 71
1093 9
1094 128
1095 90
1096 107
1097 100
1098 24
1099 26
1100 59
1101 78
1102 92
1103 3
1104 3
1105 17
1106 20
1107 108
1108 71
1109 53
1110 24
1111 56
1112 29
1113 7
1114 25
1115 80
1116 72
1117 19
1118 9
1119 121
1120 67
1121 62
1122 86
1123 86
1124 58
1125 65
1126 2
1127 88
1128 62
1129 20
1130 105
1131 107
1132 38
1133 58
1134 114
1135 105
1136 20
1137 73
1138 92
1139 55
1140 98
1141 95
1142 9
1143 55
1144 87
1145 32
1146 37
1147 51
1148 72
1149 105
1150 27
1151 27
1152 68
1153 27
1154 50
1155 131
1156 53
1157 24
1158 12
1159 98
1160 25
1161 23
1162 95
1163 100
1164 17
1165 48
1166 9
1167 7
1168 124
1169 71
1170 103
1171 26
1172 83
1173 9
1174 55
1175 1
1176 75
1177 91
1178 48
1179 98
1180 72
1181 49
1182 21
1183 95
1184 54
1185 49
1186 25
1187 23
1188 22
1189 97
1190 72
1191 88
1192 100
1193 37
1194 41
1195 65
1196 83
1197 70
1198 21
1199 123
1200 62
1201 33
1202 2
1203 62
1204 33
1205 74
1206 3
1207 68
1208 16
1209 93
1210 8
1211 40
1212 123
1213 86
1214 92
1215 82
1216 123
1217 48
1218 16
1219 82
1220 3
1221 48
1222 2
1223 58
1224 67
1225 22
1226 123
1227 28
1228 86
1229 41
1230 12
1231 98
1232 82
1233 72
1234 19
1235 111
1236 55
1237 110
1238 3
1239 126
1240 53
1241 101
1242 84
1243 59
1244 6
1245 31
1246 72
1247 52
1248 48
1249 46
1250 112
1251 97
1252 100
1253 62
1254 75
1255 4
1256 72
1257 82
1258 10
1259 72
1260 114
1261 80
1262 119
1263 100
1264 76
1265 74
1266 2
1267 116
1268 66
1269 92
1270 7
1271 2
1272 80
1273 100
1274 36
1275 26
1276 51
1277 42
1278 23
1279 94
1280 86
1281 114
1282 9
1283 120
1284 62
1285 125
1286 109
1287 75
1288 62
1289 37
1290 18
1291 19
1292 4
1293 73
1294 46
1295 106
1296 95
1297 52
1298 26
1299 101
1300 108
1301 61
1302 66
1303 14
1304 32
1305 4
1306 39
1307 14
1308 24
1309 82
1310 76
1311 99
1312 57
1313 34
1314 106
1315 11
1316 19
1317 8
1318 87
1319 74
1320 43
1321 45
1322 72
1323 33
1324 116
1325 72
1326 79
1327 32
1328 75
1329 77
1330 92
1331 18
1332 55
1333 77
1334 117
1335 25
1336 33
1337 129
1338 95
1339 10
1340 125
1341 49
1342 45
1343 60
1344 96
1345 46
1346 114
1347 27
1348 113
1349 23
1350 26
1351 52
1352 46
1353 98
1354 4
1355 87
1356 56
1357 18
1358 61
1359 65
1360 11
1361 29
1362 121
1363 86
1364 11
1365 104
1366 26
1367 23
1368 45
1369 21
1370 56
1371 18
1372 87
1373 45
1374 11
1375 4
1376 109
1377 93
1378 93
1379 92
1380 14
1381 11
1382 28
1383 29
1384 28
1385 0
1386 33
1387 57
1388 7
1389 55
1390 121
1391 11
1392 35
1393 20
1394 3
1395 25
1396 61
1397 25
1398 130
1399 61
1400 76
1401 105
1402 107
1403 97
1404 2
1405 126
1406 106
1407 107
1408 102
1409 5
1410 5
1411 87
1412 80
1413 42
1414 65
1415 38
1416 7
1417 86
1418 93
1419 32
1420 110
1421 4
1422 37
1423 4
1424 132
1425 49
1426 101
1427 119
1428 93
1429 121
1430 3
1431 13
1432 88
1433 39
1434 47
1435 55
1436 120
1437 5
1438 91
1439 83
1440 83
1441 17
1442 47
1443 83
1444 2
1445 74
1446 61
1447 87
1448 36
1449 79
1450 61
1451 83
1452 100
1453 28
1454 107
1455 111
1456 20
1457 72
1458 14
1459 93
1460 86
1461 33
1462 80
1463 17
1464 101
1465 93
1466 32
1467 121
1468 5
1469 40
1470 52
1471 126
1472 110
1473 11
1474 8
1475 94
1476 112
1477 102
1478 58
1479 130
1480 49
1481 111
1482 21
1483 27
1484 40
1485 61
1486 124
1487 83
1488 5
1489 39
1490 46
1491 45
1492 66
1493 62
1494 39
1495 82
1496 79
1497 63
1498 35
1499 71
1500 60
1501 108
1502 45
1503 26
1504 94
1505 80
1506 37
1507 23
1508 83
1509 51
1510 121
1511 15
1512 52
1513 42
1514 74
1515 90
1516 99
1517 11
1518 10
1519 8
1520 87
1521 92
1522 44
1523 98
1524 80
1525 55
1526 12
1527 77
1528 110
1529 14
1530 101
1531 1
1532 34
1533 14
1534 47
1535 93
1536 109
1537 112
1538 5
1539 97
1540 72
1541 41
1542 36
1543 77
1544 4
1545 79
1546 59
1547 25
1548 90
1549 125
1550 117
1551 75
1552 60
1553 92
1554 26
1555 102
1556 17
1557 93
1558 20
1559 126
1560 114
1561 65
1562 104
1563 30
1564 73
1565 47
1566 65
1567 54
1568 31
1569 88
1570 3
1571 79
1572 78
1573 62
1574 78
1575 56
1576 78
1577 60
1578 116
1579 39
1580 8
1581 4
1582 73
1583 14
1584 64
1585 3
1586 19
1587 86
1588 4
1589 105
1590 2
1591 8
1592 20
1593 87
1594 121
1595 112
1596 25
1597 119
1598 121
1599 95
1600 5
1601 125
1602 96
1603 55
1604 67
1605 94
1606 15
1607 86
1608 7
1609 124
1610 79
1611 11
1612 25
1613 13
1614 18
1615 9
1616 125
1617 90
1618 58
1619 82
1620 16
1621 110
1622 37
1623 49
1624 11
1625 91
1626 55
1627 25
1628 45
1629 77
1630 43
1631 53
1632 72
1633 61
1634 90
1635 92
1636 111
1637 33
1638 35
1639 15
1640 2
1641 29
1642 21
1643 128
1644 33
1645 29
1646 55
1647 14
1648 6
1649 74
1650 29
1651 58
1652 93
1653 67
1654 7
1655 65
1656 111
1657 13
1658 29
1659 3
1660 14
1661 54
1662 3
1663 111
1664 44
1665 34
1666 61
1667 33
1668 114
1669 9
1670 24
1671 120
1672 93
1673 92
1674 33
1675 60
1676 75
1677 96
1678 93
1679 108
1680 6
1681 129
1682 125
1683 21
1684 23
1685 1
1686 95
1687 45
1688 88
1689 133
1690 3
1691 55
1692 1
1693 92
1694 88
1695 55
1696 43
1697 87
1698 23
1699 93
1700 114
1701 88
1702 38
1703 22
1704 128
1705 114
1706 74
1707 62
1708 15
1709 23
1710 124
1711 4
1712 17
1713 33
1714 56
1715 73
1716 103
1717 38
1718 74
1719 71
1720 12
1721 64
1722 59
1723 59
1724 55
1725 110
1726 121
1727 25
1728 1
1729 73
1730 70
1731 78
1732 18
1733 110
1734 52
1735 93
1736 4
1737 64
1738 5
1739 60
1740 46
1741 23
1742 27
1743 70
1744 22
1745 64
1746 94
1747 73
1748 56
1749 13
1750 17
1751 24
1752 18
1753 13
1754 39
1755 4
1756 61
1757 40
1758 110
1759 50
1760 120
1761 5
1762 110
1763 62
1764 37
1765 28
1766 54
1767 23
1768 16
1769 48
1770 49
1771 32
1772 52
1773 101
1774 37
1775 23
1776 5
1777 4
1778 33
1779 23
1780 119
1781 101
1782 74
1783 67
1784 101
1785 80
1786 38
1787 88
1788 79
1789 86
1790 87
1791 23
1792 53
1793 92
1794 17
1795 73
1796 8
1797 4
1798 27
1799 65
1800 5
1801 113
1802 17
1803 71
1804 121
1805 71
1806 51
1807 7
1808 4
1809 99
1810 18
1811 25
1812 121
1813 72
1814 46
1815 4
1816 78
1817 23
1818 123
1819 75
1820 120
1821 112
1822 111
1823 122
1824 22
1825 15
1826 39
1827 12
1828 87
1829 1
1830 54
1831 56
1832 18
1833 47
1834 90
1835 59
1836 4
1837 46
1838 24
1839 49
1840 9
1841 3
1842 23
1843 17
1844 3
1845 55
1846 66
1847 83
1848 111
1849 87
1850 54
1851 46
1852 49
1853 39
1854 28
1855 28
1856 82
1857 4
1858 10
1859 19
1860 26
1861 46
1862 110
1863 2
1864 72
1865 57
1866 72
1867 43
1868 95
1869 62
1870 38
1871 52
1872 2
1873 14
1874 78
1875 92
1876 110
1877 80
1878 49
1879 21
1880 86
1881 51
1882 73
1883 58
1884 58
1885 92
1886 93
1887 110
1888 9
1889 27
1890 59
1891 76
1892 3
1893 7
1894 119
1895 72
1896 4
1897 57
1898 86
1899 83
1900 8
1901 27
1902 92
1903 18
1904 52
1905 125
1906 92
1907 72
1908 125
1909 51
1910 49
1911 104
1912 66
1913 36
1914 18
1915 53
1916 77
1917 98
1918 35
1919 5
1920 72
1921 122
1922 90
1923 80
1924 65
1925 98
1926 29
1927 49
1928 74
1929 100
1930 29
1931 67
1932 121
1933 17
1934 3
1935 95
1936 6
1937 105
1938 126
1939 3
1940 92
1941 120
1942 19
1943 86
1944 95
1945 58
1946 9
1947 101
1948 60
1949 82
1950 107
1951 2
1952 101
1953 3
1954 101
1955 119
1956 82
1957 77
1958 26
1959 21
1960 101
1961 39
1962 33
1963 61
1964 57
1965 7
1966 92
1967 9
1968 122
1969 90
1970 2
1971 107
1972 106
1973 58
1974 71
1975 75
1976 114
1977 1
1978 34
1979 23
1980 46
1981 21
1982 21
1983 75
1984 57
1985 78
1986 109
1987 110
1988 21
1989 111
1990 22
1991 110
1992 34
1993 84
1994 113
1995 45
1996 11
1997 126
1998 28
1999 4
2000 6
2001 56
2002 3
2003 30
2004 20
2005 101
2006 3
2007 18
2008 72
2009 76
2010 15
2011 51
2012 54
2013 20
2014 72
2015 55
2016 28
2017 90
2018 101
2019 55
2020 54
2021 61
2022 13
2023 24
2024 80
2025 78
2026 28
2027 49
2028 1
2029 111
2030 1
2031 54
2032 25
2033 40
2034 7
2035 74
2036 51
2037 86
2038 26
2039 74
2040 107
2041 53
2042 25
2043 4
2044 63
2045 79
2046 47
2047 85
2048 45
2049 116
2050 69
2051 10
2052 1
2053 15
2054 51
2055 46
2056 126
2057 1
2058 71
2059 54
2060 2
2061 54
2062 7
2063 57
2064 95
2065 40
2066 12
2067 85
2068 41
2069 95
2070 55
2071 40
2072 11
2073 31
2074 49
2075 101
2076 43
2077 31
2078 14
2079 13
2080 128
2081 104
2082 87
2083 9
2084 114
2085 54
2086 106
2087 117
2088 33
2089 22
2090 123
2091 12
2092 62
2093 91
2094 42
2095 3
2096 104
2097 106
2098 125
2099 88
2100 9
2101 49
2102 4
2103 98
2104 40
2105 100
2106 20
2107 109
2108 72
2109 61
2110 55
2111 134
2112 70
2113 21
2114 70
2115 21
2116 51
2117 11
2118 101
2119 48
2120 46
2121 92
2122 111
2123 7
2124 112
2125 58
2126 134
2127 38
2128 61
2129 5
2130 82
2131 93
2132 20
2133 112
2134 97
2135 127
2136 114
2137 4
2138 47
2139 58
2140 94
2141 51
2142 58
2143 49
2144 50
2145 22
2146 119
2147 40
2148 94
2149 3
2150 79
2151 77
2152 79
2153 111
2154 80
2155 33
2156 98
2157 43
2158 111
2159 73
2160 94
2161 9
2162 3
2163 124
2164 12
2165 133
2166 77
2167 37
2168 52
2169 8
2170 65
2171 23
2172 86
2173 114
2174 23
2175 66
2176 37
2177 76
2178 43
2179 117
2180 75
2181 125
2182 98
2183 110
2184 18
2185 5
2186 128
2187 25
2188 25
2189 121
2190 9
2191 87
2192 36
2193 57
2194 84
2195 74
2196 79
2197 103
2198 95
2199 13
2200 40
2201 71
2202 59
2203 95
2204 48
2205 56
2206 57
2207 93
2208 6
2209 11
2210 5
2211 59
2212 23
2213 33
2214 74
2215 5
2216 111
2217 55
2218 64
2219 33
2220 49
2221 26
2222 92
2223 14
2224 16
2225 62
2226 57
2227 59
2228 114
2229 33
2230 14
2231 37
2232 73
2233 59
2234 71
2235 86
2236 51
2237 48
2238 41
2239 92
2240 33
2241 21
2242 17
2243 93
2244 121
2245 45
2246 93
2247 13
2248 14
2249 37
2250 16
2251 2
2252 25
2253 94
2254 41
2255 49
2256 18
2257 56
2258 73
2259 125
2260 91
2261 49
2262 75
2263 34
2264 62
2265 24
2266 42
2267 5
2268 51
2269 69
2270 15
2271 20
2272 121
2273 3
2274 46
2275 61
2276 10
2277 125
2278 3
2279 92
2280 55
2281 93
2282 33
2283 86
2284 42
2285 129
2286 46
2287 9
2288 101
2289 103
2290 44
2291 17
2292 72
2293 104
2294 43
2295 26
2296 106
2297 94
2298 9
2299 111
2300 25
2301 20
2302 19
2303 2
2304 9
2305 25
2306 38
2307 72
2308 61
2309 103
2310 95
2311 103
2312 6
2313 84
2314 43
2315 39
2316 4
2317 13
2318 74
2319 11
2320 56
2321 26
2322 46
2323 105
2324 59
2325 2
2326 4
2327 59
2328 5
2329 17
2330 60
2331 3
2332 27
2333 26
2334 66
2335 17
2336 1
2337 3
2338 110
2339 24
2340 93
2341 44
2342 67
2343 23
2344 23
2345 73
2346 47
2347 33
2348 106
2349 102
2350 37
2351 73
2352 25
2353 11
2354 86
2355 121
2356 33
2357 3
2358 39
2359 72
2360 67
2361 46
2362 104
2363 52
2364 114
2365 110
2366 1
2367 74
2368 92
2369 75
2370 107
2371 108
2372 44
2373 100
2374 14
2375 23
2376 63
2377 8
2378 37
2379 31
2380 13
2381 14
2382 3
2383 33
2384 67
2385 58
2386 101
2387 37
2388 101
2389 93
2390 33
2391 74
2392 71
2393 122
2394 96
2395 61
2396 109
2397 74
2398 66
2399 52
2400 27
2401 74
2402 107
2403 5
2404 1
2405 7
2406 93
2407 51
2408 13
2409 77
2410 72
2411 5
2412 55
2413 11
2414 113
2415 120
2416 40
2417 41
2418 63
2419 71
2420 93
2421 7
2422 74
2423 90
2424 104
2425 65
2426 9
2427 111
2428 8
2429 65
2430 20
2431 74
2432 72
2433 45
2434 1
2435 121
2436 124
2437 5
2438 5
2439 52
2440 88
2441 39
2442 26
2443 28
2444 93
2445 22
2446 4
2447 73
2448 102
2449 8
2450 72
2451 114
2452 39
2453 13
2454 86
2455 62
2456 101
2457 70
2458 60
2459 47
2460 83
2461 49
2462 72
2463 37
2464 12
2465 93
2466 6
2467 55
2468 106
2469 60
2470 6
2471 93
2472 106
2473 101
2474 128
2475 58
2476 24
2477 35
2478 9
2479 49
2480 3
2481 120
2482 74
2483 56
2484 107
2485 73
2486 101
2487 120
2488 8
2489 39
2490 14
2491 34
2492 52
2493 11
2494 116
2495 52
2496 8
2497 8
2498 95
2499 42
2500 103
2501 93
2502 33
2503 97
2504 72
2505 120
2506 52
2507 102
2508 8
2509 61
2510 81
2511 4
2512 72
2513 122
2514 1
2515 93
2516 40
2517 18
2518 133
2519 107
2520 86
2521 56
2522 46
2523 72
2524 78
2525 55
2526 121
2527 25
2528 39
2529 71
2530 4
2531 43
2532 75
2533 121
2534 21
2535 5
2536 110
2537 26
2538 44
2539 74
2540 81
2541 33
2542 46
2543 87
2544 27
2545 27
2546 86
2547 90
2548 112
2549 43
2550 98
2551 48
2552 4
2553 28
2554 61
2555 21
2556 43
2557 106
2558 121
2559 25
2560 91
2561 110
2562 8
2563 44
2564 97
2565 18
2566 40
2567 47
2568 114
2569 43
2570 13
2571 25
2572 73
2573 84
2574 31
2575 98
2576 76
2577 101
2578 123
2579 90
2580 8
2581 96
2582 20
2583 40
2584 52
2585 65
2586 6
2587 11
2588 116
2589 44
2590 8
2591 2
2592 3
2593 3
2594 78
2595 25
2596 12
2597 1
2598 28
2599 14
2600 53
2601 70
2602 25
2603 54
2604 33
2605 135
2606 72
2607 23
2608 94
2609 58
2610 9
2611 78
2612 1
2613 100
2614 74
2615 9
2616 37
2617 44
2618 23
2619 65
2620 91
2621 107
2622 17
2623 23
2624 33
2625 18
2626 59
2627 47
2628 48
2629 60
2630 125
2631 95
2632 18
2633 71
2634 125
2635 78
2636 46
2637 14
2638 87
2639 92
2640 65
2641 11
2642 100
2643 122
2644 11
2645 61
2646 74
2647 3
2648 117
2649 6
2650 21
2651 91
2652 41
2653 86
2654 7
2655 86
2656 70
2657 58
2658 69
2659 9
2660 59
2661 123
2662 64
2663 60
2664 14
2665 48
2666 72
2667 38
2668 93
2669 2
2670 3
2671 21
2672 25
2673 9
2674 41
2675 34
2676 61
2677 25
2678 35
2679 105
2680 33
2681 3
2682 93
2683 48
2684 104
2685 56
2686 25
2687 73
2688 9
2689 28
2690 41
2691 53
2692 123
2693 124
2694 126
2695 98
2696 39
2697 55
2698 117
2699 6
2700 95
2701 103
2702 101
2703 10
2704 23
2705 55
2706 2
2707 109
2708 59
2709 107
2710 90
2711 94
2712 125
2713 102
2714 70
2715 126
2716 99
2717 35
2718 5
2719 123
2720 27
2721 26
2722 2
2723 99
2724 32
2725 87
2726 102
2727 25
2728 71
2729 3
2730 120
2731 126
2732 35
2733 60
2734 13
2735 9
2736 75
2737 66
2738 100
2739 109
2740 47
2741 73
2742 125
2743 43
2744 110
2745 84
2746 5
2747 87
2748 57
2749 8
2750 73
2751 9
2752 69
2753 61
2754 31
2755 2
2756 33
2757 8
2758 46
2759 11
2760 62
2761 28
2762 24
2763 23
2764 82
2765 47
2766 8
2767 136
2768 17
2769 87
2770 18
2771 41
2772 124
2773 79
2774 26
2775 100
2776 58
2777 3
2778 76
2779 82
2780 55
2781 25
2782 56
2783 9
2784 26
2785 2
2786 94
2787 121
2788 101
2789 25
2790 11
2791 66
2792 75
2793 48
2794 56
2795 31
2796 12
2797 23
2798 75
2799 51
2800 62
2801 28
2802 3
2803 43
2804 4
2805 23
2806 14
2807 106
2808 7
2809 76
2810 99
2811 12
2812 93
2813 2
2814 80
2815 25
2816 54
2817 75
2818 28
2819 25
2820 27
2821 23
2822 105
2823 41
2824 87
2825 75
2826 59
2827 6
2828 61
2829 111
2830 56
2831 46
2832 99
2833 98
2834 14
2835 75
2836 23
2837 86
2838 62
2839 86
2840 25
2841 37
2842 109
2843 59
2844 23
2845 4
2846 123
2847 8
2848 61
2849 74
2850 125
2851 99
2852 100
2853 67
2854 59
2855 128
2856 3
2857 34
2858 86
2859 39
2860 86
2861 37
2862 75
2863 62
2864 99
2865 36
2866 92
2867 25
2868 24
2869 9
2870 93
2871 61
2872 2
2873 134
2874 107
2875 100
2876 76
2877 33
2878 24
2879 33
2880 7
2881 78
2882 49
2883 114
2884 25
2885 16
2886 70
2887 64
2888 14
2889 71
2890 128
2891 40
2892 18
2893 24
2894 23
2895 96
2896 34
2897 92
2898 41
2899 42
2900 70
2901 126
2902 33
2903 9
2904 106
2905 14
2906 80
2907 20
2908 72
2909 113
2910 35
2911 80
2912 9
2913 24
2914 2
2915 55
2916 61
2917 66
2918 39
2919 93
2920 17
2921 87
2922 1
2923 126
2924 87
2925 133
2926 38
2927 43
2928 125
2929 55
2930 10
2931 52
2932 24
2933 100
2934 81
2935 48
2936 67
2937 137
2938 90
2939 25
2940 87
2941 4
2942 67
2943 20
2944 1
2945 114
2946 4
2947 49
2948 11
2949 66
2950 56
2951 100
2952 100
2953 101
2954 61
2955 33
2956 62
2957 29
2958 83
2959 59
2960 114
2961 61
2962 121
2963 11
2964 5
2965 112
2966 62
2967 33
2968 100
2969 5
2970 121
2971 106
2972 35
2973 76
2974 72
2975 59
2976 80
2977 83
2978 86
2979 65
2980 100
2981 73
2982 101
2983 39
2984 78
2985 121
2986 3
2987 19
2988 43
2989 23
2990 90
2991 12
2992 8
2993 9
2994 1
2995 14
2996 46
2997 38
2998 18
2999 110
3000 27
3001 32
3002 8
3003 42
3004 49
3005 72
3006 83
3007 101
3008 106
3009 33
3010 39
3011 32
3012 46
3013 55
3014 92
3015 90
3016 28
3017 59
3018 133
3019 74
3020 7
3021 23
3022 41
3023 13
3024 58
3025 5
3026 58
3027 4
3028 79
3029 14
3030 20
3031 94
3032 71
3033 86
3034 5
3035 25
3036 74
3037 110
3038 40
3039 14
3040 100
3041 0
3042 20
3043 28
3044 27
3045 107
3046 110
3047 76
3048 4
3049 22
3050 61
3051 4
3052 88
3053 26
3054 28
3055 74
3056 18
3057 24
3058 2
3059 87
3060 121
3061 8
3062 52
3063 45
3064 49
3065 101
3066 6
3067 28
3068 74
3069 41
3070 60
3071 107
3072 25
3073 3
3074 66
3075 54
3076 4
3077 107
3078 12
3079 46
3080 116
3081 5
3082 120
3083 28
3084 48
3085 76
3086 11
3087 107
3088 35
3089 36
3090 24
3091 102
3092 59
3093 66
3094 12
3095 62
3096 13
3097 20
3098 94
3099 25
3100 1
3101 15
3102 37
3103 58
3104 2
3105 17
3106 6
3107 66
3108 90
3109 88
3110 21
3111 84
3112 3
3113 75
3114 116
3115 63
3116 86
3117 62
3118 52
3119 9
3120 3
3121 107
3122 47
3123 9
3124 72
3125 110
3126 123
3127 71
3128 40
3129 2
3130 86
3131 11
3132 129
3133 68
3134 103
3135 74
3136 51
3137 18
3138 33
3139 14
3140 120
3141 113
3142 71
3143 55
3144 52
3145 80
3146 114
3147 72
3148 15
3149 64
3150 110
3151 65
3152 24
3153 56
3154 15
3155 94
3156 52
3157 92
3158 18
3159 37
3160 123
3161 4
3162 6
3163 25
3164 22
3165 71
3166 75
3167 25
3168 28
3169 9
3170 43
3171 23
3172 65
3173 31
3174 44
3175 86
3176 92
3177 32
3178 106
3179 49
3180 24
3181 100
3182 109
3183 88
3184 67
3185 100
3186 34
3187 39
3188 74
3189 92
3190 35
3191 119
3192 66
3193 48
3194 26
3195 55
3196 51
3197 90
3198 34
3199 85
3200 15
3201 102
3202 87
3203 23
3204 1
3205 25
3206 76
3207 64
3208 101
3209 23
3210 87
3211 18
3212 34
3213 5
3214 14
3215 78
3216 43
3217 126
3218 64
3219 100
3220 0
3221 81
3222 47
3223 72
3224 19
3225 66
3226 58
3227 121
3228 76
3229 77
3230 37
3231 92
3232 67
3233 73
3234 39
3235 86
3236 55
3237 39
3238 58
3239 23
3240 92
3241 13
3242 23
3243 40
3244 111
3245 17
3246 120
3247 31
3248 4
3249 23
3250 32
3251 43
3252 20
3253 116
3254 74
3255 52
3256 129
3257 56
3258 25
3259 72
3260 52
3261 104
3262 71
3263 6
3264 33
3265 33
3266 55
3267 20
3268 125
3269 35
3270 111
3271 8
3272 33
3273 110
3274 14
3275 93
3276 71
3277 70
3278 35
3279 74
3280 86
3281 21
3282 76
3283 58
3284 42
3285 11
3286 52
3287 21
3288 92
3289 40
3290 7
3291 104
3292 46
3293 123
3294 76
3295 54
3296 57
3297 61
3298 54
3299 111
3300 48
3301 80
3302 32
3303 48
3304 80
3305 95
3306 6
3307 25
3308 14
3309 50
3310 17
3311 88
3312 19
3313 108
3314 104
3315 6
3316 43
3317 103
3318 72
3319 96
3320 12
3321 96
3322 24
3323 122
3324 18
3325 101
3326 49
3327 14
3328 93
3329 111
3330 71
3331 56
3332 117
3333 119
3334 3
3335 44
3336 37
3337 14
3338 107
3339 54
3340 23
3341 94
3342 46
3343 60
3344 3
3345 92
3346 49
3347 6
3348 110
3349 78
3350 82
3351 28
3352 44
3353 125
3354 9
3355 43
3356 93
3357 82
3358 119
3359 57
3360 75
3361 66
3362 60
3363 70
3364 117
3365 9
3366 55
3367 86
3368 27
3369 25
3370 106
3371 3
3372 72
3373 91
3374 3
3375 69
3376 1
3377 92
3378 106
3379 45
3380 91
3381 65
3382 3
3383 7
3384 7
3385 6
3386 7
3387 34
3388 54
3389 135
3390 78
3391 61
3392 29
3393 39
3394 3
3395 25
3396 23
3397 49
3398 52
3399 37
3400 92
3401 7
3402 48
3403 25
3404 91
3405 92
3406 83
3407 87
3408 9
3409 9
3410 62
3411 93
3412 24
3413 107
3414 91
3415 47
3416 120
3417 25
3418 100
3419 61
3420 72
3421 4
3422 9
3423 3
3424 106
3425 27
3426 6
3427 58
3428 72
3429 111
3430 138
3431 90
3432 33
3433 28
3434 133
3435 92
3436 100
3437 13
3438 46
3439 14
3440 110
3441 52
3442 74
3443 14
3444 45
3445 3
3446 82
3447 101
3448 41
3449 65
3450 80
3451 46
3452 98
3453 24
3454 102
3455 74
3456 72
3457 4
3458 73
3459 63
3460 18
3461 26
3462 1
3463 53
3464 28
3465 20
3466 52
3467 72
3468 83
3469 24
3470 105
3471 4
3472 23
3473 117
3474 92
3475 18
3476 40
3477 6
3478 114
3479 35
3480 23
3481 82
3482 61
3483 51
3484 35
3485 110
3486 70
3487 7
3488 58
3489 122
3490 92
3491 58
3492 87
3493 54
3494 107
3495 72
3496 61
3497 54
3498 128
3499 88
3500 103
3501 110
3502 61
3503 75
3504 5
3505 72
3506 14
3507 49
3508 1
3509 52
3510 61
3511 107
3512 78
3513 105
3514 39
3515 13
3516 46
3517 3
3518 29
3519 20
3520 98
3521 94
3522 111
3523 90
3524 33
3525 101
3526 72
3527 71
3528 61
3529 5
3530 4
3531 25
3532 62
3533 21
3534 33
3535 23
3536 56
3537 51
3538 3
3539 21
3540 92
3541 102
3542 47
3543 9
3544 18
3545 63
3546 70
3547 18
3548 55
3549 46
3550 127
3551 121
3552 1
3553 74
3554 47
3555 0
3556 52
3557 82
3558 72
3559 96
3560 73
3561 26
3562 73
3563 106
3564 92
3565 56
3566 20
3567 124
3568 93
3569 78
3570 111
3571 119
3572 71
3573 58
3574 52
3575 27
3576 7
3577 22
3578 95
3579 18
3580 7
3581 17
3582 71
3583 51
3584 87
3585 4
3586 87
3587 80
3588 116
3589 19
3590 60
3591 99
3592 78
3593 87
3594 71
3595 57
3596 3
3597 46
3598 75
3599 83
3600 75
3601 1
3602 63
3603 64
3604 30
3605 62
3606 83
3607 56
3608 101
3609 21
3610 80
3611 60
3612 80
3613 44
3614 6
3615 20
3616 10
3617 98
3618 116
3619 34
3620 79
3621 125
3622 45
3623 22
3624 8
3625 24
3626 114
3627 86
3628 31
3629 86
3630 37
3631 81
3632 25
3633 134
3634 121
3635 3
3636 66
3637 75
3638 124
3639 17
3640 87
3641 91
3642 40
3643 74
3644 1
3645 57
3646 4
3647 4
3648 100
3649 112
3650 67
3651 18
3652 4
3653 21
3654 48
3655 78
3656 100
3657 48
3658 38
3659 23
3660 12
3661 18
3662 86
3663 22
3664 92
3665 80
3666 80
3667 36
3668 61
3669 104
3670 94
3671 126
3672 123
3673 65
3674 3
3675 3
3676 40
3677 87
3678 126
3679 61
3680 106
3681 101
3682 1
3683 23
3684 56
3685 7
3686 135
3687 87
3688 22
3689 20
3690 10
3691 11
3692 16
3693 121
3694 43
3695 58
3696 2
3697 5
3698 43
3699 120
3700 8
3701 100
3702 23
3703 79
3704 37
3705 7
3706 80
3707 8
3708 29
3709 74
3710 17
3711 66
3712 26
3713 29
3714 90
3715 27
3716 56
3717 63
3718 87
3719 61
3720 10
3721 86
3722 61
3723 11
3724 4
3725 105
3726 74
3727 53
3728 111
3729 4
3730 27
3731 51
3732 92
3733 92
3734 126
3735 45
3736 67
3737 114
3738 41
3739 71
3740 62
3741 9
3742 5
3743 93
3744 76
3745 25
3746 87
3747 114
3748 126
3749 35
3750 111
3751 13
3752 55
3753 97
3754 73
3755 68
3756 72
3757 72
3758 94
3759 9
3760 70
3761 17
3762 7
3763 3
3764 92
3765 1
3766 100
3767 74
3768 73
3769 116
3770 8
3771 18
3772 110
3773 29
3774 4
3775 58
3776 58
3777 14
3778 33
3779 101
3780 125
3781 111
3782 66
3783 56
3784 13
3785 47
3786 32
3787 113
3788 119
3789 56
3790 86
3791 72
3792 59
3793 24
3794 56
3795 88
3796 82
3797 87
3798 31
3799 135
3800 3
3801 23
3802 80
3803 18
3804 60
3805 47
3806 47
3807 33
3808 110
3809 34
3810 15
3811 99
3812 71
3813 110
3814 100
3815 23
3816 8
3817 56
3818 60
3819 76
3820 30
3821 5
3822 87
3823 7
3824 87
3825 20
3826 18
3827 78
3828 43
3829 119
3830 114
3831 59
3832 73
3833 62
3834 54
3835 46
3836 49
3837 87
3838 4
3839 62
3840 53
3841 54
3842 72
3843 9
3844 110
3845 117
3846 57
3847 15
3848 18
3849 82
3850 67
3851 29
3852 37
3853 3
3854 20
3855 40
3856 59
3857 110
3858 87
3859 57
3860 59
3861 9
3862 125
3863 56
3864 7
3865 61
3866 7
3867 100
3868 72
3869 82
3870 72
3871 99
3872 27
3873 18
3874 98
3875 59
3876 77
3877 71
3878 93
3879 106
3880 123
3881 14
3882 33
3883 111
3884 61
3885 126
3886 93
3887 8
3888 87
3889 1
3890 56
3891 111
3892 37
3893 65
3894 23
3895 17
3896 106
3897 28
3898 41
3899 33
3900 2
3901 125
3902 102
3903 21
3904 51
3905 62
3906 9
3907 62
3908 59
3909 39
3910 112
3911 13
3912 25
3913 73
3914 73
3915 49
3916 54
3917 43
3918 11
3919 72
3920 9
3921 52
3922 51
3923 33
3924 34
3925 61
3926 80
3927 40
3928 119
3929 125
3930 67
3931 90
3932 14
3933 7
3934 109
3935 74
3936 80
3937 74
3938 90
3939 102
3940 39
3941 101
3942 7
3943 7
3944 66
3945 82
3946 107
3947 61
3948 5
3949 28
3950 70
3951 46
3952 111
3953 84
3954 45
3955 83
3956 65
3957 113
3958 93
3959 3
3960 28
3961 94
3962 11
3963 2
3964 49
3965 59
3966 12
3967 25
3968 56
3969 106
3970 52
3971 5
3972 111
3973 62
3974 73
3975 57
3976 66
3977 6
3978 1
3979 52
3980 101
3981 72
3982 79
3983 122
3984 37
3985 110
3986 10
3987 106
3988 12
3989 37
3990 7
3991 9
3992 52
3993 58
3994 106
3995 106
3996 90
3997 86
3998 112
3999 28
4000 90
4001 100
4002 3
4003 58
4004 106
4005 86
4006 94
4007 108
4008 110
4009 124
4010 22
4011 122
4012 29
4013 7
4014 103
4015 1
4016 19
4017 6
4018 92
4019 72
4020 8
4021 8
4022 5
4023 31
4024 7
4025 13
4026 38
4027 7
4028 13
4029 32
4030 19
4031 23
4032 9
4033 25
4034 124
4035 49
4036 101
4037 8
4038 78
4039 111
4040 109
4041 18
4042 7
4043 43
4044 7
4045 109
4046 124
4047 25
4048 110
4049 5
4050 111
4051 72
4052 9
4053 23
4054 7
4055 108
4056 1
4057 73
4058 37
4059 21
4060 121
4061 93
4062 31
4063 56
4064 25
4065 28
4066 29
4067 23
4068 14
4069 90
4070 93
4071 102
4072 34
4073 106
4074 39
4075 18
4076 62
4077 49
4078 134
4079 124
4080 55
4081 101
4082 97
4083 101
4084 90
4085 20
4086 11
4087 33
4088 52
4089 55
4090 74
4091 27
4092 108
4093 43
4094 2
4095 62
4096 9
4097 59
4098 1
4099 25
4100 58
4101 8
4102 73
4103 107
4104 15
4105 24
4106 69
4107 44
4108 8
4109 19
4110 84
4111 108
4112 15
4113 66
4114 72
4115 71
4116 56
4117 79
4118 68
4119 7
4120 75
4121 80
4122 9
4123 47
4124 56
4125 52
4126 58
4127 6
4128 86
4129 102
4130 98
4131 72
4132 13
4133 66
4134 3
4135 60
4136 100
4137 114
4138 119
4139 24
4140 74
4141 3
4142 33
4143 6
4144 87
4145 7
4146 13
4147 94
4148 28
4149 46
4150 18
4151 64
4152 48
4153 28
4154 17
4155 68
4156 59
4157 26
4158 56
4159 72
4160 6
4161 10
4162 70
4163 116
4164 39
4165 70
4166 83
4167 90
4168 2
4169 64
4170 80
4171 64
4172 101
4173 11
4174 102
4175 5
4176 40
4177 55
4178 1
4179 45
4180 34
4181 125
4182 90
4183 65
4184 3
4185 84
4186 96
4187 63
4188 55
4189 3
4190 17
4191 6
4192 139
4193 65
4194 17
4195 3
4196 45
4197 15
4198 54
4199 104
4200 12
4201 78
4202 87
4203 21
4204 12
4205 2
4206 72
4207 82
4208 27
4209 79
4210 38
4211 3
4212 76
4213 17
4214 1
4215 18
4216 17
4217 100
4218 86
4219 109
4220 119
4221 64
4222 121
4223 106
4224 74
4225 56
4226 60
4227 117
4228 124
4229 9
4230 29
4231 91
4232 21
4233 121
4234 98
4235 23
4236 13
4237 53
4238 125
4239 66
4240 3
4241 3
4242 74
4243 123
4244 28
4245 88
4246 110
4247 2
4248 61
4249 88
4250 27
4251 94
4252 38
4253 11
4254 113
4255 96
4256 86
4257 103
4258 63
4259 20
4260 123
4261 120
4262 51
4263 1
4264 135
4265 51
4266 18
4267 93
4268 100
4269 3
4270 92
4271 83
4272 48
4273 23
4274 111
4275 56
4276 35
4277 97
4278 108
4279 94
4280 49
4281 63
4282 28
4283 126
4284 58
4285 41
4286 109
4287 76
4288 14
4289 122
4290 86
4291 90
4292 33
4293 98
4294 73
4295 116
4296 86
4297 35
4298 16
4299 62
4300 117
4301 23
4302 23
4303 69
4304 95
4305 65
4306 18
4307 101
4308 93
4309 26
4310 46
4311 3
4312 46
4313 87
4314 126
4315 62
4316 42
4317 124
4318 26
4319 87
4320 73
4321 17
4322 2
4323 31
4324 37
4325 80
4326 92
4327 56
4328 75
4329 100
4330 4
4331 56
4332 62
4333 67
4334 9
4335 114
4336 4
4337 96
4338 63
4339 18
4340 13
4341 59
4342 29
4343 2
4344 33
4345 94
4346 11
4347 4
4348 100
4349 19
4350 80
4351 92
4352 18
4353 106
4354 88
4355 18
4356 75
4357 62
4358 29
4359 112
4360 3
4361 54
4362 79
4363 55
4364 111
4365 8
4366 56
4367 23
4368 106
4369 41
4370 18
4371 96
4372 99
4373 10
4374 1
4375 8
4376 46
4377 33
4378 41
4379 44
4380 75
4381 17
4382 14
4383 65
4384 86
4385 106
4386 86
4387 20
4388 75
4389 92
4390 6
4391 100
4392 60
4393 23
4394 113
4395 24
4396 23
4397 28
4398 84
4399 121
4400 100
4401 25
4402 67
4403 100
4404 83
4405 4
4406 106
4407 51
4408 90
4409 43
4410 111
4411 33
4412 92
4413 34
4414 67
4415 121
4416 86
4417 82
4418 59
4419 53
4420 106
4421 7
4422 101
4423 9
4424 33
4425 40
4426 140
4427 9
4428 86
4429 60
4430 9
4431 19
4432 1
4433 6
4434 48
4435 86
4436 33
4437 73
4438 34
4439 10
4440 83
4441 92
4442 100
4443 48
4444 87
4445 58
4446 21
4447 34
4448 58
4449 7
4450 116
4451 114
4452 66
4453 111
4454 49
4455 72
4456 9
4457 34
4458 56
4459 86
4460 25
4461 48
4462 93
4463 9
4464 87
4465 33
4466 51
4467 121
4468 4
4469 65
4470 52
4471 111
4472 92
4473 7
4474 25
4475 58
4476 80
4477 20
4478 80
4479 87
4480 90
4481 5
4482 46
4483 120
4484 25
4485 100
4486 86
4487 91
4488 55
4489 92
4490 8
4491 2
4492 7
4493 49
4494 42
4495 52
4496 76
4497 35
4498 51
4499 106
4500 6
4501 27
4502 34
4503 11
4504 38
4505 64
4506 40
4507 18
4508 14
4509 39
4510 82
4511 21
4512 5
4513 123
4514 2
4515 46
4516 17
4517 130
4518 106
4519 47
4520 54
4521 21
4522 60
4523 106
4524 46
4525 9
4526 98
4527 75
4528 86
4529 106
4530 5
4531 116
4532 105
4533 77
4534 7
4535 25
4536 46
4537 15
4538 20
4539 73
4540 97
4541 114
4542 32
4543 62
4544 90
4545 18
4546 62
4547 121
4548 26
4549 108
4550 11
4551 39
4552 27
4553 14
4554 24
4555 58
4556 10
4557 27
4558 58
4559 61
4560 9
4561 95
4562 16
4563 56
4564 21
4565 18
4566 60
4567 97
4568 54
4569 61
4570 64
4571 41
4572 20
4573 108
4574 93
4575 45
4576 100
4577 23
4578 36
4579 17
4580 110
4581 21
4582 73
4583 51
4584 92
4585 75
4586 23
4587 80
4588 79
4589 23
4590 58
4591 2
4592 114
4593 46
4594 59
4595 71
4596 73
4597 87
4598 4
4599 56
4600 86
4601 5
4602 1
4603 5
4604 32
4605 108
4606 97
4607 37
4608 34
4609 116
4610 33
4611 1
4612 20
4613 134
4614 105
4615 71
4616 110
4617 125
4618 56
4619 76
4620 101
4621 82
4622 65
4623 5
4624 71
4625 103
4626 2
4627 27
4628 125
4629 41
4630 34
4631 105
4632 2
4633 73
4634 116
4635 13
4636 56
4637 104
4638 129
4639 56
4640 32
4641 92
4642 120
4643 9
4644 66
4645 52
4646 34
4647 114
4648 62
4649 95
4650 16
4651 82
4652 31
4653 7
4654 11
4655 48
4656 87
4657 98
4658 87
4659 7
4660 105
4661 18
4662 77
4663 75
4664 125
4665 71
4666 126
4667 104
4668 0
4669 16
4670 25
4671 20
4672 70
4673 54
4674 20
4675 12
4676 116
4677 74
4678 65
4679 11
4680 34
4681 25
4682 23
4683 92
4684 141
4685 11
4686 100
4687 24
4688 44
4689 87
4690 45
4691 67
4692 17
4693 80
4694 6
4695 86
4696 75
4697 75
4698 9
4699 62
4700 82
4701 61
4702 124
4703 18
4704 43
4705 91
4706 9
4707 28
4708 71
4709 103
4710 55
4711 17
4712 18
4713 111
4714 87
4715 17
4716 107
4717 58
4718 2
4719 86
4720 65
4721 65
4722 100
4723 52
4724 1
4725 3
4726 25
4727 24
4728 65
4729 75
4730 111
4731 79
4732 17
4733 124
4734 22
4735 14
4736 23
4737 58
4738 117
4739 56
4740 94
4741 117
4742 46
4743 13
4744 109
4745 41
4746 71
4747 111
4748 7
4749 92
4750 113
4751 2
4752 122
4753 65
4754 9
4755 103
4756 6
4757 74
4758 27
4759 10
4760 43
4761 9
4762 24
4763 38
4764 7
4765 9
4766 47
4767 47
4768 23
4769 33
4770 56
4771 43
4772 54
4773 20
4774 14
4775 11
4776 101
4777 93
4778 100
4779 17
4780 110
4781 43
4782 81
4783 16
4784 72
4785 8
4786 95
4787 123
4788 90
4789 75
4790 8
4791 100
4792 15
4793 84
4794 42
4795 73
4796 74
4797 48
4798 3
4799 92
4800 9
4801 93
4802 14
4803 93
4804 42
4805 36
4806 58
4807 125
4808 94
4809 100
4810 46
4811 103
4812 44
4813 31
4814 4
4815 55
4816 126
4817 6
4818 65
4819 121
4820 108
4821 28
4822 69
4823 124
4824 121
4825 14
4826 56
4827 11
4828 97
4829 105
4830 47
4831 80
4832 49
4833 66
4834 74
4835 60
4836 17
4837 2
4838 0
4839 71
4840 25
4841 44
4842 37
4843 61
4844 72
4845 110
4846 34
4847 25
4848 47
4849 9
4850 113
4851 106
4852 23
4853 27
4854 4
4855 39
4856 17
4857 54
4858 27
4859 42
4860 120
4861 3
4862 46
4863 12
4864 76
4865 37
4866 101
4867 51
4868 2
4869 56
4870 3
4871 110
4872 23
4873 70
4874 52
4875 32
4876 38
4877 56
4878 9
4879 110
4880 3
4881 95
4882 92
4883 120
4884 107
4885 49
4886 25
4887 117
4888 49
4889 93
4890 100
4891 74
4892 25
4893 86
4894 26
4895 28
4896 28
4897 23
4898 2
4899 43
4900 74
4901 37
4902 103
4903 75
4904 33
4905 32
4906 0
4907 48
4908 66
4909 94
4910 92
4911 59
4912 97
4913 20
4914 27
4915 74
4916 29
4917 111
4918 111
4919 77
4920 14
4921 90
4922 127
4923 14
4924 86
4925 86
4926 33
4927 100
4928 46
4929 80
4930 63
4931 13
4932 52
4933 73
4934 46
4935 101
4936 71
4937 43
4938 28
4939 80
4940 6
4941 58
4942 46
4943 56
4944 110
4945 83
4946 107
4947 114
4948 47
4949 11
4950 33
4951 13
4952 91
4953 79
4954 46
4955 14
4956 72
4957 51
4958 23
4959 99
4960 95
4961 37
4962 53
4963 98
4964 28
4965 59
4966 116
4967 106
4968 35
4969 106
4970 37
4971 39
4972 55
4973 48
4974 62
4975 93
4976 52
4977 83
4978 112
4979 70
4980 33
4981 93
4982 62
4983 74
4984 29
4985 5
4986 104
4987 79
4988 59
4989 112
4990 9
4991 41
4992 46
4993 51
4994 91
4995 14
4996 53
4997 12
4998 46
4999 75
5000 24
5001 126
5002 59
5003 44
5004 6
5005 27
5006 133
5007 101
5008 102
5009 88
5010 37
5011 5
5012 45
5013 80
5014 6
5015 76
5016 8
5017 86
5018 3
5019 23
5020 60
5021 105
5022 45
5023 90
5024 107
5025 9
5026 51
5027 25
5028 114
5029 40
5030 7
5031 41
5032 20
5033 124
5034 4
5035 1
5036 1
5037 18
5038 121
5039 3
5040 90
5041 10
5042 1
5043 73
5044 80
5045 90
5046 27
5047 36
5048 64
5049 57
5050 62
5051 60
5052 58
5053 86
5054 11
5055 20
5056 37
5057 71
5058 11
5059 73
5060 74
5061 2
5062 66
5063 7
5064 9
5065 18
5066 75
5067 102
5068 72
5069 100
5070 77
5071 93
5072 25
5073 114
5074 13
5075 25
5076 45
5077 13
5078 56
5079 104
5080 93
5081 39
5082 59
5083 110
5084 5
5085 1
5086 62
5087 4
5088 8
5089 76
5090 40
5091 78
5092 103
5093 7
5094 83
5095 20
5096 110
5097 25
5098 8
5099 52
5100 56
5101 17
5102 24
5103 28
5104 20
5105 86
5106 59
5107 37
5108 114
5109 33
5110 134
5111 2
5112 23
5113 3
5114 107
5115 62
5116 2
5117 38
5118 43
5119 7
5120 9
5121 60
5122 54
5123 23
5124 21
5125 21
5126 125
5127 40
5128 20
5129 40
5130 75
5131 83
5132 0
5133 62
5134 94
5135 54
5136 5
5137 116
5138 44
5139 72
5140 79
5141 74
5142 40
5143 20
5144 11
5145 6
5146 77
5147 75
5148 63
5149 90
5150 72
5151 25
5152 121
5153 73
5154 24
5155 125
5156 7
5157 9
5158 7
5159 67
5160 92
5161 56
5162 28
5163 77
5164 21
5165 40
5166 8
5167 86
5168 20
5169 52
5170 60
5171 25
5172 14
5173 126
5174 120
5175 4
5176 3
5177 92
5178 56
5179 76
5180 11
5181 75
5182 41
5183 107
5184 21
5185 87
5186 72
5187 86
5188 113
5189 122
5190 59
5191 16
5192 93
5193 51
5194 72
5195 86
5196 110
5197 80
5198 13
5199 25
5200 59
5201 33
5202 94
5203 99
5204 8
5205 98
5206 21
5207 47
5208 100
5209 12
5210 8
5211 78
5212 40
5213 13
5214 9
5215 83
5216 100
5217 121
5218 62
5219 18
5220 76
5221 3
5222 82
5223 50
5224 86
5225 111
5226 39
5227 39
5228 52
5229 87
5230 66
5231 92
5232 14
5233 7
5234 91
5235 36
5236 88
5237 92
5238 120
5239 128
5240 111
5241 4
5242 90
5243 94
5244 62
5245 69
5246 122
5247 76
5248 9
5249 9
5250 87
5251 109
5252 27
5253 21
5254 113
5255 110
5256 125
5257 1
5258 5
5259 12
5260 6
5261 12
5262 72
5263 98
5264 74
5265 79
5266 14
5267 54
5268 123
5269 27
5270 6
5271 26
5272 25
5273 97
5274 86
5275 121
5276 103
5277 107
5278 74
5279 103
5280 98
5281 100
5282 43
5283 54
5284 105
5285 86
5286 3
5287 9
5288 37
5289 112
5290 58
5291 55
5292 76
5293 101
5294 54
5295 28
5296 23
5297 45
5298 2
5299 104
5300 60
5301 110
5302 61
5303 95
5304 8
5305 5
5306 6
5307 75
5308 9
5309 72
5310 80
5311 55
5312 41
5313 16
5314 109
5315 20
5316 40
5317 104
5318 71
5319 68
5320 63
5321 5
5322 18
5323 51
5324 8
5325 84
5326 40
5327 120
5328 72
5329 21
5330 61
5331 13
5332 111
5333 92
5334 35
5335 100
5336 49
5337 112
5338 14
5339 34
5340 62
5341 20
5342 36
5343 39
5344 9
5345 112
5346 100
5347 88
5348 29
5349 101
5350 71
5351 23
5352 47
5353 103
5354 56
5355 71
5356 120
5357 75
5358 61
5359 7
5360 110
5361 76
5362 76
5363 6
5364 112
5365 5
5366 73
5367 114
5368 73
5369 60
5370 61
5371 19
5372 37
5373 76
5374 37
5375 17
5376 55
5377 23
5378 75
5379 9
5380 3
5381 15
5382 78
5383 14
5384 23
5385 106
5386 26
5387 86
5388 39
5389 93
5390 23
5391 108
5392 53
5393 65
5394 0
5395 107
5396 2
5397 10
5398 111
5399 15
5400 104
5401 116
5402 7
5403 28
5404 60
5405 108
5406 123
5407 111
5408 11
5409 93
5410 2
5411 43
5412 83
5413 56
5414 51
5415 90
5416 95
5417 73
5418 109
5419 43
5420 36
5421 11
5422 4
5423 67
5424 36
5425 90
5426 62
5427 67
5428 59
5429 28
5430 66
5431 74
5432 28
5433 39
5434 13
5435 56
5436 4
5437 42
5438 107
5439 66
5440 6
5441 92
5442 49
5443 102
5444 99
5445 4
5446 102
5447 52
5448 37
5449 100
5450 83
5451 2
5452 99
5453 60
5454 71
5455 91
5456 94
5457 107
5458 27
5459 25
5460 93
5461 93
5462 93
5463 101
5464 21
5465 73
5466 70
5467 39
5468 63
5469 101
5470 54
5471 83
5472 88
5473 80
5474 101
5475 58
5476 94
5477 73
5478 17
5479 121
5480 87
5481 83
5482 1
5483 48
5484 84
5485 14
5486 54
5487 10
5488 45
5489 21
5490 23
5491 9
5492 63
5493 25
5494 35
5495 13
5496 54
5497 37
5498 100
5499 46
5500 15
5501 35
5502 100
5503 2
5504 39
5505 121
5506 93
5507 71
5508 5
5509 15
5510 106
5511 61
5512 123
5513 4
5514 83
5515 72
5516 61
5517 110
5518 67
5519 17
5520 23
5521 4
5522 6
5523 83
5524 82
5525 95
5526 55
5527 43
5528 101
5529 37
5530 37
5531 2
5532 71
5533 1
5534 100
5535 98
5536 37
5537 108
5538 26
5539 58
5540 7
5541 43
5542 120
5543 92
5544 58
5545 51
5546 7
5547 71
5548 56
5549 39
5550 74
5551 7
5552 15
5553 18
5554 84
5555 83
5556 46
5557 7
5558 114
5559 61
5560 127
5561 2
5562 4
5563 124
5564 101
5565 110
5566 45
5567 28
5568 1
5569 94
5570 15
5571 61
5572 14
5573 113
5574 6
5575 12
5576 35
5577 107
5578 23
5579 47
5580 75
5581 108
5582 8
5583 101
5584 43
5585 130
5586 48
5587 94
5588 93
5589 4
5590 21
5591 59
5592 124
5593 46
5594 21
5595 107
5596 71
5597 62
5598 80
5599 73
5600 49
5601 56
5602 23
5603 51
5604 8
5605 58
5606 101
5607 7
5608 20
5609 113
5610 37
5611 20
5612 58
5613 119
5614 78
5615 43
5616 10
5617 93
5618 49
5619 23
5620 45
5621 51
5622 110
5623 86
5624 46
5625 101
5626 21
5627 7
5628 124
5629 16
5630 27
5631 99
5632 74
5633 72
5634 92
5635 120
5636 114
5637 116
5638 114
5639 95
5640 34
5641 46
5642 39
5643 1
5644 58
5645 57
5646 75
5647 56
5648 41
5649 71
5650 84
5651 109
5652 28
5653 27
5654 101
5655 119
5656 42
5657 28
5658 45
5659 19
5660 7
5661 3
5662 99
5663 74
5664 21
5665 95
5666 1
5667 21
5668 116
5669 62
5670 2
5671 4
5672 43
5673 92
5674 87
5675 110
5676 91
5677 75
5678 27
5679 17
5680 116
5681 23
5682 63
5683 27
5684 52
5685 7
5686 65
5687 66
5688 64
5689 72
5690 134
5691 91
5692 90
5693 9
5694 57
5695 100
5696 38
5697 56
5698 74
5699 76
5700 78
5701 125
5702 48
5703 92
5704 24
5705 70
5706 63
5707 38
5708 77
5709 125
5710 92
5711 21
5712 20
5713 61
5714 5
5715 48
5716 108
5717 9
5718 23
5719 7
5720 14
5721 25
5722 54
5723 13
5724 47
5725 61
5726 117
5727 7
5728 90
5729 38
5730 43
5731 114
5732 55
5733 124
5734 70
5735 2
5736 70
5737 121
5738 20
5739 59
5740 13
5741 92
5742 74
5743 86
5744 5
5745 83
5746 116
5747 98
5748 112
5749 54
5750 55
5751 22
5752 13
5753 76
5754 15
5755 93
5756 52
5757 100
5758 92
5759 114
5760 75
5761 27
5762 9
5763 45
5764 120
5765 60
5766 125
5767 73
5768 18
5769 35
5770 74
5771 74
5772 117
5773 94
5774 92
5775 24
5776 33
5777 4
5778 3
5779 75
5780 100
5781 23
5782 8
5783 13
5784 8
5785 26
5786 27
5787 93
5788 88
5789 14
5790 103
5791 71
5792 2
5793 67
5794 61
5795 33
5796 21
5797 93
5798 1
5799 26
5800 31
5801 23
5802 7
5803 42
5804 111
5805 74
5806 25
5807 38
5808 110
5809 74
5810 62
5811 110
5812 31
5813 88
5814 110
5815 11
5816 20
5817 121
5818 18
5819 119
5820 101
5821 13
5822 4
5823 73
5824 43
5825 114
5826 60
5827 126
5828 18
5829 22
5830 74
5831 23
5832 61
5833 23
5834 58
5835 32
5836 21
5837 62
5838 93
5839 53
5840 61
5841 37
5842 55
5843 101
5844 120
5845 75
5846 70
5847 51
5848 25
5849 24
5850 3
5851 60
5852 121
5853 20
5854 47
5855 39
5856 52
5857 22
5858 72
5859 51
5860 65
5861 101
5862 37
5863 116
5864 49
5865 72
5866 100
5867 2
5868 62
5869 62
5870 23
5871 42
5872 99
5873 77
5874 21
5875 100
5876 51
5877 46
5878 17
5879 95
5880 8
5881 74
5882 82
5883 106
5884 37
5885 57
5886 23
5887 65
5888 66
5889 99
5890 7
5891 15
5892 25
5893 94
5894 46
5895 121
5896 31
5897 74
5898 13
5899 7
5900 25
5901 107
5902 104
5903 43
5904 24
5905 14
5906 49
5907 6
5908 4
5909 99
5910 2
5911 51
5912 95
5913 100
5914 101
5915 66
5916 111
5917 4
5918 46
5919 24
5920 126
5921 39
5922 61
5923 92
5924 9
5925 37
5926 27
5927 124
5928 38
5929 59
5930 101
5931 105
5932 37
5933 57
5934 28
5935 67
5936 34
5937 110
5938 83
5939 49
5940 19
5941 60
5942 3
5943 13
5944 39
5945 92
5946 21
5947 7
5948 43
5949 15
5950 83
5951 48
5952 78
5953 83
5954 128
5955 2
5956 87
5957 34
5958 83
5959 43
5960 79
5961 3
5962 25
5963 62
5964 92
5965 106
5966 83
5967 94
5968 27
5969 97
5970 25
5971 75
5972 65
5973 82
5974 48
5975 106
5976 92
5977 27
5978 106
5979 1
5980 2
5981 77
5982 3
5983 5
5984 75
5985 52
5986 73
5987 76
5988 100
5989 39
5990 66
5991 15
5992 90
5993 23
5994 62
5995 55
5996 9
5997 95
5998 75
5999 111
6000 92
6001 51
6002 27
6003 90
6004 75
6005 90
6006 4
6007 70
6008 26
6009 93
6010 52
6011 33
6012 53
6013 72
6014 7
6015 73
6016 37
6017 5
6018 65
6019 21
6020 58
6021 15
6022 107
6023 7
6024 58
6025 9
6026 47
6027 107
6028 33
6029 60
6030 107
6031 106
6032 51
6033 110
6034 39
6035 120
6036 77
6037 106
6038 2
6039 60
6040 79
6041 23
6042 74
6043 23
6044 49
6045 6
6046 21
6047 6
6048 110
6049 104
6050 111
6051 83
6052 34
6053 4
6054 61
6055 61
6056 52
6057 72
6058 98
6059 87
6060 52
6061 43
6062 64
6063 94
6064 105
6065 16
6066 25
6067 74
6068 124
6069 92
6070 97
6071 8
6072 21
6073 119
6074 8
6075 14
6076 110
6077 120
6078 17
6079 108
6080 111
6081 67
6082 1
6083 23
6084 25
6085 46
6086 46
6087 35
6088 9
6089 18
6090 79
6091 121
6092 93
6093 78
6094 4
6095 23
6096 70
6097 38
6098 100
6099 88
6100 46
6101 6
6102 61
6103 7
6104 8
6105 106
6106 62
6107 21
6108 73
6109 55
6110 95
6111 94
6112 120
6113 23
6114 80
6115 14
6116 23
6117 39
6118 21
6119 119
6120 9
6121 87
6122 37
6123 8
6124 13
6125 33
6126 23
6127 107
6128 25
6129 73
6130 23
6131 56
6132 72
6133 9
6134 41
6135 55
6136 24
6137 18
6138 121
6139 83
6140 17
6141 111
6142 79
6143 93
6144 7
6145 7
6146 25
6147 11
6148 130
6149 80
6150 25
6151 78
6152 75
6153 117
6154 34
6155 79
6156 3
6157 52
6158 21
6159 88
6160 44
6161 8
6162 119
6163 20
6164 29
6165 102
6166 31
6167 55
6168 71
6169 46
6170 11
6171 71
6172 17
6173 8
6174 107
6175 108
6176 2
6177 72
6178 102
6179 0
6180 79
6181 91
6182 22
6183 16
6184 121
6185 72
6186 2
6187 80
6188 15
6189 78
6190 104
6191 63
6192 73
6193 88
6194 9
6195 25
6196 77
6197 86
6198 102
6199 15
6200 99
6201 21
6202 71
6203 100
6204 119
6205 1
6206 33
6207 12
6208 122
6209 119
6210 55
6211 34
6212 74
6213 103
6214 56
6215 37
6216 86
6217 101
6218 63
6219 57
6220 96
6221 26
6222 9
6223 61
6224 73
6225 60
6226 121
6227 101
6228 41
6229 0
6230 142
6231 40
6232 24
6233 100
6234 96
6235 75
6236 26
6237 78
6238 35
6239 8
6240 23
6241 8
6242 84
6243 20
6244 18
6245 25
6246 127
6247 87
6248 78
6249 47
6250 25
6251 111
6252 34
6253 74
6254 116
6255 120
6256 52
6257 104
6258 94
6259 68
6260 39
6261 13
6262 110
6263 87
6264 23
6265 111
6266 103
6267 98
6268 23
6269 72
6270 86
6271 19
6272 122
6273 88
6274 1
6275 7
6276 56
6277 61
6278 24
6279 88
6280 55
6281 9
6282 73
6283 62
6284 2
6285 3
6286 33
6287 57
6288 75
6289 74
6290 79
6291 86
6292 61
6293 26
6294 61
6295 6
6296 87
6297 33
6298 72
6299 126
6300 24
6301 54
6302 86
6303 57
6304 100
6305 100
6306 76
6307 23
6308 121
6309 18
6310 52
6311 18
6312 18
6313 72
6314 62
6315 121
6316 101
6317 133
6318 3
6319 80
6320 72
6321 93
6322 56
6323 106
6324 67
6325 62
6326 58
6327 93
6328 129
6329 93
6330 1
6331 87
6332 61
6333 114
6334 97
6335 57
6336 28
6337 37
6338 86
6339 56
6340 4
6341 53
6342 23
6343 88
6344 27
6345 65
6346 113
6347 78
6348 61
6349 20
6350 23
6351 82
6352 106
6353 72
6354 65
6355 4
6356 18
6357 65
6358 74
6359 41
6360 5
6361 120
6362 101
6363 99
6364 75
6365 64
6366 107
6367 87
6368 11
6369 35
6370 8
6371 12
6372 13
6373 49
6374 32
6375 20
6376 75
6377 62
6378 66
6379 72
6380 93
6381 92
6382 101
6383 32
6384 75
6385 14
6386 0
6387 3
6388 17
6389 4
6390 50
6391 116
6392 2
6393 9
6394 102
6395 47
6396 27
6397 25
6398 62
6399 92
6400 93
6401 49
6402 8
6403 95
6404 47
6405 49
6406 2
6407 106
6408 28
6409 52
6410 76
6411 105
6412 94
6413 49
6414 100
6415 46
6416 78
6417 60
6418 80
6419 54
6420 45
6421 6
6422 7
6423 55
6424 55
6425 42
6426 46
6427 111
6428 16
6429 58
6430 33
6431 3
6432 26
6433 92
6434 33
6435 19
6436 12
6437 107
6438 58
6439 25
6440 72
6441 51
6442 56
6443 72
6444 123
6445 121
6446 77
6447 49
6448 23
6449 59
6450 19
6451 38
6452 14
6453 27
6454 90
6455 111
6456 98
6457 46
6458 3
6459 71
6460 87
6461 40
6462 80
6463 112
6464 62
6465 98
6466 49
6467 46
6468 65
6469 4
6470 7
6471 51
6472 106
6473 110
6474 23
6475 105
6476 60
6477 13
6478 88
6479 128
6480 98
6481 54
6482 54
6483 26
6484 23
6485 51
6486 72
6487 14
6488 33
6489 9
6490 91
6491 11
6492 23
6493 4
6494 54
6495 7
6496 27
6497 143
6498 7
6499 4
6500 9
6501 6
6502 95
6503 65
6504 72
6505 121
6506 92
6507 37
6508 11
6509 37
6510 108
6511 23
6512 7
6513 53
6514 87
6515 39
6516 78
6517 14
6518 55
6519 80
6520 58
6521 108
6522 76
6523 37
6524 37
6525 95
6526 25
6527 100
6528 126
6529 45
6530 74
6531 106
6532 86
6533 92
6534 55
6535 41
6536 7
6537 61
6538 4
6539 117
6540 14
6541 25
6542 28
6543 21
6544 7
6545 110
6546 2
6547 74
6548 97
6549 55
6550 19
6551 101
6552 110
6553 60
6554 61
6555 100
6556 55
6557 80
6558 8
6559 43
6560 23
6561 74
6562 96
6563 5
6564 5
6565 21
6566 56
6567 10
6568 78
6569 82
6570 37
6571 66
6572 18
6573 23
6574 49
6575 59
6576 100
6577 2
6578 121
6579 3
6580 87
6581 86
6582 93
6583 100
6584 21
6585 8
6586 72
6587 36
6588 46
6589 5
6590 92
6591 18
6592 28
6593 110
6594 14
6595 33
6596 86
6597 120
6598 74
6599 126
6600 76
6601 74
6602 23
6603 4
6604 33
6605 102
6606 9
6607 93
6608 4
6609 14
6610 87
6611 3
6612 144
6613 4
6614 72
6615 73
6616 51
6617 27
6618 21
6619 75
6620 33
6621 61
6622 127
6623 121
6624 39
6625 75
6626 93
6627 109
6628 75
6629 42
6630 99
6631 8
6632 90
6633 47
6634 94
6635 49
6636 62
6637 3
6638 31
6639 51
6640 71
6641 22
6642 125
6643 101
6644 72
6645 74
6646 8
6647 91
6648 18
6649 62
6650 27
6651 8
6652 20
6653 101
6654 21
6655 70
6656 8
6657 93
6658 12
6659 10
6660 58
6661 80
6662 87
6663 133
6664 76
6665 44
6666 124
6667 3
6668 20
6669 30
6670 62
6671 120
6672 11
6673 2
6674 37
6675 80
6676 72
6677 20
6678 29
6679 74
6680 75
6681 80
6682 101
6683 43
6684 97
6685 42
6686 114
6687 103
6688 48
6689 67
6690 25
6691 2
6692 74
6693 6
6694 121
6695 20
6696 97
6697 7
6698 95
6699 133
6700 86
6701 5
6702 23
6703 103
6704 2
6705 73
6706 35
6707 20
6708 54
6709 100
6710 24
6711 105
6712 1
6713 75
6714 78
6715 5
6716 121
6717 18
6718 3
6719 24
6720 21
6721 112
6722 110
6723 9
6724 57
6725 105
6726 62
6727 74
6728 18
6729 18
6730 38
6731 23
6732 48
6733 17
6734 61
6735 3
6736 27
6737 26
6738 3
6739 20
6740 32
6741 61
6742 41
6743 112
6744 75
6745 6
6746 48
6747 64
6748 55
6749 17
6750 46
6751 55
6752 72
6753 25
6754 46
6755 56
6756 44
6757 55
6758 56
6759 52
6760 122
6761 116
6762 40
6763 59
6764 90
6765 44
6766 111
6767 10
6768 24
6769 27
6770 95
6771 10
6772 106
6773 30
6774 4
6775 27
6776 112
6777 5
6778 46
6779 116
6780 61
6781 119
6782 24
6783 86
6784 23
6785 40
6786 1
6787 63
6788 62
6789 18
6790 98
6791 3
6792 46
6793 87
6794 6
6795 122
6796 18
6797 121
6798 121
6799 81
6800 125
6801 100
6802 6
6803 74
6804 102
6805 111
6806 70
6807 62
6808 74
6809 47
6810 56
6811 62
6812 72
6813 27
6814 22
6815 111
6816 93
6817 10
6818 100
6819 33
6820 12
6821 86
6822 44
6823 86
6824 86
6825 51
6826 15
6827 90
6828 7
6829 45
6830 92
6831 17
6832 126
6833 93
6834 3
6835 31
6836 8
6837 72
6838 25
6839 18
6840 61
6841 16
6842 114
6843 73
6844 75
6845 3
6846 53
6847 42
6848 20
6849 111
6850 31
6851 61
6852 110
6853 34
6854 78
6855 54
6856 7
6857 23
6858 109
6859 105
6860 65
6861 40
6862 73
6863 108
6864 5
6865 47
6866 31
6867 55
6868 76
6869 86
6870 41
6871 48
6872 0
6873 62
6874 114
6875 110
6876 14
6877 28
6878 51
6879 17
6880 8
6881 33
6882 39
6883 22
6884 111
6885 86
6886 96
6887 47
6888 74
6889 37
6890 62
6891 92
6892 104
6893 101
6894 87
6895 4
6896 116
6897 4
6898 119
6899 80
6900 62
6901 47
6902 14
6903 99
6904 67
6905 105
6906 20
6907 61
6908 55
6909 46
6910 67
6911 73
6912 14
6913 44
6914 61
6915 96
6916 38
6917 46
6918 61
6919 2
6920 93
6921 28
6922 3
6923 37
6924 126
6925 3
6926 88
6927 93
6928 51
6929 119
6930 48
6931 25
6932 98
6933 54
6934 93
6935 59
6936 92
6937 103
6938 88
6939 18
6940 14
6941 61
6942 25
6943 76
6944 14
6945 59
6946 18
6947 37
6948 39
6949 62
6950 90
6951 5
6952 87
6953 121
6954 75
6955 13
6956 44
6957 9
6958 6
6959 28
6960 87
6961 114
6962 15
6963 62
6964 61
6965 92
6966 79
6967 55
6968 90
6969 32
6970 53
6971 58
6972 58
6973 86
6974 72
6975 19
6976 55
6977 72
6978 95
6979 39
6980 125
6981 58
6982 1
6983 100
6984 42
6985 100
6986 28
6987 21
6988 59
6989 93
6990 23
6991 42
6992 73
6993 45
6994 113
6995 16
6996 9
6997 7
6998 18
6999 101
7000 1
7001 31
7002 7
7003 80
7004 15
7005 111
7006 33
7007 110
7008 26
7009 106
7010 23
7011 77
7012 101
7013 14
7014 20
7015 54
7016 14
7017 4
7018 67
7019 87
7020 81
7021 121
7022 33
7023 73
7024 121
7025 1
7026 2
7027 18
7028 52
7029 7
7030 83
7031 18
7032 5
7033 120
7034 121
7035 49
7036 23
7037 90
7038 51
7039 52
7040 84
7041 100
7042 108
7043 46
7044 23
7045 49
7046 23
7047 65
7048 111
7049 123
7050 24
7051 34
7052 28
7053 28
7054 55
7055 13
7056 34
7057 100
7058 7
7059 60
7060 54
7061 62
7062 34
7063 90
7064 62
7065 33
7066 32
7067 67
7068 121
7069 26
7070 114
7071 101
7072 57
7073 87
7074 86
7075 27
7076 71
7077 111
7078 3
7079 11
7080 18
7081 41
7082 52
7083 98
7084 20
7085 62
7086 25
7087 6
7088 20
7089 7
7090 17
7091 27
7092 49
7093 8
7094 24
7095 145
7096 25
7097 83
7098 23
7099 18
7100 52
7101 90
7102 74
7103 25
7104 101
7105 86
7106 43
7107 25
7108 75
7109 46
7110 32
7111 77
7112 72
7113 43
7114 7
7115 65
7116 124
7117 52
7118 74
7119 124
7120 16
7121 100
7122 7
7123 86
7124 38
7125 1
7126 47
7127 101
7128 65
7129 93
7130 52
7131 78
7132 125
7133 82
7134 14
7135 39
7136 62
7137 27
7138 94
7139 9
7140 8
7141 55
7142 110
7143 106
7144 21
7145 39
7146 59
7147 100
7148 92
7149 12
7150 12
7151 3
7152 11
7153 68
7154 109
7155 94
7156 43
7157 52
7158 4
7159 112
7160 14
7161 4
7162 56
7163 1
7164 114
7165 43
7166 75
7167 23
7168 116
7169 101
7170 26
7171 78
7172 20
7173 48
7174 40
7175 58
7176 38
7177 103
7178 101
7179 95
7180 75
7181 105
7182 92
7183 62
7184 39
7185 92
7186 21
7187 17
7188 78
7189 59
7190 65
7191 50
7192 1
7193 50
7194 87
7195 80
7196 22
7197 75
7198 4
7199 103
7200 44
7201 0
7202 93
7203 109
7204 32
7205 67
7206 78
7207 77
7208 56
7209 56
7210 3
7211 51
7212 9
7213 60
7214 3
7215 94
7216 63
7217 66
7218 146
7219 58
7220 119
7221 18
7222 25
7223 101
7224 86
7225 123
7226 8
7227 91
7228 33
7229 47
7230 47
7231 1
7232 23
7233 46
7234 44
7235 55
7236 24
7237 63
7238 15
7239 32
7240 112
7241 43
7242 126
7243 17
7244 85
7245 62
7246 77
7247 119
7248 8
7249 125
7250 20
7251 124
7252 24
7253 73
7254 57
7255 15
7256 61
7257 72
7258 35
7259 110
7260 94
7261 119
7262 38
7263 82
7264 98
7265 11
7266 56
7267 88
7268 80
7269 76
7270 14
7271 10
7272 61
7273 135
7274 111
7275 86
7276 93
7277 46
7278 64
7279 86
7280 92
7281 124
7282 66
7283 65
7284 72
7285 147
7286 1
7287 27
7288 121
7289 86
7290 105
7291 74
7292 61
7293 78
7294 36
7295 101
7296 25
7297 63
7298 7
7299 35
7300 92
7301 71
7302 33
7303 100
7304 60
7305 63
7306 27
7307 92
7308 54
7309 86
7310 101
7311 2
7312 62
7313 48
7314 40
7315 101
7316 105
7317 12
7318 7
7319 87
7320 123
7321 24
7322 96
7323 49
7324 9
7325 44
7326 49
7327 22
7328 91
7329 126
7330 77
7331 13
7332 19
7333 98
7334 56
7335 98
7336 72
7337 88
7338 14
7339 4
7340 93
7341 72
7342 114
7343 70
7344 73
7345 3
7346 80
7347 11
7348 112
7349 16
7350 66
7351 60
7352 26
7353 49
7354 60
7355 46
7356 98
7357 5
7358 74
7359 43
7360 75
7361 60
7362 87
7363 32
7364 128
7365 71
7366 8
7367 22
7368 79
7369 75
7370 3
7371 71
7372 84
7373 101
7374 60
7375 17
7376 87
7377 49
7378 74
7379 49
7380 148
7381 13
7382 21
7383 52
7384 78
7385 3
7386 4
7387 51
7388 34
7389 37
7390 3
7391 15
7392 86
7393 46
7394 32
7395 8
7396 39
7397 76
7398 104
7399 99
7400 2
7401 88
7402 12
7403 21
7404 7
7405 10
7406 43
7407 40
7408 13
7409 46
7410 121
7411 18
7412 28
7413 68
7414 71
7415 106
7416 46
7417 28
7418 121
7419 119
7420 61
7421 37
7422 3
7423 17
7424 110
7425 107
7426 13
7427 40
7428 130
7429 49
7430 86
7431 28
7432 95
7433 28
7434 12
7435 27
7436 38
7437 33
7438 111
7439 106
7440 106
7441 77
7442 107
7443 110
7444 23
7445 107
7446 33
7447 7
7448 78
7449 95
7450 93
7451 25
7452 71
7453 15
7454 80
7455 1
7456 62
7457 19
7458 62
7459 66
7460 49
7461 62
7462 103
7463 9
7464 75
7465 111
7466 61
7467 23
7468 117
7469 35
7470 56
7471 18
7472 3
7473 37
7474 14
7475 11
7476 90
7477 102
7478 56
7479 82
7480 93
7481 43
7482 87
7483 102
7484 13
7485 87
7486 57
7487 13
7488 51
7489 37
7490 103
7491 21
7492 101
7493 4
7494 62
7495 24
7496 46
7497 3
7498 9
7499 34
7500 100
7501 110
7502 91
7503 60
7504 47
7505 26
7506 28
7507 23
7508 12
7509 126
7510 9
7511 23
7512 71
7513 68
7514 125
7515 113
7516 6
7517 27
7518 28
7519 56
7520 80
7521 36
7522 1
7523 76
7524 56
7525 122
7526 11
7527 35
7528 17
7529 8
7530 14
7531 4
7532 8
7533 75
7534 3
7535 127
7536 22
7537 123
7538 87
7539 72
7540 79
7541 2
7542 9
7543 11
7544 61
7545 40
7546 28
7547 37
7548 93
7549 4
7550 48
7551 55
7552 7
7553 98
7554 55
7555 25
7556 7
7557 74
7558 56
7559 92
7560 105
7561 9
7562 1
7563 74
7564 23
7565 18
7566 1
7567 108
7568 1
7569 0
7570 53
7571 8
7572 33
7573 35
7574 5
7575 110
7576 86
7577 100
7578 7
7579 52
7580 87
7581 114
7582 33
7583 110
7584 27
7585 110
7586 103
7587 101
7588 9
7589 33
7590 100
7591 27
7592 24
7593 20
7594 47
7595 18
7596 27
7597 49
7598 2
7599 39
7600 3
7601 1
7602 124
7603 1
7604 72
7605 20
7606 11
7607 111
7608 24
7609 84
7610 2
7611 110
7612 83
7613 107
7614 6
7615 7
7616 110
7617 3
7618 6
7619 129
7620 48
7621 9
7622 20
7623 3
7624 86
7625 45
7626 96
7627 134
7628 33
7629 4
7630 110
7631 36
7632 33
7633 107
7634 121
7635 71
7636 28
7637 20
7638 72
7639 123
7640 8
7641 21
7642 2
7643 30
7644 2
7645 86
7646 25
7647 15
7648 7
7649 111
7650 80
7651 44
7652 32
7653 125
7654 34
7655 52
7656 4
7657 93
7658 103
7659 12
7660 111
7661 93
7662 79
7663 97
7664 16
7665 63
7666 68
7667 103
7668 25
7669 111
7670 119
7671 121
7672 124
7673 2
7674 41
7675 41
7676 112
7677 29
7678 6
7679 12
7680 98
7681 28
7682 80
7683 54
7684 110
7685 47
7686 80
7687 75
7688 52
7689 75
7690 25
7691 107
7692 28
7693 107
7694 70
7695 2
7696 105
7697 44
7698 74
7699 114
7700 48
7701 75
7702 44
7703 96
7704 113
7705 75
7706 102
7707 21
7708 54
7709 7
7710 40
7711 83
7712 80
7713 23
7714 77
7715 87
7716 55
7717 73
7718 17
7719 108
7720 9
7721 18
7722 9
7723 25
7724 88
7725 86
7726 8
7727 9
7728 44
7729 14
7730 18
7731 60
7732 76
7733 14
7734 17
7735 13
7736 63
7737 34
7738 14
7739 79
7740 121
7741 53
7742 2
7743 21
7744 72
7745 74
7746 99
7747 52
7748 67
7749 20
7750 124
7751 120
7752 25
7753 124
7754 25
7755 16
7756 17
7757 55
7758 55
7759 40
7760 44
7761 73
7762 3
7763 61
7764 100
7765 13
7766 60
7767 21
7768 54
7769 25
7770 13
7771 1
7772 52
7773 74
7774 11
7775 91
7776 93
7777 9
7778 26
7779 26
7780 70
7781 53
7782 111
7783 63
7784 109
7785 7
7786 113
7787 61
7788 80
7789 68
7790 86
7791 92
7792 44
7793 54
7794 7
7795 48
7796 103
7797 56
7798 7
7799 86
7800 88
7801 28
7802 71
7803 51
7804 66
7805 53
7806 114
7807 61
7808 77
7809 13
7810 86
7811 86
7812 33
7813 77
7814 66
7815 75
7816 74
7817 37
7818 25
7819 105
7820 114
7821 126
7822 83
7823 51
7824 110
7825 67
7826 59
7827 68
7828 1
7829 75
7830 29
7831 65
7832 51
7833 64
7834 24
7835 108
7836 65
7837 48
7838 22
7839 10
7840 30
7841 32
7842 121
7843 21
7844 18
7845 28
7846 100
7847 87
7848 0
7849 9
7850 72
7851 74
7852 72
7853 2
7854 11
7855 125
7856 3
7857 71
7858 52
7859 78
7860 12
7861 26
7862 83
7863 58
7864 2
7865 14
7866 39
7867 18
7868 113
7869 23
7870 88
7871 72
7872 67
7873 61
7874 93
7875 21
7876 48
7877 110
7878 110
7879 31
7880 114
7881 43
7882 71
7883 28
7884 66
7885 66
7886 111
7887 59
7888 110
7889 49
7890 100
7891 25
7892 76
7893 25
7894 111
7895 76
7896 47
7897 39
7898 94
7899 2
7900 106
7901 125
7902 95
7903 71
7904 14
7905 23
7906 106
7907 61
7908 21
7909 38
7910 40
7911 38
7912 110
7913 101
7914 55
7915 67
7916 95
7917 92
7918 42
7919 39
7920 48
7921 8
7922 46
7923 103
7924 103
7925 50
7926 57
7927 74
7928 53
7929 61
7930 41
7931 51
7932 114
7933 54
7934 93
7935 78
7936 105
7937 46
7938 56
7939 120
7940 74
7941 9
7942 9
7943 25
7944 28
7945 4
7946 40
7947 114
7948 122
7949 27
7950 67
7951 100
7952 56
7953 111
7954 84
7955 49
7956 14
7957 35
7958 8
7959 35
7960 98
7961 14
7962 34
7963 8
7964 40
7965 58
7966 47
7967 2
7968 83
7969 67
7970 3
7971 61
7972 59
7973 110
7974 111
7975 59
7976 111
7977 110
7978 6
7979 36
7980 17
7981 102
7982 25
7983 74
7984 48
7985 49
7986 106
7987 18
7988 59
7989 27
7990 121
7991 56
7992 103
7993 49
7994 51
7995 88
7996 92
7997 28
7998 38
7999 18
8000 107
8001 14
8002 12
8003 25
8004 13
8005 92
8006 23
8007 61
8008 122
8009 100
8010 79
8011 70
8012 53
8013 101
8014 33
8015 107
8016 5
8017 38
8018 52
8019 61
8020 22
8021 65
8022 57
8023 86
8024 4
8025 75
8026 33
8027 45
8028 51
8029 24
8030 51
8031 52
8032 17
8033 1
8034 2
8035 101
8036 55
8037 13
8038 92
8039 122
8040 40
8041 86
8042 101
8043 5
8044 72
8045 125
8046 120
8047 59
8048 120
8049 106
8050 99
8051 7
8052 11
8053 40
8054 2
8055 4
8056 47
8057 119
8058 1
8059 23
8060 4
8061 46
8062 129
8063 119
8064 7
8065 37
8066 74
8067 53
8068 18
8069 46
8070 92
8071 74
8072 87
8073 32
8074 75
8075 70
8076 13
8077 95
8078 63
8079 86
8080 111
8081 40
8082 11
8083 2
8084 74
8085 100
8086 102
8087 87
8088 56
8089 94
8090 123
8091 106
8092 57
8093 3
8094 120
8095 124
8096 110
8097 13
8098 20
8099 58
8100 33
8101 64
8102 16
8103 111
8104 51
8105 14
8106 61
8107 49
8108 61
8109 35
8110 101
8111 119
8112 6
8113 111
8114 21
8115 52
8116 46
8117 45
8118 75
8119 86
8120 95
8121 41
8122 58
8123 96
8124 20
8125 6
8126 98
8127 111
8128 113
8129 16
8130 51
8131 18
8132 72
8133 90
8134 93
8135 101
8136 61
8137 124
8138 71
8139 27
8140 11
8141 27
8142 52
8143 8
8144 27
8145 37
8146 65
8147 3
8148 79
8149 73
8150 83
8151 45
8152 86
8153 96
8154 82
8155 92
8156 2
8157 91
8158 40
8159 40
8160 31
8161 117
8162 40
8163 55
8164 29
8165 72
8166 17
8167 74
8168 95
8169 57
8170 93
8171 103
8172 37
8173 83
8174 103
8175 23
8176 61
8177 61
8178 11
8179 25
8180 18
8181 46
8182 72
8183 1
8184 18
8185 23
8186 62
8187 99
8188 21
8189 17
8190 106
8191 1
8192 112
8193 9
8194 80
8195 24
8196 60
8197 23
8198 72
8199 52
8200 119
8201 12
8202 24
8203 106
8204 32
8205 121
8206 14
8207 98
8208 25
8209 20
8210 61
8211 78
8212 61
8213 1
8214 79
8215 80
8216 12
8217 119
8218 1
8219 9
8220 65
8221 70
8222 55
8223 88
8224 79
8225 12
8226 91
8227 125
8228 94
8229 105
8230 15
8231 67
8232 46
8233 23
8234 63
8235 16
8236 36
8237 80
8238 101
8239 25
8240 121
8241 84
8242 21
8243 1
8244 58
8245 78
8246 58
8247 114
8248 88
8249 77
8250 92
8251 24
8252 83
8253 28
8254 106
8255 9
8256 100
8257 2
8258 103
8259 49
8260 105
8261 62
8262 3
8263 90
8264 61
8265 6
8266 5
8267 106
8268 105
8269 21
8270 86
8271 59
8272 24
8273 119
8274 79
8275 100
8276 46
8277 110
8278 106
8279 95
8280 3
8281 99
8282 113
8283 21
8284 7
8285 80
8286 125
8287 68
8288 23
8289 25
8290 77
8291 114
8292 25
8293 112
8294 8
8295 59
8296 116
8297 77
8298 10
8299 104
8300 2
8301 74
8302 34
8303 56
8304 92
8305 16
8306 28
8307 95
8308 3
8309 92
8310 28
8311 9
8312 62
8313 70
8314 12
8315 44
8316 4
8317 129
8318 62
8319 57
8320 111
8321 106
8322 93
8323 91
8324 23
8325 87
8326 33
8327 105
8328 5
8329 111
8330 96
8331 23
8332 93
8333 1
8334 149
8335 26
8336 104
8337 92
8338 61
8339 105
8340 76
8341 56
8342 54
8343 80
8344 61
8345 110
8346 17
8347 101
8348 48
8349 49
8350 134
8351 130
8352 20
8353 125
8354 61
8355 21
8356 8
8357 70
8358 123
8359 86
8360 74
8361 122
8362 74
8363 110
8364 33
8365 59
8366 120
8367 75
8368 83
8369 92
8370 46
8371 48
8372 35
8373 97
8374 42
8375 108
8376 87
8377 5
8378 51
8379 58
8380 0
8381 59
8382 58
8383 80
8384 43
8385 21
8386 24
8387 101
8388 110
8389 23
8390 46
8391 8
8392 75
8393 43
8394 40
8395 134
8396 70
8397 92
8398 51
8399 119
8400 74
8401 46
8402 113
8403 110
8404 58
8405 19
8406 62
8407 47
8408 104
8409 93
8410 3
8411 93
8412 14
8413 11
8414 52
8415 54
8416 18
8417 23
8418 75
8419 41
8420 8
8421 2
8422 27
8423 71
8424 14
8425 12
8426 28
8427 71
8428 7
8429 33
8430 2
8431 6
8432 135
8433 86
8434 80
8435 62
8436 9
8437 7
8438 39
8439 62
8440 80
8441 59
8442 25
8443 86
8444 13
8445 86
8446 80
8447 54
8448 6
8449 43
8450 23
8451 100
8452 125
8453 67
8454 13
8455 21
8456 88
8457 3
8458 27
8459 28
8460 23
8461 44
8462 18
8463 56
8464 107
8465 59
8466 4
8467 86
8468 60
8469 58
8470 98
8471 100
8472 61
8473 93
8474 83
8475 111
8476 17
8477 61
8478 73
8479 51
8480 76
8481 18
8482 26
8483 14
8484 58
8485 123
8486 110
8487 12
8488 77
8489 61
8490 14
8491 119
8492 83
8493 18
8494 125
8495 72
8496 93
8497 37
8498 51
8499 4
8500 60
8501 72
8502 93
8503 15
8504 22
8505 46
8506 72
8507 14
8508 101
8509 100
8510 64
8511 13
8512 93
8513 39
8514 112
8515 63
8516 62
8517 101
8518 45
8519 96
8520 27
8521 22
8522 128
8523 23
8524 72
8525 6
8526 107
8527 100
8528 8
8529 80
8530 52
8531 34
8532 39
8533 51
8534 79
8535 125
8536 93
8537 14
8538 66
8539 4
8540 48
8541 23
8542 49
8543 82
8544 49
8545 108
8546 5
8547 56
8548 91
8549 25
8550 100
8551 18
8552 65
8553 93
8554 21
8555 87
8556 6
8557 37
8558 23
8559 2
8560 114
8561 107
8562 59
8563 28
8564 8
8565 1
8566 114
8567 9
8568 111
8569 98
8570 25
8571 111
8572 4
8573 23
8574 24
8575 95
8576 83
8577 53
8578 49
8579 9
8580 10
8581 17
8582 56
8583 28
8584 7
8585 83
8586 67
8587 27
8588 9
8589 113
8590 110
8591 92
8592 58
8593 90
8594 49
8595 100
8596 20
8597 61
8598 9
8599 81
8600 60
8601 121
8602 59
8603 60
8604 78
8605 35
8606 9
8607 18
8608 14
8609 82
8610 56
8611 5
8612 105
8613 45
8614 10
8615 100
8616 83
8617 109
8618 124
8619 62
8620 83
8621 74
8622 39
8623 31
8624 14
8625 31
8626 14
8627 56
8628 20
8629 1
8630 8
8631 59
8632 73
8633 14
8634 32
8635 83
8636 27
8637 14
8638 10
8639 93
8640 39
8641 3
8642 54
8643 93
8644 74
8645 45
8646 101
8647 67
8648 11
8649 87
8650 33
8651 93
8652 101
8653 86
8654 5
8655 100
8656 5
8657 49
8658 61
8659 5
8660 72
8661 80
8662 107
8663 43
8664 107
8665 35
8666 87
8667 86
8668 110
8669 59
8670 62
8671 39
8672 67
8673 61
8674 27
8675 55
8676 58
8677 57
8678 39
8679 25
8680 93
8681 46
8682 42
8683 106
8684 90
8685 99
8686 9
8687 72
8688 3
8689 79
8690 52
8691 100
8692 13
8693 116
8694 103
8695 4
8696 17
8697 27
8698 53
8699 90
8700 39
8701 112
8702 28
8703 128
8704 119
8705 11
8706 121
8707 4
8708 62
8709 4
8710 3
8711 62
8712 119
8713 43
8714 11
8715 86
8716 21
8717 119
8718 1
8719 57
8720 2
8721 71
8722 28
8723 28
8724 21
8725 105
8726 51
8727 45
8728 12
8729 108
8730 59
8731 54
8732 3
8733 108
8734 120
8735 35
8736 7
8737 92
8738 1
8739 123
8740 7
8741 121
8742 22
8743 51
8744 1
8745 62
8746 25
8747 106
8748 59
8749 91
8750 15
8751 18
8752 13
8753 9
8754 88
8755 79
8756 32
8757 28
8758 94
8759 68
8760 37
8761 125
8762 87
8763 86
8764 87
8765 72
8766 44
8767 77
8768 61
8769 62
8770 92
8771 97
8772 86
8773 92
8774 25
8775 90
8776 24
8777 125
8778 9
8779 98
8780 94
8781 83
8782 72
8783 7
8784 86
8785 73
8786 76
8787 53
8788 6
8789 77
8790 102
8791 86
8792 121
8793 95
8794 72
8795 122
8796 125
8797 90
8798 40
8799 25
8800 54
8801 74
8802 37
8803 101
8804 16
8805 2
8806 72
8807 113
8808 92
8809 27
8810 122
8811 90
8812 104
8813 43
8814 95
8815 91
8816 26
8817 66
8818 124
8819 18
8820 47
8821 37
8822 56
8823 32
8824 55
8825 38
8826 33
8827 98
8828 80
8829 5
8830 87
8831 100
8832 5
8833 31
8834 48
8835 61
8836 74
8837 121
8838 69
8839 65
8840 61
8841 75
8842 11
8843 28
8844 54
8845 43
8846 98
8847 62
8848 62
8849 108
8850 23
8851 111
8852 76
8853 111
8854 76
8855 97
8856 21
8857 38
8858 92
8859 150
8860 57
8861 10
8862 126
8863 111
8864 123
8865 103
8866 23
8867 65
8868 18
8869 33
8870 74
8871 26
8872 88
8873 16
8874 53
8875 92
8876 14
8877 76
8878 56
8879 72
8880 21
8881 11
8882 13
8883 94
8884 56
8885 54
8886 67
8887 55
8888 54
8889 61
8890 39
8891 100
8892 8
8893 53
8894 52
8895 75
8896 56
8897 116
8898 93
8899 112
8900 111
8901 72
8902 46
8903 22
8904 73
8905 78
8906 53
8907 23
8908 84
8909 110
8910 21
8911 116
8912 47
8913 124
8914 25
8915 49
8916 28
8917 69
8918 133
8919 49
8920 20
8921 72
8922 23
8923 120
8924 23
8925 62
8926 21
8927 62
8928 62
8929 5
8930 47
8931 45
8932 86
8933 28
8934 14
8935 103
8936 106
8937 106
8938 123
8939 61
8940 110
8941 33
8942 104
8943 71
8944 4
8945 86
8946 4
8947 25
8948 121
8949 79
8950 2
8951 108
8952 27
8953 121
8954 90
8955 35
8956 13
8957 121
8958 49
8959 40
8960 102
8961 54
8962 45
8963 73
8964 18
8965 62
8966 75
8967 54
8968 57
8969 23
8970 18
8971 79
8972 97
8973 10
8974 106
8975 14
8976 17
8977 72
8978 103
8979 61
8980 2
8981 116
8982 9
8983 14
8984 38
8985 3
8986 21
8987 74
8988 100
8989 33
8990 103
8991 65
8992 92
8993 3
8994 58
8995 17
8996 2
8997 40
8998 72
8999 7
9000 20
9001 61
9002 83
9003 108
9004 91
9005 111
9006 33
9007 67
9008 46
9009 66
9010 90
9011 34
9012 61
9013 49
9014 39
9015 129
9016 1
9017 83
9018 25
9019 24
9020 18
9021 71
9022 86
9023 7
9024 28
9025 64
9026 28
9027 46
9028 107
9029 43
9030 72
9031 88
9032 82
9033 119
9034 119
9035 53
9036 58
9037 48
9038 45
9039 107
9040 25
9041 45
9042 111
9043 48
9044 111
9045 25
9046 27
9047 90
9048 21
9049 47
9050 24
9051 37
9052 4
9053 107
9054 26
9055 57
9056 58
9057 28
9058 16
9059 14
9060 61
9061 51
9062 1
9063 28
9064 90
9065 34
9066 119
9067 84
9068 65
9069 11
9070 7
9071 111
9072 25
9073 122
9074 11
9075 5
9076 14
9077 20
9078 94
9079 52
9080 24
9081 127
9082 28
9083 73
9084 46
9085 23
9086 110
9087 65
9088 18
9089 100
9090 74
9091 10
9092 125
9093 84
9094 58
9095 88
9096 83
9097 121
9098 88
9099 96
9100 58
9101 46
9102 35
9103 83
9104 13
9105 111
9106 97
9107 3
9108 4
9109 74
9110 1
9111 75
9112 49
9113 109
9114 40
9115 107
9116 80
9117 92
9118 106
9119 91
9120 5
9121 3
9122 124
9123 114
9124 111
9125 33
9126 114
9127 93
9128 9
9129 61
9130 23
9131 26
9132 3
9133 48
9134 6
9135 72
9136 37
9137 45
9138 65
9139 74
9140 5
9141 64
9142 111
9143 94
9144 83
9145 98
9146 110
9147 91
9148 110
9149 72
9150 3
9151 27
9152 52
9153 1
9154 13
9155 23
9156 86
9157 23
9158 67
9159 120
9160 112
9161 27
9162 87
9163 28
9164 32
9165 14
9166 28
9167 26
9168 28
9169 21
9170 112
9171 72
9172 83
9173 14
9174 25
9175 23
9176 58
9177 14
9178 92
9179 24
9180 18
9181 93
9182 127
9183 21
9184 88
9185 99
9186 8
9187 78
9188 94
9189 93
9190 135
9191 4
9192 55
9193 110
9194 78
9195 58
9196 14
9197 96
9198 46
9199 59
9200 28
9201 25
9202 61
9203 72
9204 73
9205 98
9206 93
9207 34
9208 96
9209 65
9210 2
9211 52
9212 10
9213 5
9214 93
9215 52
9216 23
9217 49
9218 7
9219 124
9220 7
9221 116
9222 21
9223 9
9224 3
9225 97
9226 117
9227 62
9228 17
9229 24
9230 124
9231 9
9232 22
9233 36
9234 62
9235 56
9236 20
9237 117
9238 18
9239 3
9240 62
9241 39
9242 79
9243 24
9244 1
9245 82
9246 66
9247 39
9248 101
9249 33
9250 22
9251 74
9252 119
9253 9
9254 9
9255 98
9256 66
9257 3
9258 5
9259 119
9260 73
9261 101
9262 28
9263 121
9264 17
9265 93
9266 90
9267 62
9268 60
9269 74
9270 45
9271 19
9272 5
9273 11
9274 20
9275 15
9276 75
9277 9
9278 61
9279 71
9280 56
9281 74
9282 8
9283 86
9284 36
9285 6
9286 1
9287 101
9288 72
9289 92
9290 57
9291 9
9292 5
9293 47
9294 51
9295 2
9296 7
9297 73
9298 65
9299 64
9300 126
9301 122
9302 34
9303 35
9304 122
9305 75
9306 27
9307 59
9308 70
9309 72
9310 22
9311 25
9312 36
9313 21
9314 3
9315 61
9316 9
9317 9
9318 10
9319 36
9320 18
9321 34
9322 73
9323 15
9324 86
9325 102
9326 61
9327 11
9328 1
9329 44
9330 3
9331 48
9332 47
9333 121
9334 121
9335 35
9336 101
9337 93
9338 104
9339 40
9340 25
9341 72
9342 10
9343 17
9344 87
9345 87
9346 12
9347 91
9348 126
9349 73
9350 75
9351 2
9352 49
9353 93
9354 9
9355 6
9356 4
9357 110
9358 111
9359 77
9360 52
9361 129
9362 74
9363 7
9364 13
9365 67
9366 125
9367 3
9368 82
9369 60
9370 82
9371 18
9372 73
9373 95
9374 55
9375 2
9376 125
9377 8
9378 54
9379 75
9380 26
9381 26
9382 27
9383 82
9384 111
9385 58
9386 121
9387 10
9388 48
9389 14
9390 11
9391 94
9392 83
9393 121
9394 102
9395 1
9396 18
9397 42
9398 82
9399 7
9400 46
9401 46
9402 2
9403 40
9404 12
9405 15
9406 47
9407 47
9408 39
9409 28
9410 73
9411 4
9412 4
9413 9
9414 8
9415 23
9416 37
9417 26
9418 46
9419 100
9420 111
9421 105
9422 72
9423 1
9424 84
9425 73
9426 51
9427 8
9428 4
9429 18
9430 76
9431 72
9432 87
9433 2
9434 111
9435 104
9436 121
9437 48
9438 93
9439 55
9440 16
9441 100
9442 95
9443 97
9444 71
9445 100
9446 83
9447 46
9448 4
9449 40
9450 3
9451 109
9452 87
9453 23
9454 82
9455 23
9456 92
9457 14
9458 39
9459 56
9460 75
9461 72
9462 7
9463 56
9464 99
9465 4
9466 101
9467 28
9468 11
9469 7
9470 116
9471 78
9472 9
9473 61
9474 122
9475 20
9476 58
9477 74
9478 25
9479 76
9480 74
9481 46
9482 60
9483 92
9484 100
9485 96
9486 44
9487 111
9488 111
9489 4
9490 18
9491 51
9492 72
9493 7
9494 9
9495 75
9496 109
9497 20
9498 93
9499 30
9500 58
9501 34
9502 27
9503 35
9504 119
9505 80
9506 41
9507 86
9508 3
9509 62
9510 80
9511 54
9512 20
9513 9
9514 7
9515 4
9516 77
9517 103
9518 61
9519 28
9520 65
9521 1
9522 46
9523 1
9524 76
9525 51
9526 1
9527 100
9528 28
9529 25
9530 13
9531 67
9532 112
9533 80
9534 24
9535 114
9536 8
9537 90
9538 26
9539 9
9540 86
9541 110
9542 7
9543 66
9544 116
9545 56
9546 39
9547 92
9548 5
9549 46
9550 134
9551 25
9552 3
9553 1
9554 4
9555 48
9556 123
9557 112
9558 23
9559 91
9560 43
9561 28
9562 74
9563 45
9564 26
9565 9
9566 56
9567 67
9568 9
9569 61
9570 58
9571 65
9572 59
9573 57
9574 93
9575 47
9576 151
9577 14
9578 100
9579 20
9580 122
9581 9
9582 9
9583 58
9584 75
9585 61
9586 28
9587 111
9588 43
9589 78
9590 40
9591 106
9592 7
9593 92
9594 13
9595 135
9596 31
9597 77
9598 25
9599 17
9600 133
9601 58
9602 72
9603 79
9604 70
9605 18
9606 124
9607 13
9608 5
9609 53
9610 27
9611 14
9612 14
9613 83
9614 90
9615 110
9616 120
9617 121
9618 107
9619 18
9620 49
9621 9
9622 106
9623 122
9624 61
9625 15
9626 103
9627 2
9628 101
9629 38
9630 7
9631 125
9632 34
9633 122
9634 95
9635 80
9636 18
9637 17
9638 13
9639 22
9640 111
9641 98
9642 103
9643 2
9644 92
9645 27
9646 58
9647 52
9648 1
9649 22
9650 13
9651 20
9652 32
9653 106
9654 28
9655 90
9656 8
9657 75
9658 108
9659 59
9660 36
9661 20
9662 120
9663 62
9664 106
9665 31
9666 23
9667 90
9668 71
9669 14
9670 7
9671 35
9672 90
9673 23
9674 37
9675 28
9676 5
9677 51
9678 117
9679 14
9680 16
9681 93
9682 8
9683 120
9684 40
9685 53
9686 90
9687 1
9688 1
9689 71
9690 100
9691 114
9692 2
9693 21
9694 18
9695 133
9696 23
9697 33
9698 9
9699 14
9700 102
9701 43
9702 106
9703 95
9704 10
9705 152
9706 102
9707 29
9708 74
9709 90
9710 60
9711 101
9712 29
9713 79
9714 5
9715 32
9716 47
9717 37
9718 75
9719 83
9720 100
9721 107
9722 56
9723 70
9724 25
9725 110
9726 49
9727 39
9728 63
9729 3
9730 119
9731 94
9732 53
9733 103
9734 12
9735 58
9736 56
9737 12
9738 71
9739 47
9740 24
9741 52
9742 9
9743 3
9744 101
9745 7
9746 27
9747 74
9748 51
9749 25
9750 6
9751 95
9752 14
9753 73
9754 25
9755 107
9756 92
9757 49
9758 94
9759 59
9760 40
9761 5
9762 62
9763 6
9764 58
9765 88
9766 24
9767 78
9768 14
9769 13
9770 25
9771 101
9772 90
9773 22
9774 62
9775 87
9776 24
9777 119
9778 58
9779 9
9780 33
9781 119
9782 73
9783 70
9784 12
9785 9
9786 123
9787 114
9788 107
9789 7
9790 125
9791 17
9792 70
9793 34
9794 23
9795 125
9796 63
9797 65
9798 123
9799 74
9800 88
9801 123
9802 60
9803 87
9804 62
9805 28
9806 19
9807 5
9808 5
9809 60
9810 106
9811 119
9812 65
9813 10
9814 71
9815 19
9816 13
9817 94
9818 60
9819 122
9820 21
9821 14
9822 10
9823 83
9824 20
9825 87
9826 106
9827 76
9828 55
9829 4
9830 61
9831 63
9832 42
9833 37
9834 25
9835 1
9836 61
9837 1
9838 45
9839 50
9840 40
9841 25
9842 18
9843 80
9844 29
9845 28
9846 92
9847 36
9848 72
9849 3
9850 112
9851 120
9852 86
9853 16
9854 105
9855 93
9856 76
9857 8
9858 100
9859 100
9860 20
9861 98
9862 33
9863 42
9864 66
9865 8
9866 55
9867 17
9868 49
9869 105
9870 56
9871 55
9872 48
9873 105
9874 100
9875 105
9876 18
9877 72
9878 93
9879 124
9880 72
9881 61
9882 75
9883 80
9884 111
9885 25
9886 135
9887 26
9888 28
9889 17
9890 86
9891 86
9892 25
9893 45
9894 65
9895 83
9896 14
9897 20
9898 9
9899 43
9900 35
9901 8
9902 28
9903 111
9904 21
9905 86
9906 56
9907 86
9908 71
9909 8
9910 20
9911 32
9912 5
9913 3
9914 37
9915 86
9916 28
9917 55
9918 61
9919 13
9920 6
9921 14
9922 74
9923 39
9924 101
9925 51
9926 112
9927 78
9928 35
9929 33
9930 17
9931 2
9932 2
9933 80
9934 7
9935 64
9936 71
9937 41
9938 153
9939 52
9940 127
9941 65
9942 61
9943 7
9944 18
9945 73
9946 14
9947 79
9948 71
9949 92
9950 51
9951 61
9952 92
9953 1
9954 38
9955 77
9956 14
9957 8
9958 65
9959 4
9960 6
9961 6
9962 87
9963 23
9964 71
9965 6
9966 25
9967 58
9968 75
9969 61
9970 102
9971 76
9972 25
9973 92
9974 120
9975 17
9976 27
9977 9
9978 14
9979 65
9980 73
9981 66
9982 55
9983 88
9984 87
9985 9
9986 44
9987 93
9988 106
9989 18
9990 109
9991 25
9992 106
9993 49
9994 37
9995 88
9996 9
9997 54
9998 130
9999 100
