0 0
1 1
2 2
3 3
4 4
5 5
6 6
7 7
8 8
9 4
10 9
11 10
12 10
13 1
14 11
15 12
16 13
17 14
18 15
19 5
20 16
21 17
22 18
23 19
24 20
25 21
26 22
27 23
28 24
29 25
30 26
31 27
32 28
33 28
34 29
35 30
36 31
37 32
38 12
39 33
40 34
41 35
42 36
43 5
44 37
45 38
46 39
47 35
48 23
49 40
50 5
51 41
52 10
53 1
54 42
55 39
56 43
57 44
58 16
59 45
60 46
61 44
62 47
63 12
64 32
65 48
66 25
67 49
68 35
69 50
70 51
71 43
72 52
73 12
74 53
75 0
76 54
77 4
78 24
79 55
80 52
81 56
82 2
83 57
84 10
85 38
86 58
87 26
88 59
89 28
90 60
91 61
92 62
93 63
94 64
95 41
96 23
97 17
98 65
99 20
100 55
101 66
102 39
103 67
104 42
105 49
106 68
107 69
108 54
109 9
110 59
111 52
112 4
113 9
114 68
115 19
116 61
117 67
118 5
119 7
120 20
121 70
122 50
123 71
124 72
125 51
126 33
127 73
128 74
129 75
130 11
131 3
132 26
133 26
134 72
135 76
136 35
137 58
138 51
139 33
140 62
141 43
142 77
143 75
144 64
145 20
146 78
147 70
148 68
149 50
150 79
151 12
152 54
153 42
154 34
155 80
156 34
157 81
158 1
159 65
160 81
161 11
162 52
163 77
164 82
165 80
166 4
167 50
168 83
169 15
170 52
171 9
172 66
173 56
174 60
175 40
176 53
177 84
178 47
179 28
180 85
181 78
182 52
183 35
184 33
185 86
186 87
187 88
188 83
189 5
190 0
191 22
192 3
193 69
194 89
195 90
196 70
197 91
198 15
199 92
200 25
201 28
202 60
203 19
204 93
205 48
206 68
207 94
208 71
209 30
210 78
211 43
212 47
213 27
214 84
215 77
216 31
217 42
218 4
219 70
220 6
221 94
222 81
223 48
224 85
225 95
226 93
227 70
228 12
229 19
230 84
231 69
232 10
233 27
234 10
235 76
236 96
237 19
238 22
239 61
240 92
241 45
242 31
243 56
244 71
245 50
246 97
247 98
248 66
249 17
250 29
251 42
252 69
253 13
254 95
255 14
256 2
257 51
258 99
259 58
260 100
261 10
262 17
263 47
264 74
265 59
266 63
267 84
268 1
269 91
270 11
271 61
272 94
273 61
274 22
275 82
276 12
277 69
278 52
279 25
280 80
281 44
282 98
283 53
284 35
285 71
286 3
287 61
288 48
289 101
290 67
291 102
292 88
293 42
294 69
295 49
296 25
297 88
298 57
299 78
300 9
301 60
302 25
303 5
304 66
305 97
306 103
307 52
308 27
309 24
310 47
311 0
312 77
313 25
314 46
315 36
316 101
317 35
318 36
319 15
320 38
321 63
322 91
323 95
324 13
325 104
326 28
327 22
328 56
329 44
330 29
331 1
332 69
333 1
334 61
335 70
336 89
337 1
338 93
339 68
340 8
341 50
342 48
343 68
344 95
345 61
346 105
347 37
348 76
349 68
350 91
351 20
352 56
353 14
354 53
355 7
356 48
357 40
358 74
359 38
360 77
361 23
362 8
363 69
364 57
365 106
366 14
367 99
368 66
369 28
370 6
371 76
372 55
373 104
374 98
375 42
376 4
377 4
378 45
379 23
380 69
381 84
382 52
383 62
384 48
385 53
386 92
387 12
388 75
389 1
390 1
391 60
392 60
393 98
394 14
395 3
396 71
397 60
398 97
399 7
400 85
401 107
402 41
403 57
404 73
405 101
406 52
407 29
408 60
409 83
410 58
411 89
412 49
413 3
414 61
415 1
416 28
417 13
418 52
419 12
420 28
421 37
422 53
423 106
424 71
425 75
426 79
427 68
428 19
429 83
430 68
431 35
432 43
433 25
434 74
435 45
436 6
437 0
438 17
439 52
440 44
441 50
442 34
443 45
444 54
445 107
446 57
447 36
448 63
449 12
450 59
451 104
452 96
453 10
454 71
455 20
456 38
457 95
458 47
459 1
460 25
461 3
462 96
463 20
464 61
465 39
466 83
467 12
468 3
469 69
470 100
471 105
472 0
473 96
474 94
475 52
476 19
477 4
478 97
479 96
480 64
481 28
482 31
483 97
484 14
485 101
486 98
487 92
488 71
489 82
490 25
491 88
492 88
493 69
494 37
495 38
496 54
497 11
498 81
499 61
500 5
501 85
502 9
503 94
504 34
505 11
506 36
507 79
508 16
509 15
510 47
511 29
512 38
513 80
514 49
515 0
516 99
517 69
518 74
519 14
520 70
521 47
522 108
523 97
524 76
525 109
526 16
527 101
528 94
529 39
530 78
531 43
532 50
533 104
534 75
535 91
536 31
537 72
538 41
539 18
540 60
541 56
542 10
543 102
544 0
545 19
546 48
547 82
548 50
549 88
550 79
551 18
552 18
553 36
554 65
555 17
556 57
557 51
558 69
559 99
560 58
561 97
562 45
563 53
564 99
565 84
566 90
567 70
568 23
569 25
570 82
571 69
572 97
573 55
574 5
575 13
576 39
577 44
578 51
579 100
580 10
581 47
582 28
583 27
584 39
585 17
586 3
587 101
588 70
589 33
590 65
591 78
592 59
593 44
594 10
595 94
596 80
597 92
598 77
599 69
600 39
601 88
602 84
603 6
604 32
605 92
606 11
607 35
608 66
609 58
610 100
611 22
612 85
613 41
614 17
615 15
616 62
617 54
618 108
619 109
620 80
621 13
622 73
623 13
624 1
625 51
626 45
627 27
628 40
629 28
630 17
631 23
632 95
633 59
634 72
635 46
636 49
637 7
638 87
639 72
640 1
641 31
642 2
643 101
644 49
645 7
646 90
647 53
648 33
649 35
650 90
651 43
652 52
653 5
654 92
655 15
656 29
657 75
658 74
659 81
660 107
661 6
662 68
663 52
664 106
665 91
666 54
667 22
668 21
669 88
670 10
671 68
672 39
673 75
674 58
675 99
676 61
677 29
678 94
679 31
680 10
681 59
682 81
683 62
684 83
685 65
686 0
687 105
688 15
689 78
690 29
691 1
692 17
693 54
694 84
695 105
696 55
697 14
698 60
699 101
700 68
701 20
702 20
703 25
704 97
705 98
706 97
707 1
708 12
709 70
710 50
711 89
712 17
713 34
714 10
715 103
716 59
717 97
718 27
719 11
720 31
721 30
722 66
723 74
724 80
725 81
726 41
727 0
728 53
729 71
730 61
731 80
732 60
733 87
734 85
735 31
736 58
737 1
738 85
739 95
740 21
741 90
742 85
743 70
744 45
745 52
746 92
747 70
748 61
749 35
750 60
751 43
752 28
753 78
754 73
755 84
756 1
757 78
758 36
759 50
760 8
761 52
762 51
763 105
764 23
765 3
766 38
767 44
768 91
769 62
770 71
771 16
772 99
773 15
774 14
775 68
776 82
777 35
778 79
779 66
780 100
781 24
782 76
783 109
784 58
785 38
786 30
787 1
788 30
789 100
790 7
791 65
792 37
793 21
794 66
795 94
796 52
797 109
798 32
799 20
800 23
801 48
802 44
803 78
804 65
805 28
806 97
807 42
808 44
809 45
810 51
811 69
812 78
813 39
814 102
815 62
816 36
817 9
818 101
819 80
820 5
821 50
822 98
823 68
824 50
825 75
826 50
827 90
828 78
829 53
830 28
831 36
832 83
833 12
834 3
835 41
836 11
837 59
838 45
839 13
840 27
841 67
842 105
843 99
844 89
845 60
846 40
847 10
848 73
849 35
850 68
851 37
852 8
853 101
854 30
855 35
856 39
857 47
858 0
859 24
860 29
861 92
862 96
863 79
864 96
865 46
866 91
867 14
868 14
869 30
870 101
871 93
872 18
873 71
874 61
875 61
876 26
877 35
878 47
879 85
880 14
881 94
882 24
883 23
884 47
885 65
886 23
887 52
888 17
889 31
890 110
891 18
892 23
893 103
894 81
895 28
896 38
897 14
898 4
899 78
900 36
901 105
902 78
903 42
904 70
905 47
906 70
907 69
908 70
909 33
910 20
911 27
912 38
913 84
914 10
915 69
916 0
917 99
918 49
919 26
920 55
921 37
922 59
923 51
924 98
925 11
926 49
927 35
928 17
929 9
930 1
931 74
932 18
933 94
934 79
935 77
936 82
937 45
938 19
939 68
940 15
941 29
942 29
943 65
944 1
945 109
946 94
947 56
948 90
949 76
950 5
951 57
952 11
953 75
954 6
955 69
956 40
957 111
958 40
959 64
960 22
961 6
962 45
963 33
964 13
965 73
966 108
967 70
968 63
969 18
970 41
971 17
972 18
973 24
974 65
975 45
976 68
977 35
978 64
979 14
980 60
981 61
982 35
983 25
984 42
985 4
986 83
987 70
988 94
989 34
990 2
991 60
992 46
993 37
994 104
995 52
996 5
997 100
998 83
999 42
1000 38
1001 63
1002 18
1003 94
1004 45
1005 46
1006 0
1007 78
1008 17
1009 7
1010 12
1011 1
1012 48
1013 73
1014 64
1015 41
1016 94
1017 49
1018 50
1019 31
1020 77
1021 56
1022 18
1023 75
1024 52
1025 39
1026 39
1027 90
1028 75
1029 0
1030 80
1031 15
1032 33
1033 28
1034 15
1035 18
1036 50
1037 93
1038 62
1039 71
1040 107
1041 66
1042 44
1043 30
1044 95
1045 89
1046 19
1047 97
1048 56
1049 67
1050 19
1051 33
1052 58
1053 84
1054 50
1055 93
1056 97
1057 35
1058 112
1059 72
1060 46
1061 44
1062 70
1063 28
1064 81
1065 92
1066 65
1067 2
1068 28
1069 54
1070 31
1071 49
1072 15
1073 19
1074 27
1075 56
1076 46
1077 5
1078 22
1079 49
1080 15
1081 9
1082 35
1083 77
1084 69
1085 1
1086 83
1087 28
1088 30
1089 26
1090 46
1091 46
1092 5
1093 52
1094 103
1095 40
1096 18
1097 45
1098 5
1099 28
1100 62
1101 52
1102 108
1103 56
1104 75
1105 70
1106 42
1107 60
1108 80
1109 40
1110 77
1111 0
1112 50
1113 77
1114 94
1115 22
1116 16
1117 106
1118 95
1119 92
1120 14
1121 61
1122 17
1123 24
1124 62
1125 26
1126 23
1127 36
1128 17
1129 66
1130 94
1131 1
1132 59
1133 103
1134 21
1135 39
1136 5
1137 24
1138 63
1139 67
1140 98
1141 75
1142 74
1143 28
1144 54
1145 19
1146 4
1147 82
1148 67
1149 89
1150 57
1151 52
1152 53
1153 53
1154 23
1155 53
1156 16
1157 41
1158 66
1159 82
1160 22
1161 66
1162 47
1163 18
1164 32
1165 13
1166 36
1167 37
1168 84
1169 10
1170 39
1171 1
1172 70
1173 2
1174 9
1175 16
1176 17
1177 35
1178 47
1179 40
1180 46
1181 4
1182 69
1183 16
1184 100
1185 75
1186 77
1187 19
1188 10
1189 66
1190 10
1191 74
1192 55
1193 46
1194 15
1195 65
1196 93
1197 84
1198 74
1199 37
1200 92
1201 51
1202 19
1203 65
1204 64
1205 22
1206 0
1207 80
1208 67
1209 103
1210 37
1211 70
1212 101
1213 18
1214 54
1215 17
1216 88
1217 94
1218 47
1219 51
1220 93
1221 112
1222 63
1223 55
1224 59
1225 9
1226 20
1227 24
1228 96
1229 65
1230 35
1231 82
1232 100
1233 45
1234 27
1235 12
1236 70
1237 57
1238 101
1239 29
1240 0
1241 92
1242 4
1243 29
1244 5
1245 26
1246 32
1247 3
1248 39
1249 17
1250 19
1251 101
1252 10
1253 39
1254 20
1255 44
1256 18
1257 76
1258 34
1259 32
1260 3
1261 0
1262 31
1263 1
1264 12
1265 75
1266 91
1267 75
1268 3
1269 91
1270 82
1271 56
1272 9
1273 24
1274 75
1275 47
1276 73
1277 94
1278 94
1279 52
1280 70
1281 84
1282 72
1283 67
1284 94
1285 55
1286 57
1287 1
1288 50
1289 10
1290 31
1291 80
1292 91
1293 77
1294 87
1295 21
1296 14
1297 19
1298 75
1299 34
1300 106
1301 41
1302 112
1303 90
1304 77
1305 69
1306 93
1307 10
1308 101
1309 9
1310 60
1311 54
1312 9
1313 90
1314 95
1315 45
1316 95
1317 54
1318 80
1319 101
1320 84
1321 48
1322 22
1323 0
1324 68
1325 62
1326 78
1327 29
1328 52
1329 65
1330 72
1331 91
1332 70
1333 6
1334 47
1335 29
1336 55
1337 97
1338 51
1339 12
1340 15
1341 44
1342 40
1343 32
1344 44
1345 0
1346 56
1347 107
1348 98
1349 80
1350 68
1351 29
1352 76
1353 5
1354 26
1355 56
1356 87
1357 19
1358 10
1359 78
1360 1
1361 73
1362 94
1363 52
1364 70
1365 28
1366 71
1367 72
1368 45
1369 84
1370 10
1371 77
1372 69
1373 89
1374 95
1375 29
1376 5
1377 93
1378 85
1379 5
1380 9
1381 52
1382 1
1383 18
1384 55
1385 0
1386 28
1387 61
1388 81
1389 62
1390 3
1391 43
1392 36
1393 69
1394 104
1395 105
1396 11
1397 12
1398 47
1399 41
1400 68
1401 14
1402 97
1403 38
1404 25
1405 55
1406 94
1407 78
1408 82
1409 65
1410 64
1411 13
1412 37
1413 32
1414 49
1415 59
1416 34
1417 59
1418 6
1419 57
1420 74
1421 74
1422 87
1423 29
1424 36
1425 10
1426 1
1427 60
1428 62
1429 22
1430 65
1431 84
1432 45
1433 27
1434 97
1435 60
1436 79
1437 8
1438 48
1439 105
1440 5
1441 47
1442 85
1443 82
1444 19
1445 91
1446 26
1447 94
1448 0
1449 71
1450 91
1451 95
1452 43
1453 50
1454 103
1455 46
1456 33
1457 56
1458 15
1459 59
1460 29
1461 80
1462 25
1463 3
1464 108
1465 88
1466 91
1467 47
1468 50
1469 57
1470 4
1471 4
1472 26
1473 17
1474 52
1475 69
1476 32
1477 10
1478 49
1479 69
1480 83
1481 71
1482 49
1483 1
1484 101
1485 29
1486 69
1487 66
1488 74
1489 15
1490 52
1491 31
1492 20
1493 22
1494 0
1495 0
1496 26
1497 73
1498 7
1499 4
1500 12
1501 101
1502 15
1503 98
1504 81
1505 3
1506 44
1507 38
1508 21
1509 62
1510 38
1511 79
1512 101
1513 29
1514 101
1515 82
1516 48
1517 43
1518 108
1519 69
1520 69
1521 51
1522 27
1523 47
1524 65
1525 80
1526 5
1527 31
1528 60
1529 94
1530 100
1531 50
1532 23
1533 5
1534 63
1535 5
1536 58
1537 81
1538 1
1539 18
1540 71
1541 33
1542 47
1543 108
1544 51
1545 22
1546 60
1547 32
1548 39
1549 47
1550 37
1551 88
1552 80
1553 47
1554 46
1555 50
1556 92
1557 29
1558 3
1559 80
1560 49
1561 60
1562 20
1563 0
1564 53
1565 59
1566 48
1567 60
1568 82
1569 23
1570 94
1571 100
1572 61
1573 34
1574 88
1575 93
1576 78
1577 107
1578 28
1579 14
1580 99
1581 69
1582 36
1583 61
1584 21
1585 37
1586 11
1587 101
1588 14
1589 77
1590 50
1591 31
1592 87
1593 36
1594 17
1595 61
1596 4
1597 75
1598 47
1599 42
1600 112
1601 10
1602 0
1603 100
1604 10
1605 8
1606 50
1607 9
1608 12
1609 16
1610 90
1611 17
1612 94
1613 27
1614 9
1615 79
1616 52
1617 54
1618 24
1619 84
1620 10
1621 39
1622 87
1623 26
1624 2
1625 24
1626 99
1627 103
1628 89
1629 97
1630 22
1631 67
1632 61
1633 12
1634 10
1635 100
1636 32
1637 42
1638 104
1639 34
1640 36
1641 12
1642 70
1643 46
1644 9
1645 104
1646 47
1647 59
1648 52
1649 19
1650 48
1651 65
1652 33
1653 107
1654 60
1655 109
1656 99
1657 82
1658 71
1659 23
1660 35
1661 5
1662 46
1663 84
1664 48
1665 24
1666 1
1667 47
1668 41
1669 64
1670 11
1671 21
1672 7
1673 19
1674 108
1675 99
1676 51
1677 7
1678 41
1679 18
1680 94
1681 30
1682 30
1683 36
1684 85
1685 61
1686 65
1687 5
1688 97
1689 39
1690 43
1691 31
1692 95
1693 11
1694 55
1695 58
1696 26
1697 70
1698 57
1699 54
1700 16
1701 13
1702 59
1703 59
1704 81
1705 17
1706 15
1707 40
1708 3
1709 75
1710 36
1711 6
1712 82
1713 0
1714 34
1715 13
1716 30
1717 32
1718 4
1719 69
1720 19
1721 77
1722 30
1723 25
1724 98
1725 85
1726 74
1727 61
1728 4
1729 52
1730 39
1731 82
1732 94
1733 70
1734 49
1735 104
1736 108
1737 112
1738 13
1739 89
1740 28
1741 42
1742 69
1743 113
1744 28
1745 1
1746 32
1747 99
1748 50
1749 104
1750 95
1751 45
1752 52
1753 64
1754 74
1755 69
1756 9
1757 33
1758 35
1759 19
1760 58
1761 101
1762 93
1763 101
1764 54
1765 98
1766 5
1767 24
1768 38
1769 25
1770 43
1771 10
1772 61
1773 67
1774 47
1775 99
1776 26
1777 55
1778 68
1779 55
1780 72
1781 88
1782 42
1783 5
1784 15
1785 33
1786 17
1787 75
1788 98
1789 99
1790 100
1791 70
1792 108
1793 29
1794 46
1795 10
1796 60
1797 28
1798 100
1799 23
1800 103
1801 68
1802 47
1803 105
1804 65
1805 23
1806 8
1807 96
1808 91
1809 94
1810 94
1811 47
1812 52
1813 62
1814 61
1815 105
1816 20
1817 50
1818 64
1819 10
1820 55
1821 99
1822 91
1823 94
1824 44
1825 26
1826 89
1827 61
1828 39
1829 66
1830 50
1831 7
1832 0
1833 100
1834 26
1835 4
1836 57
1837 72
1838 16
1839 44
1840 60
1841 53
1842 7
1843 92
1844 49
1845 3
1846 31
1847 71
1848 37
1849 44
1850 36
1851 97
1852 17
1853 88
1854 1
1855 45
1856 10
1857 67
1858 70
1859 94
1860 13
1861 27
1862 93
1863 18
1864 27
1865 30
1866 36
1867 6
1868 85
1869 46
1870 76
1871 18
1872 95
1873 18
1874 59
1875 72
1876 9
1877 39
1878 69
1879 92
1880 98
1881 48
1882 70
1883 25
1884 108
1885 1
1886 83
1887 50
1888 66
1889 46
1890 39
1891 1
1892 42
1893 8
1894 74
1895 84
1896 20
1897 21
1898 13
1899 10
1900 50
1901 48
1902 93
1903 36
1904 96
1905 53
1906 23
1907 80
1908 23
1909 10
1910 5
1911 72
1912 52
1913 47
1914 82
1915 77
1916 12
1917 21
1918 16
1919 41
1920 90
1921 88
1922 7
1923 55
1924 15
1925 70
1926 59
1927 90
1928 65
1929 41
1930 59
1931 27
1932 39
1933 53
1934 69
1935 97
1936 62
1937 72
1938 94
1939 14
1940 29
1941 72
1942 85
1943 69
1944 101
1945 28
1946 48
1947 74
1948 1
1949 71
1950 38
1951 5
1952 18
1953 43
1954 33
1955 100
1956 11
1957 68
1958 32
1959 84
1960 61
1961 64
1962 15
1963 28
1964 69
1965 23
1966 55
1967 68
1968 60
1969 81
1970 31
1971 3
1972 15
1973 43
1974 52
1975 20
1976 3
1977 21
1978 21
1979 93
1980 78
1981 40
1982 16
1983 67
1984 101
1985 33
1986 70
1987 31
1988 4
1989 88
1990 48
1991 69
1992 73
1993 4
1994 69
1995 76
1996 1
1997 13
1998 26
1999 21
2000 48
2001 8
2002 82
2003 23
2004 14
2005 41
2006 103
2007 3
2008 23
2009 81
2010 105
2011 40
2012 95
2013 108
2014 28
2015 46
2016 17
2017 91
2018 33
2019 75
2020 63
2021 107
2022 35
2023 20
2024 33
2025 22
2026 11
2027 36
2028 104
2029 29
2030 24
2031 15
2032 35
2033 95
2034 38
2035 94
2036 52
2037 17
2038 58
2039 1
2040 74
2041 8
2042 60
2043 82
2044 3
2045 27
2046 13
2047 57
2048 50
2049 91
2050 30
2051 54
2052 30
2053 69
2054 26
2055 9
2056 28
2057 81
2058 103
2059 47
2060 97
2061 114
2062 30
2063 95
2064 80
2065 47
2066 16
2067 12
2068 19
2069 49
2070 66
2071 49
2072 29
2073 96
2074 4
2075 19
2076 95
2077 71
2078 85
2079 47
2080 94
2081 78
2082 54
2083 35
2084 25
2085 100
2086 69
2087 56
2088 67
2089 22
2090 69
2091 1
2092 61
2093 78
2094 52
2095 10
2096 23
2097 58
2098 46
2099 35
2100 19
2101 78
2102 72
2103 50
2104 46
2105 28
2106 50
2107 35
2108 58
2109 47
2110 84
2111 7
2112 39
2113 70
2114 51
2115 100
2116 71
2117 71
2118 53
2119 1
2120 101
2121 32
2122 103
2123 82
2124 54
2125 0
2126 59
2127 91
2128 52
2129 4
2130 48
2131 43
2132 26
2133 80
2134 8
2135 50
2136 59
2137 30
2138 17
2139 50
2140 50
2141 25
2142 72
2143 73
2144 28
2145 78
2146 58
2147 21
2148 45
2149 41
2150 35
2151 107
2152 64
2153 9
2154 87
2155 88
2156 9
2157 31
2158 90
2159 94
2160 20
2161 106
2162 98
2163 44
2164 65
2165 43
2166 96
2167 47
2168 43
2169 103
2170 84
2171 1
2172 33
2173 53
2174 55
2175 94
2176 22
2177 30
2178 79
2179 100
2180 33
2181 23
2182 40
2183 68
2184 97
2185 23
2186 74
2187 27
2188 50
2189 25
2190 28
2191 83
2192 64
2193 14
2194 15
2195 7
2196 54
2197 2
2198 80
2199 25
2200 60
2201 14
2202 39
2203 5
2204 10
2205 62
2206 100
2207 96
2208 25
2209 31
2210 69
2211 38
2212 1
2213 36
2214 98
2215 102
2216 67
2217 4
2218 83
2219 37
2220 17
2221 99
2222 49
2223 100
2224 34
2225 14
2226 30
2227 102
2228 28
2229 14
2230 11
2231 2
2232 39
2233 53
2234 45
2235 66
2236 39
2237 65
2238 27
2239 5
2240 90
2241 43
2242 18
2243 41
2244 17
2245 29
2246 40
2247 4
2248 10
2249 27
2250 17
2251 79
2252 90
2253 23
2254 84
2255 61
2256 36
2257 7
2258 15
2259 82
2260 42
2261 80
2262 21
2263 10
2264 32
2265 60
2266 28
2267 17
2268 12
2269 52
2270 84
2271 108
2272 17
2273 19
2274 62
2275 61
2276 52
2277 105
2278 109
2279 46
2280 85
2281 47
2282 23
2283 96
2284 65
2285 20
2286 89
2287 82
2288 20
2289 49
2290 89
2291 69
2292 85
2293 31
2294 9
2295 93
2296 37
2297 52
2298 35
2299 28
2300 41
2301 79
2302 28
2303 28
2304 50
2305 45
2306 14
2307 23
2308 12
2309 52
2310 14
2311 18
2312 63
2313 77
2314 49
2315 59
2316 70
2317 29
2318 27
2319 26
2320 40
2321 94
2322 6
2323 48
2324 63
2325 5
2326 89
2327 79
2328 26
2329 0
2330 35
2331 82
2332 20
2333 48
2334 13
2335 9
2336 9
2337 46
2338 95
2339 51
2340 4
2341 40
2342 11
2343 61
2344 94
2345 42
2346 42
2347 84
2348 49
2349 64
2350 47
2351 81
2352 87
2353 88
2354 6
2355 52
2356 55
2357 70
2358 11
2359 52
2360 73
2361 93
2362 46
2363 3
2364 76
2365 28
2366 60
2367 62
2368 4
2369 77
2370 32
2371 9
2372 12
2373 70
2374 4
2375 29
2376 94
2377 12
2378 14
2379 108
2380 15
2381 50
2382 49
2383 9
2384 66
2385 66
2386 2
2387 92
2388 31
2389 83
2390 23
2391 16
2392 98
2393 84
2394 94
2395 28
2396 77
2397 61
2398 10
2399 1
2400 80
2401 36
2402 62
2403 89
2404 9
2405 26
2406 62
2407 61
2408 112
2409 100
2410 51
2411 3
2412 45
2413 87
2414 90
2415 50
2416 8
2417 57
2418 48
2419 85
2420 7
2421 31
2422 2
2423 88
2424 23
2425 9
2426 68
2427 59
2428 72
2429 31
2430 71
2431 33
2432 39
2433 77
2434 30
2435 67
2436 43
2437 11
2438 50
2439 94
2440 94
2441 26
2442 68
2443 80
2444 98
2445 53
2446 53
2447 68
2448 16
2449 33
2450 95
2451 61
2452 20
2453 66
2454 10
2455 85
2456 37
2457 93
2458 59
2459 53
2460 48
2461 97
2462 40
2463 107
2464 21
2465 98
2466 80
2467 44
2468 103
2469 52
2470 98
2471 1
2472 16
2473 51
2474 28
2475 42
2476 27
2477 5
2478 8
2479 98
2480 20
2481 48
2482 85
2483 72
2484 101
2485 36
2486 50
2487 43
2488 35
2489 3
2490 112
2491 33
2492 4
2493 1
2494 80
2495 50
2496 38
2497 58
2498 52
2499 29
2500 31
2501 19
2502 47
2503 24
2504 23
2505 38
2506 43
2507 14
2508 23
2509 43
2510 41
2511 31
2512 55
2513 87
2514 100
2515 83
2516 10
2517 39
2518 69
2519 81
2520 39
2521 77
2522 82
2523 41
2524 76
2525 84
2526 83
2527 38
2528 66
2529 10
2530 101
2531 100
2532 52
2533 45
2534 62
2535 14
2536 93
2537 10
2538 87
2539 35
2540 28
2541 109
2542 26
2543 85
2544 101
2545 31
2546 0
2547 92
2548 14
2549 58
2550 17
2551 65
2552 25
2553 83
2554 91
2555 34
2556 14
2557 85
2558 40
2559 103
2560 0
2561 13
2562 88
2563 17
2564 91
2565 3
2566 36
2567 41
2568 74
2569 69
2570 23
2571 43
2572 17
2573 105
2574 61
2575 10
2576 20
2577 48
2578 101
2579 97
2580 102
2581 46
2582 39
2583 88
2584 31
2585 53
2586 36
2587 19
2588 65
2589 51
2590 59
2591 64
2592 67
2593 61
2594 98
2595 50
2596 102
2597 92
2598 101
2599 95
2600 55
2601 33
2602 39
2603 92
2604 94
2605 49
2606 23
2607 24
2608 100
2609 39
2610 55
2611 5
2612 39
2613 8
2614 64
2615 61
2616 104
2617 61
2618 36
2619 93
2620 98
2621 36
2622 77
2623 72
2624 1
2625 3
2626 11
2627 83
2628 93
2629 8
2630 22
2631 100
2632 33
2633 93
2634 51
2635 60
2636 69
2637 74
2638 53
2639 23
2640 112
2641 15
2642 53
2643 66
2644 70
2645 60
2646 25
2647 49
2648 64
2649 61
2650 13
2651 81
2652 67
2653 13
2654 97
2655 2
2656 11
2657 38
2658 1
2659 102
2660 69
2661 25
2662 43
2663 18
2664 49
2665 74
2666 50
2667 16
2668 115
2669 98
2670 92
2671 64
2672 26
2673 95
2674 34
2675 102
2676 108
2677 89
2678 40
2679 16
2680 94
2681 92
2682 5
2683 112
2684 29
2685 69
2686 95
2687 45
2688 0
2689 39
2690 64
2691 35
2692 7
2693 40
2694 25
2695 59
2696 15
2697 15
2698 41
2699 11
2700 19
2701 1
2702 89
2703 15
2704 73
2705 30
2706 9
2707 51
2708 55
2709 60
2710 106
2711 8
2712 102
2713 103
2714 98
2715 34
2716 37
2717 72
2718 76
2719 59
2720 23
2721 41
2722 45
2723 19
2724 112
2725 100
2726 46
2727 94
2728 0
2729 74
2730 51
2731 61
2732 50
2733 32
2734 70
2735 16
2736 22
2737 69
2738 12
2739 36
2740 3
2741 50
2742 107
2743 106
2744 9
2745 56
2746 10
2747 91
2748 41
2749 105
2750 112
2751 81
2752 73
2753 94
2754 56
2755 107
2756 94
2757 77
2758 91
2759 88
2760 43
2761 9
2762 108
2763 4
2764 38
2765 1
2766 84
2767 39
2768 33
2769 67
2770 69
2771 77
2772 52
2773 95
2774 17
2775 23
2776 41
2777 66
2778 72
2779 61
2780 7
2781 49
2782 99
2783 50
2784 97
2785 61
2786 95
2787 40
2788 80
2789 5
2790 22
2791 47
2792 42
2793 38
2794 68
2795 15
2796 18
2797 69
2798 75
2799 18
2800 8
2801 33
2802 89
2803 14
2804 57
2805 23
2806 94
2807 109
2808 34
2809 46
2810 21
2811 38
2812 39
2813 67
2814 53
2815 69
2816 98
2817 7
2818 39
2819 51
2820 57
2821 106
2822 40
2823 88
2824 41
2825 112
2826 68
2827 20
2828 6
2829 95
2830 3
2831 96
2832 81
2833 17
2834 23
2835 58
2836 107
2837 48
2838 108
2839 4
2840 30
2841 41
2842 100
2843 54
2844 75
2845 14
2846 13
2847 19
2848 79
2849 52
2850 10
2851 50
2852 56
2853 82
2854 87
2855 10
2856 17
2857 76
2858 101
2859 77
2860 10
2861 61
2862 46
2863 52
2864 44
2865 18
2866 24
2867 84
2868 39
2869 26
2870 36
2871 112
2872 63
2873 13
2874 40
2875 31
2876 0
2877 67
2878 15
2879 71
2880 50
2881 39
2882 46
2883 94
2884 109
2885 17
2886 102
2887 44
2888 27
2889 59
2890 5
2891 61
2892 101
2893 7
2894 4
2895 33
2896 53
2897 67
2898 100
2899 33
2900 50
2901 12
2902 29
2903 70
2904 84
2905 20
2906 65
2907 52
2908 12
2909 18
2910 32
2911 87
2912 90
2913 40
2914 60
2915 35
2916 109
2917 77
2918 3
2919 9
2920 26
2921 101
2922 99
2923 71
2924 58
2925 66
2926 41
2927 7
2928 23
2929 69
2930 38
2931 90
2932 88
2933 10
2934 79
2935 6
2936 16
2937 101
2938 101
2939 84
2940 95
2941 26
2942 41
2943 97
2944 18
2945 53
2946 46
2947 100
2948 53
2949 77
2950 14
2951 3
2952 59
2953 68
2954 70
2955 49
2956 91
2957 116
2958 60
2959 0
2960 93
2961 68
2962 8
2963 75
2964 36
2965 58
2966 49
2967 57
2968 73
2969 103
2970 10
2971 48
2972 61
2973 79
2974 95
2975 9
2976 61
2977 112
2978 62
2979 61
2980 34
2981 66
2982 42
2983 50
2984 9
2985 50
2986 72
2987 50
2988 16
2989 27
2990 75
2991 28
2992 78
2993 48
2994 61
2995 108
2996 59
2997 69
2998 101
2999 3
3000 27
3001 66
3002 36
3003 38
3004 90
3005 3
3006 20
3007 76
3008 10
3009 81
3010 47
3011 31
3012 31
3013 30
3014 58
3015 75
3016 15
3017 35
3018 95
3019 3
3020 70
3021 21
3022 59
3023 10
3024 33
3025 15
3026 30
3027 58
3028 83
3029 82
3030 87
3031 49
3032 3
3033 39
3034 89
3035 21
3036 16
3037 38
3038 1
3039 40
3040 28
3041 117
3042 23
3043 10
3044 53
3045 35
3046 33
3047 67
3048 79
3049 58
3050 39
3051 43
3052 53
3053 71
3054 48
3055 41
3056 92
3057 10
3058 49
3059 18
3060 101
3061 26
3062 61
3063 42
3064 61
3065 40
3066 78
3067 25
3068 52
3069 43
3070 97
3071 31
3072 43
3073 52
3074 3
3075 71
3076 61
3077 38
3078 90
3079 85
3080 77
3081 50
3082 10
3083 53
3084 59
3085 107
3086 64
3087 39
3088 67
3089 26
3090 112
3091 48
3092 72
3093 23
3094 49
3095 118
3096 33
3097 13
3098 47
3099 103
3100 11
3101 31
3102 5
3103 26
3104 52
3105 14
3106 92
3107 98
3108 50
3109 48
3110 50
3111 39
3112 9
3113 100
3114 53
3115 40
3116 21
3117 47
3118 77
3119 68
3120 66
3121 66
3122 54
3123 36
3124 84
3125 65
3126 33
3127 31
3128 1
3129 87
3130 42
3131 11
3132 78
3133 65
3134 24
3135 97
3136 61
3137 70
3138 15
3139 80
3140 56
3141 16
3142 100
3143 47
3144 81
3145 22
3146 61
3147 72
3148 30
3149 119
3150 92
3151 29
3152 19
3153 7
3154 82
3155 51
3156 100
3157 61
3158 16
3159 31
3160 95
3161 32
3162 70
3163 89
3164 95
3165 71
3166 48
3167 1
3168 53
3169 58
3170 112
3171 52
3172 72
3173 64
3174 10
3175 11
3176 90
3177 2
3178 77
3179 74
3180 29
3181 29
3182 32
3183 66
3184 28
3185 83
3186 20
3187 100
3188 105
3189 13
3190 102
3191 62
3192 18
3193 101
3194 36
3195 8
3196 48
3197 100
3198 39
3199 23
3200 58
3201 46
3202 69
3203 25
3204 84
3205 19
3206 74
3207 27
3208 73
3209 70
3210 22
3211 23
3212 67
3213 10
3214 109
3215 13
3216 88
3217 6
3218 62
3219 18
3220 48
3221 38
3222 12
3223 58
3224 27
3225 84
3226 72
3227 23
3228 64
3229 3
3230 97
3231 88
3232 18
3233 75
3234 8
3235 51
3236 88
3237 102
3238 81
3239 101
3240 28
3241 28
3242 101
3243 98
3244 75
3245 5
3246 94
3247 59
3248 44
3249 33
3250 98
3251 34
3252 5
3253 88
3254 61
3255 27
3256 38
3257 0
3258 53
3259 51
3260 25
3261 40
3262 101
3263 26
3264 85
3265 2
3266 46
3267 52
3268 13
3269 8
3270 102
3271 60
3272 31
3273 5
3274 53
3275 53
3276 66
3277 47
3278 69
3279 64
3280 69
3281 101
3282 16
3283 47
3284 62
3285 83
3286 28
3287 39
3288 50
3289 8
3290 36
3291 90
3292 94
3293 10
3294 101
3295 105
3296 104
3297 10
3298 82
3299 71
3300 38
3301 52
3302 65
3303 19
3304 5
3305 44
3306 28
3307 15
3308 74
3309 1
3310 79
3311 84
3312 5
3313 71
3314 31
3315 23
3316 42
3317 95
3318 32
3319 61
3320 90
3321 46
3322 49
3323 65
3324 48
3325 3
3326 22
3327 49
3328 39
3329 28
3330 52
3331 1
3332 6
3333 99
3334 26
3335 40
3336 88
3337 66
3338 44
3339 10
3340 99
3341 10
3342 18
3343 103
3344 84
3345 20
3346 105
3347 39
3348 31
3349 40
3350 98
3351 25
3352 84
3353 94
3354 43
3355 16
3356 49
3357 71
3358 94
3359 5
3360 5
3361 29
3362 98
3363 55
3364 50
3365 12
3366 10
3367 16
3368 14
3369 41
3370 4
3371 98
3372 66
3373 55
3374 3
3375 112
3376 22
3377 41
3378 70
3379 54
3380 52
3381 83
3382 69
3383 54
3384 14
3385 22
3386 10
3387 16
3388 91
3389 15
3390 76
3391 60
3392 54
3393 48
3394 90
3395 84
3396 103
3397 27
3398 64
3399 2
3400 18
3401 102
3402 11
3403 22
3404 29
3405 43
3406 58
3407 73
3408 28
3409 69
3410 9
3411 19
3412 77
3413 66
3414 27
3415 103
3416 66
3417 20
3418 14
3419 34
3420 26
3421 104
3422 40
3423 68
3424 72
3425 52
3426 48
3427 48
3428 84
3429 106
3430 15
3431 27
3432 80
3433 43
3434 101
3435 47
3436 5
3437 100
3438 43
3439 59
3440 27
3441 72
3442 28
3443 0
3444 66
3445 8
3446 31
3447 27
3448 76
3449 17
3450 12
3451 47
3452 76
3453 60
3454 41
3455 14
3456 18
3457 19
3458 53
3459 23
3460 80
3461 101
3462 6
3463 76
3464 35
3465 61
3466 48
3467 52
3468 7
3469 79
3470 29
3471 80
3472 73
3473 97
3474 58
3475 3
3476 100
3477 79
3478 100
3479 80
3480 92
3481 46
3482 71
3483 46
3484 25
3485 6
3486 37
3487 10
3488 12
3489 4
3490 91
3491 49
3492 71
3493 42
3494 78
3495 68
3496 9
3497 105
3498 14
3499 35
3500 98
3501 58
3502 92
3503 54
3504 106
3505 27
3506 91
3507 87
3508 82
3509 55
3510 64
3511 71
3512 12
3513 28
3514 48
3515 0
3516 68
3517 66
3518 48
3519 94
3520 57
3521 73
3522 6
3523 72
3524 0
3525 100
3526 41
3527 91
3528 77
3529 53
3530 94
3531 77
3532 36
3533 58
3534 88
3535 72
3536 102
3537 52
3538 10
3539 108
3540 98
3541 22
3542 41
3543 5
3544 52
3545 71
3546 56
3547 72
3548 60
3549 3
3550 96
3551 26
3552 75
3553 52
3554 49
3555 7
3556 20
3557 6
3558 103
3559 27
3560 89
3561 4
3562 52
3563 75
3564 37
3565 18
3566 23
3567 12
3568 27
3569 47
3570 96
3571 35
3572 3
3573 103
3574 109
3575 3
3576 54
3577 104
3578 106
3579 41
3580 45
3581 23
3582 52
3583 15
3584 98
3585 52
3586 8
3587 3
3588 28
3589 1
3590 61
3591 40
3592 19
3593 94
3594 36
3595 99
3596 19
3597 47
3598 39
3599 99
3600 5
3601 7
3602 95
3603 46
3604 71
3605 36
3606 24
3607 74
3608 85
3609 11
3610 75
3611 28
3612 77
3613 97
3614 98
3615 23
3616 36
3617 35
3618 85
3619 38
3620 95
3621 47
3622 75
3623 47
3624 14
3625 70
3626 30
3627 75
3628 63
3629 55
3630 100
3631 9
3632 103
3633 34
3634 19
3635 54
3636 55
3637 11
3638 101
3639 55
3640 46
3641 33
3642 99
3643 35
3644 10
3645 62
3646 99
3647 95
3648 54
3649 75
3650 77
3651 11
3652 53
3653 53
3654 22
3655 81
3656 31
3657 41
3658 53
3659 79
3660 43
3661 31
3662 16
3663 1
3664 11
3665 63
3666 21
3667 5
3668 32
3669 38
3670 36
3671 29
3672 40
3673 73
3674 36
3675 24
3676 7
3677 44
3678 52
3679 83
3680 23
3681 6
3682 50
3683 94
3684 69
3685 4
3686 90
3687 77
3688 66
3689 76
3690 84
3691 9
3692 48
3693 50
3694 11
3695 101
3696 91
3697 59
3698 66
3699 14
3700 60
3701 58
3702 17
3703 33
3704 101
3705 74
3706 11
3707 89
3708 53
3709 69
3710 46
3711 38
3712 69
3713 72
3714 47
3715 25
3716 77
3717 5
3718 0
3719 36
3720 39
3721 98
3722 78
3723 58
3724 4
3725 101
3726 38
3727 72
3728 107
3729 50
3730 57
3731 77
3732 82
3733 66
3734 28
3735 47
3736 102
3737 33
3738 77
3739 18
3740 10
3741 24
3742 26
3743 108
3744 84
3745 68
3746 16
3747 23
3748 96
3749 31
3750 44
3751 60
3752 26
3753 0
3754 95
3755 112
3756 48
3757 39
3758 2
3759 35
3760 9
3761 25
3762 24
3763 74
3764 5
3765 59
3766 58
3767 50
3768 64
3769 105
3770 38
3771 11
3772 66
3773 38
3774 108
3775 26
3776 42
3777 52
3778 103
3779 39
3780 31
3781 90
3782 48
3783 35
3784 92
3785 33
3786 72
3787 28
3788 12
3789 1
3790 45
3791 84
3792 15
3793 7
3794 3
3795 19
3796 42
3797 63
3798 49
3799 89
3800 84
3801 106
3802 28
3803 20
3804 31
3805 44
3806 26
3807 108
3808 1
3809 120
3810 65
3811 87
3812 28
3813 14
3814 9
3815 71
3816 109
3817 63
3818 9
3819 1
3820 49
3821 36
3822 79
3823 92
3824 5
3825 58
3826 13
3827 100
3828 57
3829 66
3830 10
3831 8
3832 48
3833 69
3834 83
3835 73
3836 23
3837 13
3838 84
3839 6
3840 101
3841 23
3842 67
3843 101
3844 38
3845 103
3846 56
3847 6
3848 77
3849 80
3850 71
3851 73
3852 52
3853 50
3854 10
3855 69
3856 94
3857 74
3858 65
3859 78
3860 41
3861 55
3862 87
3863 10
3864 25
3865 35
3866 31
3867 5
3868 80
3869 28
3870 81
3871 109
3872 90
3873 52
3874 0
3875 77
3876 48
3877 34
3878 60
3879 49
3880 5
3881 26
3882 9
3883 17
3884 26
3885 112
3886 12
3887 42
3888 16
3889 39
3890 59
3891 92
3892 26
3893 52
3894 75
3895 20
3896 19
3897 5
3898 29
3899 22
3900 99
3901 77
3902 43
3903 103
3904 38
3905 70
3906 108
3907 10
3908 14
3909 66
3910 99
3911 60
3912 61
3913 53
3914 10
3915 20
3916 52
3917 80
3918 96
3919 105
3920 79
3921 47
3922 9
3923 108
3924 40
3925 52
3926 89
3927 47
3928 36
3929 4
3930 11
3931 19
3932 38
3933 47
3934 67
3935 45
3936 82
3937 5
3938 11
3939 49
3940 95
3941 38
3942 53
3943 52
3944 26
3945 15
3946 33
3947 26
3948 3
3949 19
3950 77
3951 84
3952 20
3953 29
3954 45
3955 13
3956 38
3957 3
3958 38
3959 4
3960 2
3961 78
3962 54
3963 39
3964 79
3965 51
3966 1
3967 20
3968 88
3969 50
3970 8
3971 10
3972 35
3973 34
3974 11
3975 91
3976 50
3977 48
3978 16
3979 47
3980 107
3981 18
3982 55
3983 69
3984 107
3985 59
3986 112
3987 54
3988 61
3989 95
3990 79
3991 100
3992 61
3993 68
3994 4
3995 20
3996 43
3997 84
3998 69
3999 32
4000 65
4001 2
4002 13
4003 53
4004 35
4005 12
4006 52
4007 91
4008 84
4009 65
4010 61
4011 75
4012 70
4013 10
4014 52
4015 17
4016 90
4017 52
4018 42
4019 52
4020 83
4021 100
4022 52
4023 73
4024 40
4025 48
4026 52
4027 10
4028 28
4029 70
4030 2
4031 31
4032 7
4033 77
4034 17
4035 14
4036 9
4037 34
4038 43
4039 35
4040 98
4041 4
4042 82
4043 20
4044 39
4045 23
4046 34
4047 39
4048 102
4049 98
4050 9
4051 64
4052 47
4053 100
4054 105
4055 28
4056 42
4057 56
4058 112
4059 55
4060 5
4061 27
4062 28
4063 38
4064 84
4065 83
4066 3
4067 33
4068 36
4069 72
4070 19
4071 78
4072 1
4073 54
4074 36
4075 26
4076 89
4077 96
4078 38
4079 71
4080 77
4081 22
4082 46
4083 83
4084 18
4085 81
4086 101
4087 93
4088 60
4089 47
4090 19
4091 14
4092 51
4093 53
4094 77
4095 49
4096 42
4097 50
4098 45
4099 101
4100 29
4101 109
4102 71
4103 94
4104 4
4105 105
4106 70
4107 64
4108 80
4109 59
4110 95
4111 16
4112 18
4113 89
4114 33
4115 98
4116 50
4117 64
4118 37
4119 35
4120 43
4121 43
4122 103
4123 29
4124 60
4125 15
4126 87
4127 65
4128 36
4129 35
4130 94
4131 91
4132 100
4133 43
4134 8
4135 91
4136 78
4137 3
4138 61
4139 19
4140 23
4141 23
4142 3
4143 46
4144 112
4145 61
4146 28
4147 8
4148 23
4149 93
4150 19
4151 53
4152 103
4153 73
4154 90
4155 13
4156 54
4157 4
4158 35
4159 4
4160 92
4161 22
4162 72
4163 1
4164 82
4165 55
4166 73
4167 15
4168 59
4169 105
4170 36
4171 106
4172 84
4173 12
4174 84
4175 50
4176 38
4177 41
4178 68
4179 44
4180 66
4181 5
4182 58
4183 17
4184 45
4185 55
4186 47
4187 58
4188 11
4189 79
4190 30
4191 94
4192 95
4193 55
4194 69
4195 49
4196 18
4197 21
4198 24
4199 14
4200 33
4201 70
4202 49
4203 39
4204 28
4205 10
4206 26
4207 101
4208 14
4209 34
4210 70
4211 66
4212 93
4213 66
4214 19
4215 82
4216 61
4217 85
4218 103
4219 3
4220 82
4221 21
4222 22
4223 40
4224 33
4225 40
4226 57
4227 52
4228 57
4229 5
4230 16
4231 55
4232 50
4233 0
4234 90
4235 88
4236 29
4237 43
4238 33
4239 36
4240 81
4241 10
4242 26
4243 101
4244 47
4245 94
4246 59
4247 90
4248 11
4249 19
4250 60
4251 23
4252 88
4253 77
4254 27
4255 90
4256 77
4257 8
4258 54
4259 2
4260 104
4261 15
4262 72
4263 63
4264 53
4265 65
4266 5
4267 22
4268 101
4269 45
4270 98
4271 40
4272 61
4273 38
4274 81
4275 40
4276 82
4277 101
4278 29
4279 2
4280 57
4281 38
4282 71
4283 82
4284 82
4285 61
4286 73
4287 75
4288 57
4289 21
4290 65
4291 68
4292 95
4293 3
4294 69
4295 48
4296 19
4297 11
4298 58
4299 29
4300 31
4301 19
4302 24
4303 5
4304 104
4305 59
4306 9
4307 82
4308 42
4309 66
4310 102
4311 25
4312 60
4313 5
4314 39
4315 3
4316 108
4317 65
4318 108
4319 46
4320 46
4321 95
4322 108
4323 84
4324 16
4325 79
4326 105
4327 26
4328 38
4329 3
4330 70
4331 35
4332 23
4333 53
4334 3
4335 79
4336 4
4337 28
4338 27
4339 42
4340 65
4341 57
4342 103
4343 53
4344 73
4345 5
4346 25
4347 18
4348 49
4349 23
4350 70
4351 48
4352 49
4353 69
4354 46
4355 83
4356 91
4357 2
4358 50
4359 68
4360 10
4361 87
4362 53
4363 99
4364 4
4365 56
4366 108
4367 48
4368 27
4369 27
4370 84
4371 99
4372 48
4373 46
4374 38
4375 88
4376 71
4377 98
4378 60
4379 66
4380 41
4381 78
4382 69
4383 20
4384 47
4385 23
4386 0
4387 75
4388 6
4389 54
4390 101
4391 11
4392 53
4393 54
4394 9
4395 14
4396 7
4397 52
4398 12
4399 78
4400 39
4401 121
4402 50
4403 38
4404 34
4405 31
4406 48
4407 53
4408 10
4409 61
4410 35
4411 18
4412 27
4413 90
4414 93
4415 3
4416 19
4417 34
4418 31
4419 71
4420 27
4421 57
4422 37
4423 70
4424 72
4425 65
4426 91
4427 90
4428 36
4429 10
4430 10
4431 4
4432 3
4433 82
4434 100
4435 39
4436 109
4437 93
4438 25
4439 35
4440 1
4441 44
4442 51
4443 52
4444 13
4445 71
4446 50
4447 9
4448 72
4449 84
4450 4
4451 47
4452 42
4453 70
4454 71
4455 58
4456 59
4457 63
4458 94
4459 26
4460 23
4461 36
4462 27
4463 25
4464 0
4465 51
4466 43
4467 10
4468 47
4469 81
4470 31
4471 28
4472 29
4473 33
4474 73
4475 78
4476 15
4477 41
4478 71
4479 36
4480 52
4481 53
4482 44
4483 98
4484 89
4485 66
4486 112
4487 21
4488 6
4489 56
4490 45
4491 48
4492 76
4493 92
4494 49
4495 45
4496 16
4497 1
4498 52
4499 69
4500 23
4501 73
4502 58
4503 1
4504 98
4505 47
4506 33
4507 20
4508 19
4509 10
4510 66
4511 68
4512 36
4513 61
4514 93
4515 40
4516 35
4517 16
4518 98
4519 72
4520 3
4521 53
4522 76
4523 82
4524 79
4525 97
4526 2
4527 66
4528 29
4529 27
4530 50
4531 65
4532 32
4533 2
4534 2
4535 52
4536 84
4537 0
4538 93
4539 95
4540 61
4541 47
4542 30
4543 58
4544 112
4545 32
4546 80
4547 44
4548 48
4549 112
4550 3
4551 5
4552 33
4553 28
4554 106
4555 62
4556 70
4557 75
4558 99
4559 44
4560 48
4561 53
4562 54
4563 98
4564 81
4565 10
4566 27
4567 19
4568 67
4569 68
4570 90
4571 27
4572 14
4573 61
4574 38
4575 49
4576 9
4577 15
4578 8
4579 9
4580 104
4581 105
4582 63
4583 49
4584 17
4585 43
4586 104
4587 89
4588 10
4589 87
4590 91
4591 10
4592 92
4593 83
4594 50
4595 4
4596 77
4597 91
4598 12
4599 21
4600 5
4601 50
4602 9
4603 17
4604 5
4605 89
4606 100
4607 87
4608 98
4609 22
4610 10
4611 66
4612 87
4613 101
4614 5
4615 36
4616 53
4617 23
4618 79
4619 47
4620 50
4621 11
4622 1
4623 90
4624 44
4625 34
4626 24
4627 9
4628 83
4629 81
4630 72
4631 7
4632 52
4633 47
4634 19
4635 100
4636 28
4637 59
4638 27
4639 65
4640 70
4641 68
4642 5
4643 101
4644 19
4645 63
4646 91
4647 98
4648 89
4649 3
4650 42
4651 73
4652 106
4653 51
4654 76
4655 69
4656 35
4657 72
4658 90
4659 1
4660 104
4661 72
4662 35
4663 11
4664 22
4665 71
4666 100
4667 5
4668 0
4669 42
4670 1
4671 57
4672 57
4673 49
4674 62
4675 82
4676 38
4677 34
4678 112
4679 59
4680 10
4681 37
4682 94
4683 65
4684 100
4685 1
4686 90
4687 35
4688 20
4689 62
4690 11
4691 60
4692 57
4693 50
4694 72
4695 50
4696 55
4697 17
4698 59
4699 36
4700 69
4701 38
4702 100
4703 57
4704 61
4705 112
4706 2
4707 46
4708 89
4709 1
4710 22
4711 66
4712 41
4713 69
4714 73
4715 36
4716 91
4717 55
4718 74
4719 10
4720 65
4721 37
4722 40
4723 15
4724 83
4725 18
4726 10
4727 4
4728 46
4729 42
4730 77
4731 49
4732 32
4733 45
4734 66
4735 4
4736 3
4737 45
4738 36
4739 53
4740 100
4741 68
4742 54
4743 28
4744 109
4745 61
4746 81
4747 1
4748 105
4749 99
4750 91
4751 65
4752 56
4753 69
4754 39
4755 56
4756 56
4757 100
4758 52
4759 67
4760 7
4761 15
4762 83
4763 93
4764 82
4765 55
4766 95
4767 100
4768 47
4769 9
4770 75
4771 74
4772 69
4773 48
4774 43
4775 76
4776 6
4777 95
4778 93
4779 92
4780 13
4781 107
4782 77
4783 99
4784 37
4785 24
4786 88
4787 11
4788 0
4789 39
4790 100
4791 78
4792 30
4793 84
4794 44
4795 69
4796 81
4797 65
4798 98
4799 68
4800 19
4801 28
4802 70
4803 60
4804 2
4805 3
4806 15
4807 14
4808 65
4809 10
4810 50
4811 108
4812 53
4813 60
4814 41
4815 22
4816 64
4817 22
4818 52
4819 100
4820 109
4821 85
4822 27
4823 70
4824 3
4825 77
4826 97
4827 53
4828 10
4829 48
4830 101
4831 70
4832 0
4833 53
4834 95
4835 1
4836 40
4837 70
4838 25
4839 10
4840 35
4841 5
4842 95
4843 10
4844 109
4845 42
4846 61
4847 26
4848 88
4849 15
4850 39
4851 1
4852 105
4853 52
4854 17
4855 70
4856 36
4857 40
4858 22
4859 80
4860 57
4861 43
4862 35
4863 95
4864 20
4865 5
4866 22
4867 78
4868 47
4869 54
4870 32
4871 112
4872 42
4873 80
4874 27
4875 72
4876 26
4877 57
4878 1
4879 37
4880 1
4881 4
4882 71
4883 98
4884 28
4885 62
4886 5
4887 16
4888 10
4889 5
4890 41
4891 91
4892 33
4893 96
4894 70
4895 80
4896 84
4897 53
4898 17
4899 69
4900 47
4901 49
4902 35
4903 63
4904 92
4905 43
4906 53
4907 17
4908 84
4909 95
4910 2
4911 34
4912 45
4913 32
4914 23
4915 57
4916 107
4917 99
4918 39
4919 48
4920 82
4921 68
4922 90
4923 7
4924 63
4925 50
4926 41
4927 0
4928 56
4929 79
4930 98
4931 84
4932 51
4933 7
4934 60
4935 3
4936 88
4937 79
4938 46
4939 27
4940 14
4941 88
4942 105
4943 103
4944 69
4945 6
4946 16
4947 42
4948 48
4949 107
4950 40
4951 6
4952 28
4953 8
4954 40
4955 26
4956 28
4957 36
4958 67
4959 35
4960 85
4961 88
4962 99
4963 17
4964 22
4965 66
4966 80
4967 59
4968 14
4969 40
4970 56
4971 104
4972 108
4973 35
4974 82
4975 103
4976 52
4977 52
4978 80
4979 4
4980 89
4981 49
4982 2
4983 63
4984 0
4985 17
4986 28
4987 51
4988 15
4989 8
4990 7
4991 8
4992 48
4993 46
4994 19
4995 45
4996 93
4997 49
4998 77
4999 28
5000 48
5001 101
5002 7
5003 13
5004 52
5005 48
5006 7
5007 17
5008 45
5009 10
5010 30
5011 91
5012 28
5013 57
5014 112
5015 59
5016 38
5017 30
5018 88
5019 26
5020 28
5021 68
5022 11
5023 15
5024 51
5025 61
5026 69
5027 52
5028 122
5029 20
5030 66
5031 36
5032 70
5033 36
5034 91
5035 44
5036 32
5037 91
5038 45
5039 52
5040 5
5041 26
5042 45
5043 61
5044 14
5045 33
5046 3
5047 28
5048 52
5049 60
5050 55
5051 12
5052 22
5053 100
5054 66
5055 40
5056 92
5057 5
5058 1
5059 29
5060 1
5061 33
5062 36
5063 108
5064 65
5065 40
5066 68
5067 6
5068 101
5069 45
5070 3
5071 75
5072 46
5073 58
5074 78
5075 60
5076 10
5077 41
5078 34
5079 20
5080 45
5081 32
5082 71
5083 59
5084 97
5085 100
5086 17
5087 30
5088 74
5089 14
5090 5
5091 36
5092 8
5093 85
5094 68
5095 14
5096 81
5097 54
5098 7
5099 47
5100 39
5101 72
5102 70
5103 35
5104 101
5105 89
5106 23
5107 93
5108 41
5109 26
5110 66
5111 29
5112 100
5113 67
5114 56
5115 33
5116 73
5117 37
5118 71
5119 5
5120 5
5121 14
5122 59
5123 52
5124 98
5125 47
5126 53
5127 76
5128 1
5129 81
5130 83
5131 29
5132 9
5133 70
5134 31
5135 66
5136 45
5137 71
5138 12
5139 14
5140 79
5141 83
5142 57
5143 74
5144 53
5145 67
5146 0
5147 103
5148 65
5149 76
5150 82
5151 52
5152 71
5153 74
5154 14
5155 29
5156 48
5157 103
5158 76
5159 0
5160 52
5161 112
5162 12
5163 5
5164 87
5165 95
5166 96
5167 46
5168 10
5169 20
5170 66
5171 42
5172 7
5173 75
5174 21
5175 4
5176 49
5177 85
5178 63
5179 38
5180 83
5181 36
5182 88
5183 4
5184 5
5185 11
5186 18
5187 109
5188 80
5189 46
5190 87
5191 89
5192 79
5193 37
5194 22
5195 26
5196 80
5197 38
5198 88
5199 78
5200 50
5201 51
5202 105
5203 54
5204 7
5205 41
5206 94
5207 75
5208 38
5209 8
5210 46
5211 11
5212 18
5213 17
5214 22
5215 49
5216 73
5217 40
5218 48
5219 31
5220 0
5221 12
5222 52
5223 69
5224 48
5225 59
5226 26
5227 37
5228 59
5229 101
5230 94
5231 29
5232 6
5233 11
5234 49
5235 32
5236 31
5237 83
5238 55
5239 48
5240 46
5241 89
5242 30
5243 5
5244 27
5245 48
5246 74
5247 48
5248 60
5249 27
5250 16
5251 91
5252 83
5253 66
5254 4
5255 72
5256 123
5257 10
5258 38
5259 9
5260 34
5261 9
5262 72
5263 70
5264 42
5265 61
5266 59
5267 95
5268 101
5269 38
5270 15
5271 14
5272 75
5273 16
5274 22
5275 69
5276 2
5277 53
5278 101
5279 124
5280 97
5281 6
5282 36
5283 73
5284 53
5285 36
5286 14
5287 98
5288 21
5289 52
5290 43
5291 22
5292 22
5293 67
5294 77
5295 15
5296 15
5297 50
5298 78
5299 98
5300 11
5301 52
5302 5
5303 100
5304 98
5305 84
5306 38
5307 37
5308 19
5309 26
5310 35
5311 61
5312 22
5313 4
5314 73
5315 103
5316 84
5317 1
5318 33
5319 12
5320 94
5321 12
5322 18
5323 39
5324 73
5325 102
5326 94
5327 59
5328 73
5329 4
5330 78
5331 10
5332 18
5333 47
5334 67
5335 27
5336 68
5337 29
5338 92
5339 12
5340 13
5341 28
5342 90
5343 81
5344 60
5345 74
5346 80
5347 81
5348 22
5349 66
5350 66
5351 22
5352 95
5353 22
5354 9
5355 99
5356 91
5357 100
5358 90
5359 11
5360 101
5361 7
5362 19
5363 28
5364 17
5365 66
5366 76
5367 103
5368 72
5369 5
5370 66
5371 46
5372 66
5373 79
5374 72
5375 52
5376 38
5377 68
5378 65
5379 6
5380 45
5381 108
5382 84
5383 0
5384 81
5385 91
5386 59
5387 14
5388 75
5389 18
5390 18
5391 31
5392 42
5393 30
5394 68
5395 31
5396 50
5397 46
5398 106
5399 71
5400 4
5401 80
5402 65
5403 15
5404 79
5405 89
5406 104
5407 66
5408 70
5409 84
5410 52
5411 56
5412 7
5413 74
5414 60
5415 9
5416 71
5417 89
5418 46
5419 66
5420 60
5421 103
5422 5
5423 14
5424 48
5425 97
5426 94
5427 52
5428 85
5429 46
5430 77
5431 27
5432 59
5433 37
5434 94
5435 90
5436 38
5437 48
5438 68
5439 11
5440 61
5441 61
5442 64
5443 91
5444 108
5445 11
5446 28
5447 17
5448 43
5449 63
5450 103
5451 50
5452 63
5453 53
5454 43
5455 35
5456 84
5457 80
5458 106
5459 24
5460 24
5461 74
5462 3
5463 109
5464 16
5465 18
5466 57
5467 59
5468 2
5469 9
5470 72
5471 7
5472 97
5473 44
5474 71
5475 43
5476 68
5477 39
5478 16
5479 79
5480 4
5481 98
5482 28
5483 106
5484 84
5485 93
5486 3
5487 89
5488 15
5489 38
5490 12
5491 46
5492 79
5493 90
5494 97
5495 98
5496 10
5497 52
5498 60
5499 1
5500 73
5501 96
5502 10
5503 48
5504 125
5505 62
5506 70
5507 43
5508 1
5509 24
5510 25
5511 65
5512 10
5513 17
5514 9
5515 15
5516 71
5517 54
5518 46
5519 3
5520 6
5521 39
5522 53
5523 5
5524 85
5525 58
5526 37
5527 71
5528 66
5529 50
5530 4
5531 72
5532 103
5533 79
5534 89
5535 44
5536 46
5537 20
5538 77
5539 83
5540 41
5541 42
5542 22
5543 43
5544 92
5545 92
5546 88
5547 72
5548 89
5549 4
5550 68
5551 13
5552 68
5553 6
5554 1
5555 38
5556 69
5557 71
5558 83
5559 107
5560 49
5561 70
5562 40
5563 67
5564 6
5565 1
5566 87
5567 112
5568 67
5569 52
5570 38
5571 70
5572 4
5573 101
5574 21
5575 31
5576 106
5577 59
5578 23
5579 81
5580 91
5581 25
5582 61
5583 38
5584 101
5585 67
5586 39
5587 6
5588 44
5589 33
5590 58
5591 83
5592 27
5593 72
5594 44
5595 52
5596 57
5597 26
5598 71
5599 54
5600 50
5601 43
5602 68
5603 61
5604 51
5605 54
5606 10
5607 19
5608 97
5609 24
5610 49
5611 4
5612 65
5613 66
5614 84
5615 62
5616 42
5617 25
5618 70
5619 87
5620 10
5621 45
5622 75
5623 90
5624 92
5625 56
5626 101
5627 51
5628 92
5629 0
5630 57
5631 4
5632 90
5633 77
5634 9
5635 112
5636 74
5637 10
5638 41
5639 56
5640 8
5641 14
5642 9
5643 112
5644 69
5645 90
5646 56
5647 82
5648 24
5649 66
5650 65
5651 72
5652 50
5653 1
5654 12
5655 40
5656 52
5657 106
5658 39
5659 54
5660 70
5661 67
5662 69
5663 106
5664 8
5665 18
5666 56
5667 101
5668 33
5669 36
5670 49
5671 109
5672 89
5673 26
5674 79
5675 93
5676 59
5677 78
5678 91
5679 82
5680 64
5681 54
5682 105
5683 44
5684 81
5685 70
5686 98
5687 37
5688 60
5689 23
5690 81
5691 72
5692 8
5693 84
5694 99
5695 8
5696 20
5697 83
5698 51
5699 9
5700 72
5701 78
5702 100
5703 39
5704 85
5705 7
5706 16
5707 74
5708 66
5709 67
5710 33
5711 31
5712 78
5713 37
5714 100
5715 66
5716 91
5717 10
5718 78
5719 100
5720 70
5721 72
5722 72
5723 84
5724 97
5725 15
5726 16
5727 14
5728 65
5729 62
5730 71
5731 33
5732 17
5733 59
5734 37
5735 42
5736 27
5737 23
5738 82
5739 56
5740 61
5741 93
5742 101
5743 93
5744 70
5745 18
5746 11
5747 87
5748 58
5749 30
5750 56
5751 101
5752 76
5753 84
5754 4
5755 52
5756 26
5757 36
5758 36
5759 77
5760 14
5761 12
5762 7
5763 101
5764 24
5765 59
5766 29
5767 67
5768 53
5769 72
5770 98
5771 75
5772 46
5773 77
5774 42
5775 19
5776 105
5777 36
5778 61
5779 28
5780 71
5781 21
5782 35
5783 23
5784 68
5785 23
5786 15
5787 19
5788 38
5789 31
5790 77
5791 55
5792 91
5793 94
5794 31
5795 14
5796 14
5797 4
5798 92
5799 83
5800 23
5801 90
5802 40
5803 42
5804 14
5805 17
5806 35
5807 46
5808 62
5809 5
5810 11
5811 47
5812 60
5813 21
5814 69
5815 38
5816 84
5817 10
5818 91
5819 36
5820 43
5821 9
5822 16
5823 15
5824 3
5825 26
5826 39
5827 9
5828 5
5829 56
5830 28
5831 46
5832 20
5833 61
5834 74
5835 36
5836 32
5837 14
5838 41
5839 59
5840 25
5841 34
5842 49
5843 23
5844 16
5845 9
5846 74
5847 52
5848 105
5849 9
5850 75
5851 83
5852 95
5853 3
5854 52
5855 100
5856 27
5857 99
5858 32
5859 28
5860 27
5861 21
5862 61
5863 7
5864 89
5865 39
5866 90
5867 21
5868 19
5869 46
5870 53
5871 3
5872 17
5873 90
5874 63
5875 49
5876 62
5877 65
5878 22
5879 47
5880 69
5881 0
5882 91
5883 64
5884 33
5885 101
5886 36
5887 26
5888 0
5889 57
5890 4
5891 109
5892 22
5893 52
5894 27
5895 5
5896 79
5897 65
5898 28
5899 5
5900 1
5901 0
5902 14
5903 98
5904 35
5905 80
5906 55
5907 94
5908 52
5909 98
5910 91
5911 20
5912 55
5913 49
5914 31
5915 50
5916 52
5917 16
5918 88
5919 71
5920 47
5921 70
5922 9
5923 53
5924 91
5925 56
5926 17
5927 107
5928 78
5929 88
5930 69
5931 10
5932 5
5933 95
5934 18
5935 60
5936 49
5937 53
5938 0
5939 91
5940 64
5941 28
5942 30
5943 29
5944 4
5945 40
5946 78
5947 38
5948 8
5949 109
5950 1
5951 7
5952 1
5953 52
5954 33
5955 45
5956 54
5957 38
5958 5
5959 52
5960 76
5961 41
5962 29
5963 61
5964 30
5965 91
5966 5
5967 66
5968 76
5969 41
5970 90
5971 7
5972 79
5973 94
5974 17
5975 31
5976 5
5977 50
5978 23
5979 27
5980 103
5981 18
5982 42
5983 79
5984 32
5985 7
5986 61
5987 10
5988 10
5989 47
5990 27
5991 7
5992 91
5993 84
5994 49
5995 52
5996 42
5997 14
5998 75
5999 52
6000 95
6001 57
6002 52
6003 62
6004 20
6005 4
6006 60
6007 47
6008 3
6009 74
6010 48
6011 84
6012 23
6013 89
6014 17
6015 23
6016 58
6017 75
6018 49
6019 66
6020 27
6021 80
6022 75
6023 38
6024 90
6025 38
6026 65
6027 10
6028 77
6029 98
6030 20
6031 81
6032 26
6033 49
6034 4
6035 112
6036 65
6037 98
6038 109
6039 73
6040 38
6041 12
6042 77
6043 73
6044 35
6045 44
6046 107
6047 90
6048 37
6049 79
6050 71
6051 67
6052 112
6053 15
6054 69
6055 14
6056 10
6057 14
6058 29
6059 5
6060 39
6061 66
6062 5
6063 106
6064 66
6065 54
6066 30
6067 57
6068 112
6069 82
6070 60
6071 57
6072 52
6073 28
6074 47
6075 38
6076 59
6077 107
6078 91
6079 39
6080 1
6081 52
6082 109
6083 19
6084 84
6085 84
6086 71
6087 101
6088 41
6089 15
6090 61
6091 66
6092 36
6093 52
6094 90
6095 41
6096 68
6097 51
6098 11
6099 5
6100 87
6101 72
6102 38
6103 59
6104 74
6105 62
6106 67
6107 66
6108 105
6109 77
6110 78
6111 51
6112 23
6113 98
6114 33
6115 94
6116 53
6117 20
6118 47
6119 102
6120 25
6121 57
6122 76
6123 8
6124 98
6125 68
6126 37
6127 88
6128 36
6129 20
6130 35
6131 89
6132 36
6133 27
6134 45
6135 14
6136 17
6137 10
6138 39
6139 82
6140 72
6141 81
6142 100
6143 22
6144 61
6145 30
6146 8
6147 4
6148 24
6149 50
6150 63
6151 88
6152 75
6153 25
6154 62
6155 107
6156 100
6157 101
6158 36
6159 98
6160 17
6161 72
6162 103
6163 1
6164 80
6165 50
6166 18
6167 34
6168 7
6169 77
6170 29
6171 44
6172 23
6173 0
6174 50
6175 34
6176 5
6177 70
6178 31
6179 57
6180 10
6181 73
6182 57
6183 41
6184 51
6185 95
6186 25
6187 109
6188 90
6189 5
6190 18
6191 88
6192 4
6193 31
6194 70
6195 46
6196 33
6197 46
6198 94
6199 34
6200 1
6201 23
6202 61
6203 71
6204 26
6205 27
6206 21
6207 68
6208 20
6209 77
6210 90
6211 36
6212 55
6213 14
6214 24
6215 112
6216 57
6217 98
6218 38
6219 5
6220 52
6221 66
6222 71
6223 70
6224 45
6225 39
6226 27
6227 15
6228 12
6229 77
6230 44
6231 0
6232 66
6233 94
6234 98
6235 19
6236 95
6237 2
6238 87
6239 44
6240 108
6241 84
6242 50
6243 82
6244 31
6245 30
6246 18
6247 69
6248 6
6249 91
6250 49
6251 89
6252 60
6253 36
6254 1
6255 84
6256 13
6257 11
6258 79
6259 53
6260 40
6261 80
6262 54
6263 30
6264 106
6265 53
6266 90
6267 10
6268 7
6269 32
6270 42
6271 82
6272 84
6273 68
6274 99
6275 69
6276 11
6277 52
6278 74
6279 31
6280 1
6281 0
6282 100
6283 101
6284 59
6285 71
6286 19
6287 25
6288 17
6289 4
6290 52
6291 88
6292 61
6293 65
6294 25
6295 3
6296 59
6297 43
6298 49
6299 93
6300 30
6301 51
6302 43
6303 24
6304 94
6305 11
6306 3
6307 79
6308 11
6309 48
6310 50
6311 6
6312 25
6313 21
6314 4
6315 106
6316 25
6317 49
6318 56
6319 3
6320 63
6321 18
6322 37
6323 72
6324 52
6325 12
6326 47
6327 0
6328 64
6329 126
6330 10
6331 94
6332 1
6333 14
6334 97
6335 91
6336 98
6337 1
6338 48
6339 87
6340 34
6341 81
6342 72
6343 50
6344 1
6345 98
6346 78
6347 30
6348 46
6349 93
6350 96
6351 31
6352 14
6353 15
6354 61
6355 18
6356 26
6357 15
6358 47
6359 97
6360 53
6361 19
6362 47
6363 89
6364 4
6365 52
6366 28
6367 72
6368 14
6369 4
6370 11
6371 20
6372 92
6373 52
6374 100
6375 99
6376 101
6377 44
6378 20
6379 98
6380 94
6381 15
6382 90
6383 2
6384 33
6385 44
6386 57
6387 52
6388 84
6389 10
6390 90
6391 66
6392 83
6393 84
6394 99
6395 60
6396 61
6397 29
6398 28
6399 78
6400 20
6401 70
6402 90
6403 105
6404 83
6405 107
6406 23
6407 50
6408 101
6409 44
6410 36
6411 15
6412 6
6413 17
6414 59
6415 16
6416 48
6417 9
6418 15
6419 5
6420 47
6421 3
6422 89
6423 23
6424 46
6425 10
6426 52
6427 8
6428 61
6429 37
6430 15
6431 36
6432 97
6433 30
6434 77
6435 61
6436 41
6437 67
6438 73
6439 88
6440 71
6441 12
6442 96
6443 15
6444 49
6445 64
6446 16
6447 49
6448 70
6449 5
6450 50
6451 105
6452 52
6453 11
6454 106
6455 29
6456 48
6457 77
6458 52
6459 27
6460 34
6461 30
6462 104
6463 31
6464 50
6465 75
6466 14
6467 50
6468 84
6469 48
6470 20
6471 51
6472 43
6473 68
6474 48
6475 88
6476 96
6477 7
6478 4
6479 29
6480 53
6481 3
6482 19
6483 53
6484 64
6485 16
6486 79
6487 51
6488 27
6489 16
6490 78
6491 66
6492 35
6493 18
6494 44
6495 77
6496 109
6497 95
6498 36
6499 98
6500 7
6501 51
6502 105
6503 112
6504 0
6505 99
6506 5
6507 5
6508 53
6509 87
6510 20
6511 97
6512 92
6513 41
6514 18
6515 19
6516 82
6517 65
6518 44
6519 57
6520 17
6521 57
6522 14
6523 28
6524 10
6525 1
6526 39
6527 10
6528 101
6529 43
6530 0
6531 90
6532 56
6533 27
6534 81
6535 50
6536 10
6537 105
6538 52
6539 45
6540 96
6541 90
6542 105
6543 78
6544 81
6545 90
6546 69
6547 15
6548 92
6549 61
6550 68
6551 32
6552 44
6553 44
6554 1
6555 112
6556 70
6557 109
6558 106
6559 60
6560 43
6561 32
6562 5
6563 66
6564 7
6565 12
6566 16
6567 26
6568 79
6569 84
6570 35
6571 43
6572 38
6573 3
6574 14
6575 50
6576 55
6577 26
6578 101
6579 94
6580 48
6581 78
6582 38
6583 17
6584 32
6585 51
6586 46
6587 9
6588 41
6589 12
6590 73
6591 10
6592 61
6593 8
6594 10
6595 20
6596 8
6597 6
6598 100
6599 21
6600 74
6601 11
6602 95
6603 109
6604 82
6605 26
6606 58
6607 38
6608 56
6609 38
6610 12
6611 95
6612 35
6613 91
6614 41
6615 9
6616 75
6617 33
6618 49
6619 109
6620 27
6621 88
6622 8
6623 59
6624 103
6625 17
6626 36
6627 68
6628 68
6629 60
6630 30
6631 14
6632 65
6633 27
6634 10
6635 10
6636 22
6637 20
6638 91
6639 4
6640 41
6641 71
6642 61
6643 75
6644 84
6645 79
6646 24
6647 57
6648 107
6649 65
6650 38
6651 94
6652 26
6653 52
6654 57
6655 23
6656 54
6657 0
6658 32
6659 84
6660 20
6661 26
6662 95
6663 94
6664 21
6665 43
6666 103
6667 75
6668 84
6669 72
6670 18
6671 74
6672 65
6673 88
6674 108
6675 40
6676 8
6677 81
6678 43
6679 50
6680 16
6681 68
6682 8
6683 92
6684 19
6685 53
6686 54
6687 61
6688 108
6689 80
6690 50
6691 49
6692 45
6693 91
6694 37
6695 38
6696 44
6697 43
6698 9
6699 64
6700 44
6701 59
6702 40
6703 5
6704 3
6705 23
6706 85
6707 39
6708 71
6709 41
6710 3
6711 95
6712 103
6713 19
6714 84
6715 1
6716 47
6717 55
6718 10
6719 23
6720 10
6721 66
6722 80
6723 95
6724 62
6725 32
6726 26
6727 19
6728 90
6729 51
6730 40
6731 22
6732 24
6733 82
6734 8
6735 79
6736 58
6737 66
6738 9
6739 77
6740 19
6741 109
6742 10
6743 103
6744 15
6745 54
6746 16
6747 4
6748 26
6749 61
6750 74
6751 69
6752 47
6753 104
6754 52
6755 107
6756 45
6757 14
6758 4
6759 13
6760 53
6761 66
6762 17
6763 100
6764 42
6765 97
6766 71
6767 105
6768 96
6769 109
6770 21
6771 49
6772 78
6773 59
6774 69
6775 55
6776 60
6777 57
6778 81
6779 60
6780 54
6781 59
6782 17
6783 82
6784 84
6785 53
6786 61
6787 30
6788 99
6789 102
6790 3
6791 28
6792 63
6793 60
6794 38
6795 27
6796 56
6797 92
6798 23
6799 26
6800 48
6801 25
6802 17
6803 44
6804 57
6805 18
6806 45
6807 66
6808 37
6809 112
6810 3
6811 66
6812 71
6813 14
6814 4
6815 49
6816 6
6817 59
6818 50
6819 52
6820 112
6821 5
6822 36
6823 52
6824 48
6825 52
6826 28
6827 71
6828 78
6829 12
6830 55
6831 98
6832 17
6833 96
6834 18
6835 74
6836 10
6837 18
6838 35
6839 33
6840 9
6841 30
6842 53
6843 79
6844 74
6845 27
6846 34
6847 40
6848 4
6849 59
6850 100
6851 40
6852 64
6853 9
6854 45
6855 21
6856 34
6857 62
6858 77
6859 40
6860 77
6861 80
6862 28
6863 53
6864 52
6865 28
6866 1
6867 53
6868 29
6869 41
6870 36
6871 82
6872 31
6873 97
6874 71
6875 70
6876 9
6877 69
6878 59
6879 51
6880 104
6881 69
6882 28
6883 66
6884 57
6885 17
6886 78
6887 47
6888 91
6889 69
6890 40
6891 19
6892 94
6893 71
6894 59
6895 105
6896 83
6897 92
6898 71
6899 105
6900 12
6901 3
6902 44
6903 11
6904 10
6905 49
6906 11
6907 78
6908 94
6909 101
6910 9
6911 52
6912 77
6913 84
6914 108
6915 13
6916 23
6917 96
6918 39
6919 97
6920 78
6921 106
6922 2
6923 27
6924 14
6925 43
6926 17
6927 77
6928 53
6929 98
6930 40
6931 51
6932 75
6933 82
6934 70
6935 33
6936 19
6937 78
6938 50
6939 94
6940 36
6941 83
6942 47
6943 51
6944 57
6945 96
6946 30
6947 72
6948 24
6949 0
6950 95
6951 28
6952 127
6953 36
6954 41
6955 10
6956 19
6957 90
6958 41
6959 60
6960 23
6961 20
6962 54
6963 101
6964 47
6965 48
6966 65
6967 56
6968 19
6969 9
6970 17
6971 10
6972 95
6973 80
6974 32
6975 83
6976 36
6977 33
6978 85
6979 33
6980 60
6981 74
6982 18
6983 31
6984 54
6985 52
6986 91
6987 38
6988 33
6989 33
6990 105
6991 85
6992 41
6993 47
6994 48
6995 23
6996 108
6997 22
6998 44
6999 9
7000 83
7001 21
7002 109
7003 69
7004 25
7005 84
7006 29
7007 63
7008 49
7009 65
7010 61
7011 112
7012 8
7013 88
7014 53
7015 55
7016 12
7017 65
7018 52
7019 4
7020 40
7021 58
7022 52
7023 107
7024 66
7025 5
7026 96
7027 105
7028 56
7029 94
7030 8
7031 78
7032 101
7033 101
7034 5
7035 17
7036 94
7037 91
7038 4
7039 30
7040 52
7041 105
7042 80
7043 3
7044 32
7045 107
7046 75
7047 93
7048 4
7049 52
7050 31
7051 61
7052 91
7053 26
7054 29
7055 4
7056 62
7057 51
7058 27
7059 13
7060 25
7061 101
7062 101
7063 41
7064 13
7065 3
7066 23
7067 15
7068 70
7069 46
7070 88
7071 57
7072 19
7073 10
7074 52
7075 93
7076 98
7077 85
7078 58
7079 18
7080 62
7081 49
7082 45
7083 71
7084 112
7085 99
7086 71
7087 81
7088 72
7089 28
7090 0
7091 35
7092 94
7093 59
7094 52
7095 70
7096 50
7097 10
7098 71
7099 92
7100 26
7101 35
7102 1
7103 3
7104 34
7105 12
7106 52
7107 1
7108 79
7109 84
7110 14
7111 77
7112 4
7113 63
7114 26
7115 33
7116 0
7117 29
7118 68
7119 102
7120 53
7121 20
7122 4
7123 59
7124 14
7125 72
7126 106
7127 19
7128 50
7129 46
7130 101
7131 22
7132 21
7133 49
7134 45
7135 30
7136 64
7137 38
7138 85
7139 43
7140 84
7141 9
7142 52
7143 84
7144 95
7145 50
7146 101
7147 108
7148 19
7149 91
7150 60
7151 20
7152 34
7153 81
7154 0
7155 27
7156 58
7157 69
7158 13
7159 46
7160 39
7161 55
7162 36
7163 99
7164 33
7165 90
7166 66
7167 16
7168 16
7169 12
7170 6
7171 39
7172 82
7173 44
7174 40
7175 100
7176 36
7177 46
7178 32
7179 59
7180 65
7181 89
7182 4
7183 29
7184 55
7185 37
7186 11
7187 42
7188 95
7189 12
7190 11
7191 33
7192 39
7193 75
7194 21
7195 97
7196 60
7197 102
7198 100
7199 14
7200 47
7201 75
7202 25
7203 75
7204 88
7205 67
7206 73
7207 84
7208 43
7209 88
7210 13
7211 72
7212 60
7213 17
7214 98
7215 17
7216 84
7217 60
7218 6
7219 65
7220 60
7221 11
7222 10
7223 62
7224 59
7225 3
7226 50
7227 49
7228 1
7229 93
7230 94
7231 102
7232 36
7233 52
7234 67
7235 47
7236 36
7237 23
7238 87
7239 82
7240 54
7241 35
7242 6
7243 43
7244 85
7245 16
7246 70
7247 23
7248 31
7249 57
7250 33
7251 103
7252 29
7253 68
7254 108
7255 91
7256 14
7257 50
7258 67
7259 24
7260 10
7261 53
7262 82
7263 83
7264 69
7265 97
7266 30
7267 5
7268 78
7269 27
7270 13
7271 12
7272 47
7273 95
7274 30
7275 61
7276 49
7277 81
7278 3
7279 67
7280 43
7281 55
7282 105
7283 15
7284 15
7285 1
7286 52
7287 87
7288 57
7289 45
7290 53
7291 36
7292 75
7293 71
7294 106
7295 43
7296 51
7297 36
7298 66
7299 35
7300 107
7301 98
7302 91
7303 20
7304 46
7305 77
7306 23
7307 31
7308 98
7309 32
7310 35
7311 101
7312 23
7313 53
7314 106
7315 34
7316 25
7317 43
7318 85
7319 88
7320 59
7321 87
7322 11
7323 66
7324 71
7325 10
7326 9
7327 29
7328 42
7329 35
7330 61
7331 5
7332 50
7333 39
7334 102
7335 94
7336 44
7337 87
7338 8
7339 66
7340 65
7341 34
7342 50
7343 36
7344 71
7345 36
7346 3
7347 95
7348 5
7349 38
7350 13
7351 3
7352 52
7353 83
7354 29
7355 88
7356 89
7357 20
7358 75
7359 84
7360 18
7361 27
7362 14
7363 48
7364 23
7365 109
7366 80
7367 95
7368 41
7369 82
7370 52
7371 74
7372 44
7373 27
7374 35
7375 20
7376 81
7377 17
7378 85
7379 68
7380 27
7381 23
7382 77
7383 68
7384 7
7385 28
7386 41
7387 1
7388 23
7389 67
7390 16
7391 0
7392 92
7393 9
7394 97
7395 101
7396 63
7397 24
7398 104
7399 29
7400 69
7401 52
7402 35
7403 68
7404 13
7405 30
7406 90
7407 60
7408 75
7409 101
7410 36
7411 99
7412 77
7413 10
7414 89
7415 103
7416 28
7417 80
7418 0
7419 64
7420 92
7421 70
7422 48
7423 108
7424 90
7425 4
7426 44
7427 97
7428 4
7429 97
7430 7
7431 18
7432 54
7433 4
7434 85
7435 41
7436 46
7437 28
7438 11
7439 95
7440 112
7441 37
7442 71
7443 94
7444 99
7445 28
7446 70
7447 109
7448 70
7449 88
7450 23
7451 39
7452 10
7453 16
7454 91
7455 14
7456 70
7457 95
7458 39
7459 40
7460 32
7461 5
7462 69
7463 69
7464 78
7465 95
7466 35
7467 112
7468 75
7469 41
7470 103
7471 35
7472 53
7473 77
7474 27
7475 69
7476 18
7477 15
7478 12
7479 27
7480 38
7481 10
7482 21
7483 17
7484 98
7485 38
7486 69
7487 12
7488 49
7489 20
7490 75
7491 81
7492 52
7493 49
7494 19
7495 9
7496 12
7497 58
7498 47
7499 77
7500 26
7501 59
7502 21
7503 0
7504 53
7505 48
7506 18
7507 59
7508 65
7509 21
7510 50
7511 50
7512 89
7513 20
7514 52
7515 1
7516 22
7517 5
7518 65
7519 70
7520 85
7521 40
7522 47
7523 75
7524 31
7525 107
7526 14
7527 42
7528 15
7529 43
7530 45
7531 11
7532 63
7533 112
7534 73
7535 9
7536 72
7537 6
7538 26
7539 77
7540 19
7541 8
7542 67
7543 10
7544 85
7545 66
7546 91
7547 64
7548 9
7549 60
7550 2
7551 101
7552 6
7553 8
7554 20
7555 87
7556 77
7557 79
7558 71
7559 50
7560 30
7561 56
7562 68
7563 53
7564 82
7565 61
7566 69
7567 9
7568 98
7569 46
7570 60
7571 61
7572 19
7573 37
7574 80
7575 26
7576 10
7577 28
7578 45
7579 32
7580 11
7581 22
7582 37
7583 5
7584 54
7585 94
7586 80
7587 18
7588 74
7589 6
7590 32
7591 94
7592 66
7593 27
7594 90
7595 38
7596 90
7597 10
7598 33
7599 88
7600 26
7601 3
7602 48
7603 91
7604 70
7605 105
7606 73
7607 82
7608 6
7609 5
7610 96
7611 88
7612 77
7613 46
7614 46
7615 42
7616 14
7617 27
7618 27
7619 80
7620 52
7621 28
7622 112
7623 75
7624 24
7625 100
7626 61
7627 48
7628 74
7629 61
7630 50
7631 79
7632 56
7633 59
7634 17
7635 28
7636 55
7637 50
7638 53
7639 41
7640 33
7641 0
7642 6
7643 0
7644 43
7645 60
7646 40
7647 49
7648 54
7649 74
7650 22
7651 73
7652 53
7653 61
7654 33
7655 9
7656 69
7657 40
7658 58
7659 54
7660 69
7661 14
7662 1
7663 95
7664 50
7665 46
7666 10
7667 58
7668 68
7669 29
7670 38
7671 49
7672 66
7673 15
7674 1
7675 36
7676 40
7677 69
7678 94
7679 91
7680 52
7681 7
7682 85
7683 52
7684 39
7685 10
7686 5
7687 53
7688 101
7689 54
7690 43
7691 70
7692 21
7693 8
7694 1
7695 1
7696 10
7697 6
7698 5
7699 61
7700 70
7701 41
7702 49
7703 112
7704 42
7705 65
7706 83
7707 18
7708 34
7709 77
7710 128
7711 29
7712 38
7713 37
7714 59
7715 1
7716 12
7717 41
7718 13
7719 48
7720 24
7721 50
7722 57
7723 70
7724 9
7725 103
7726 7
7727 90
7728 83
7729 23
7730 77
7731 57
7732 36
7733 66
7734 32
7735 10
7736 90
7737 7
7738 66
7739 104
7740 21
7741 23
7742 28
7743 70
7744 109
7745 81
7746 48
7747 17
7748 36
7749 108
7750 96
7751 2
7752 23
7753 10
7754 66
7755 52
7756 45
7757 27
7758 72
7759 34
7760 79
7761 100
7762 50
7763 98
7764 95
7765 103
7766 16
7767 17
7768 66
7769 54
7770 17
7771 100
7772 12
7773 50
7774 79
7775 80
7776 24
7777 61
7778 97
7779 31
7780 73
7781 27
7782 95
7783 96
7784 104
7785 59
7786 99
7787 89
7788 37
7789 63
7790 6
7791 95
7792 94
7793 49
7794 29
7795 4
7796 17
7797 11
7798 52
7799 106
7800 88
7801 88
7802 70
7803 50
7804 94
7805 31
7806 48
7807 47
7808 25
7809 19
7810 36
7811 28
7812 29
7813 50
7814 77
7815 101
7816 90
7817 58
7818 101
7819 5
7820 57
7821 78
7822 47
7823 36
7824 54
7825 1
7826 23
7827 59
7828 69
7829 83
7830 27
7831 10
7832 43
7833 27
7834 89
7835 62
7836 78
7837 95
7838 57
7839 15
7840 44
7841 33
7842 67
7843 31
7844 37
7845 73
7846 13
7847 58
7848 91
7849 36
7850 35
7851 50
7852 49
7853 73
7854 30
7855 33
7856 33
7857 14
7858 98
7859 73
7860 53
7861 20
7862 97
7863 3
7864 70
7865 26
7866 5
7867 45
7868 35
7869 28
7870 9
7871 23
7872 105
7873 29
7874 38
7875 12
7876 4
7877 76
7878 92
7879 108
7880 52
7881 74
7882 3
7883 66
7884 10
7885 72
7886 23
7887 87
7888 52
7889 36
7890 0
7891 66
7892 76
7893 85
7894 12
7895 88
7896 39
7897 30
7898 94
7899 20
7900 91
7901 101
7902 88
7903 10
7904 24
7905 61
7906 26
7907 42
7908 90
7909 79
7910 69
7911 37
7912 57
7913 2
7914 22
7915 82
7916 52
7917 45
7918 50
7919 2
7920 90
7921 84
7922 26
7923 55
7924 31
7925 36
7926 9
7927 6
7928 13
7929 77
7930 32
7931 27
7932 20
7933 79
7934 22
7935 6
7936 69
7937 55
7938 46
7939 53
7940 38
7941 23
7942 11
7943 65
7944 3
7945 24
7946 58
7947 37
7948 4
7949 82
7950 31
7951 52
7952 38
7953 4
7954 33
7955 101
7956 66
7957 68
7958 24
7959 40
7960 55
7961 101
7962 40
7963 11
7964 44
7965 68
7966 85
7967 51
7968 10
7969 105
7970 53
7971 23
7972 38
7973 46
7974 10
7975 33
7976 60
7977 5
7978 94
7979 49
7980 44
7981 92
7982 32
7983 32
7984 82
7985 47
7986 75
7987 18
7988 66
7989 83
7990 61
7991 29
7992 80
7993 60
7994 19
7995 11
7996 54
7997 25
7998 30
7999 5
8000 28
8001 21
8002 44
8003 30
8004 81
8005 16
8006 97
8007 73
8008 26
8009 103
8010 23
8011 67
8012 36
8013 11
8014 107
8015 73
8016 42
8017 98
8018 61
8019 18
8020 75
8021 19
8022 29
8023 3
8024 23
8025 44
8026 29
8027 32
8028 70
8029 36
8030 91
8031 5
8032 5
8033 52
8034 0
8035 50
8036 4
8037 1
8038 67
8039 65
8040 95
8041 37
8042 69
8043 1
8044 54
8045 10
8046 4
8047 107
8048 64
8049 58
8050 43
8051 82
8052 28
8053 3
8054 52
8055 43
8056 36
8057 52
8058 129
8059 71
8060 24
8061 45
8062 31
8063 43
8064 24
8065 40
8066 74
8067 70
8068 92
8069 60
8070 97
8071 80
8072 90
8073 52
8074 19
8075 43
8076 19
8077 99
8078 36
8079 84
8080 33
8081 75
8082 25
8083 69
8084 96
8085 48
8086 22
8087 7
8088 43
8089 108
8090 87
8091 6
8092 75
8093 90
8094 50
8095 47
8096 37
8097 69
8098 10
8099 18
8100 65
8101 71
8102 65
8103 29
8104 81
8105 96
8106 70
8107 33
8108 71
8109 28
8110 85
8111 64
8112 75
8113 10
8114 75
8115 52
8116 6
8117 16
8118 20
8119 103
8120 93
8121 108
8122 12
8123 31
8124 3
8125 37
8126 69
8127 81
8128 66
8129 37
8130 14
8131 27
8132 32
8133 101
8134 8
8135 101
8136 101
8137 42
8138 79
8139 48
8140 41
8141 24
8142 54
8143 23
8144 93
8145 31
8146 70
8147 84
8148 22
8149 90
8150 14
8151 5
8152 41
8153 69
8154 89
8155 84
8156 25
8157 67
8158 88
8159 90
8160 85
8161 75
8162 45
8163 59
8164 77
8165 103
8166 72
8167 66
8168 61
8169 92
8170 23
8171 47
8172 90
8173 43
8174 101
8175 59
8176 90
8177 45
8178 12
8179 65
8180 17
8181 99
8182 49
8183 21
8184 57
8185 82
8186 5
8187 59
8188 55
8189 47
8190 33
8191 49
8192 37
8193 61
8194 45
8195 2
8196 106
8197 92
8198 29
8199 51
8200 12
8201 101
8202 24
8203 24
8204 15
8205 63
8206 91
8207 61
8208 77
8209 27
8210 34
8211 14
8212 28
8213 23
8214 25
8215 68
8216 50
8217 20
8218 27
8219 42
8220 38
8221 5
8222 37
8223 7
8224 106
8225 44
8226 101
8227 5
8228 71
8229 30
8230 38
8231 69
8232 3
8233 1
8234 108
8235 101
8236 27
8237 21
8238 14
8239 72
8240 73
8241 25
8242 17
8243 75
8244 20
8245 34
8246 82
8247 25
8248 69
8249 101
8250 101
8251 38
8252 43
8253 10
8254 39
8255 48
8256 84
8257 49
8258 98
8259 46
8260 28
8261 16
8262 98
8263 56
8264 61
8265 56
8266 71
8267 53
8268 101
8269 52
8270 63
8271 45
8272 34
8273 73
8274 8
8275 54
8276 91
8277 33
8278 59
8279 17
8280 5
8281 24
8282 51
8283 62
8284 50
8285 9
8286 98
8287 77
8288 22
8289 74
8290 87
8291 22
8292 78
8293 65
8294 23
8295 18
8296 83
8297 65
8298 73
8299 73
8300 27
8301 48
8302 31
8303 1
8304 55
8305 56
8306 28
8307 76
8308 59
8309 49
8310 47
8311 19
8312 105
8313 42
8314 94
8315 1
8316 79
8317 71
8318 77
8319 56
8320 46
8321 19
8322 71
8323 42
8324 75
8325 52
8326 98
8327 35
8328 94
8329 62
8330 49
8331 9
8332 19
8333 27
8334 26
8335 99
8336 90
8337 38
8338 60
8339 0
8340 36
8341 8
8342 31
8343 84
8344 53
8345 19
8346 79
8347 69
8348 35
8349 34
8350 8
8351 96
8352 73
8353 56
8354 39
8355 27
8356 95
8357 0
8358 83
8359 89
8360 39
8361 47
8362 3
8363 37
8364 101
8365 20
8366 48
8367 55
8368 17
8369 52
8370 84
8371 57
8372 21
8373 34
8374 23
8375 56
8376 19
8377 59
8378 101
8379 34
8380 71
8381 72
8382 94
8383 97
8384 35
8385 20
8386 58
8387 104
8388 87
8389 81
8390 30
8391 4
8392 99
8393 44
8394 75
8395 73
8396 28
8397 74
8398 19
8399 98
8400 109
8401 30
8402 61
8403 82
8404 65
8405 93
8406 98
8407 39
8408 3
8409 39
8410 84
8411 16
8412 27
8413 26
8414 69
8415 66
8416 16
8417 80
8418 31
8419 69
8420 60
8421 20
8422 38
8423 97
8424 106
8425 98
8426 108
8427 1
8428 29
8429 49
8430 1
8431 30
8432 51
8433 82
8434 82
8435 36
8436 91
8437 3
8438 43
8439 31
8440 36
8441 51
8442 14
8443 4
8444 11
8445 8
8446 30
8447 65
8448 100
8449 105
8450 32
8451 34
8452 75
8453 4
8454 79
8455 29
8456 73
8457 23
8458 54
8459 47
8460 76
8461 14
8462 101
8463 50
8464 10
8465 101
8466 33
8467 60
8468 22
8469 57
8470 82
8471 27
8472 49
8473 50
8474 7
8475 23
8476 47
8477 32
8478 27
8479 0
8480 43
8481 4
8482 102
8483 85
8484 43
8485 35
8486 34
8487 70
8488 80
8489 50
8490 77
8491 52
8492 30
8493 69
8494 52
8495 69
8496 2
8497 42
8498 11
8499 62
8500 101
8501 100
8502 5
8503 79
8504 30
8505 60
8506 89
8507 61
8508 3
8509 52
8510 50
8511 32
8512 23
8513 97
8514 5
8515 89
8516 52
8517 1
8518 28
8519 88
8520 93
8521 5
8522 28
8523 40
8524 1
8525 9
8526 19
8527 89
8528 97
8529 29
8530 27
8531 20
8532 65
8533 100
8534 64
8535 19
8536 65
8537 4
8538 72
8539 52
8540 48
8541 28
8542 2
8543 28
8544 65
8545 21
8546 5
8547 36
8548 70
8549 35
8550 71
8551 16
8552 51
8553 61
8554 56
8555 20
8556 60
8557 40
8558 38
8559 12
8560 52
8561 91
8562 28
8563 81
8564 10
8565 74
8566 49
8567 93
8568 39
8569 50
8570 82
8571 29
8572 11
8573 92
8574 77
8575 19
8576 65
8577 2
8578 0
8579 45
8580 74
8581 50
8582 54
8583 22
8584 43
8585 28
8586 12
8587 28
8588 51
8589 104
8590 19
8591 109
8592 92
8593 49
8594 54
8595 36
8596 3
8597 29
8598 52
8599 34
8600 19
8601 16
8602 72
8603 62
8604 26
8605 84
8606 14
8607 26
8608 70
8609 49
8610 74
8611 18
8612 21
8613 56
8614 84
8615 68
8616 55
8617 23
8618 43
8619 79
8620 11
8621 69
8622 10
8623 19
8624 66
8625 72
8626 99
8627 33
8628 51
8629 91
8630 78
8631 6
8632 43
8633 64
8634 76
8635 9
8636 48
8637 72
8638 30
8639 97
8640 4
8641 19
8642 15
8643 78
8644 108
8645 38
8646 97
8647 50
8648 1
8649 107
8650 7
8651 3
8652 78
8653 59
8654 75
8655 73
8656 105
8657 25
8658 97
8659 75
8660 27
8661 72
8662 98
8663 18
8664 77
8665 5
8666 60
8667 6
8668 83
8669 31
8670 78
8671 100
8672 81
8673 26
8674 34
8675 59
8676 64
8677 71
8678 90
8679 38
8680 5
8681 100
8682 108
8683 16
8684 63
8685 5
8686 35
8687 53
8688 53
8689 28
8690 1
8691 0
8692 16
8693 98
8694 54
8695 38
8696 75
8697 49
8698 58
8699 17
8700 90
8701 30
8702 14
8703 4
8704 69
8705 80
8706 15
8707 102
8708 43
8709 35
8710 48
8711 39
8712 49
8713 6
8714 74
8715 72
8716 66
8717 10
8718 1
8719 36
8720 95
8721 27
8722 5
8723 7
8724 72
8725 60
8726 0
8727 5
8728 15
8729 67
8730 38
8731 0
8732 28
8733 84
8734 83
8735 66
8736 26
8737 26
8738 61
8739 105
8740 81
8741 64
8742 56
8743 37
8744 80
8745 0
8746 52
8747 36
8748 31
8749 7
8750 20
8751 90
8752 52
8753 45
8754 26
8755 81
8756 66
8757 54
8758 34
8759 107
8760 92
8761 18
8762 32
8763 90
8764 21
8765 44
8766 15
8767 101
8768 6
8769 95
8770 22
8771 100
8772 14
8773 45
8774 25
8775 14
8776 95
8777 61
8778 3
8779 29
8780 44
8781 48
8782 99
8783 63
8784 76
8785 99
8786 106
8787 56
8788 7
8789 88
8790 20
8791 31
8792 100
8793 26
8794 18
8795 13
8796 38
8797 36
8798 14
8799 46
8800 13
8801 52
8802 5
8803 56
8804 1
8805 10
8806 66
8807 55
8808 65
8809 91
8810 69
8811 1
8812 26
8813 20
8814 130
8815 11
8816 77
8817 10
8818 27
8819 94
8820 7
8821 100
8822 15
8823 0
8824 72
8825 58
8826 33
8827 90
8828 91
8829 26
8830 33
8831 59
8832 108
8833 1
8834 87
8835 72
8836 77
8837 12
8838 38
8839 73
8840 100
8841 28
8842 22
8843 76
8844 20
8845 41
8846 74
8847 47
8848 62
8849 5
8850 57
8851 88
8852 14
8853 52
8854 95
8855 49
8856 12
8857 24
8858 6
8859 57
8860 29
8861 61
8862 5
8863 26
8864 101
8865 1
8866 10
8867 10
8868 27
8869 19
8870 63
8871 35
8872 50
8873 68
8874 32
8875 66
8876 56
8877 47
8878 78
8879 12
8880 96
8881 101
8882 90
8883 70
8884 42
8885 75
8886 91
8887 93
8888 60
8889 109
8890 97
8891 41
8892 69
8893 84
8894 33
8895 27
8896 41
8897 8
8898 56
8899 60
8900 91
8901 38
8902 92
8903 23
8904 52
8905 82
8906 15
8907 11
8908 64
8909 3
8910 2
8911 88
8912 4
8913 93
8914 17
8915 9
8916 131
8917 101
8918 65
8919 43
8920 11
8921 66
8922 81
8923 29
8924 4
8925 73
8926 29
8927 29
8928 13
8929 103
8930 51
8931 18
8932 107
8933 70
8934 69
8935 132
8936 63
8937 72
8938 94
8939 52
8940 98
8941 27
8942 71
8943 55
8944 88
8945 38
8946 44
8947 34
8948 5
8949 40
8950 10
8951 28
8952 13
8953 19
8954 53
8955 1
8956 56
8957 67
8958 28
8959 96
8960 60
8961 11
8962 44
8963 74
8964 50
8965 69
8966 61
8967 1
8968 79
8969 101
8970 87
8971 52
8972 10
8973 100
8974 4
8975 76
8976 79
8977 28
8978 45
8979 9
8980 78
8981 84
8982 84
8983 4
8984 62
8985 95
8986 69
8987 89
8988 11
8989 33
8990 19
8991 6
8992 83
8993 70
8994 67
8995 72
8996 92
8997 45
8998 76
8999 73
9000 35
9001 42
9002 71
9003 50
9004 50
9005 38
9006 6
9007 30
9008 35
9009 73
9010 33
9011 78
9012 1
9013 19
9014 94
9015 68
9016 43
9017 105
9018 87
9019 18
9020 15
9021 4
9022 90
9023 53
9024 94
9025 52
9026 106
9027 12
9028 88
9029 61
9030 74
9031 27
9032 57
9033 42
9034 17
9035 23
9036 34
9037 103
9038 10
9039 39
9040 18
9041 27
9042 60
9043 35
9044 70
9045 63
9046 97
9047 90
9048 46
9049 64
9050 79
9051 20
9052 94
9053 79
9054 101
9055 5
9056 48
9057 50
9058 11
9059 81
9060 84
9061 37
9062 10
9063 83
9064 87
9065 67
9066 55
9067 14
9068 36
9069 48
9070 49
9071 69
9072 89
9073 69
9074 37
9075 93
9076 93
9077 94
9078 21
9079 67
9080 66
9081 45
9082 12
9083 38
9084 26
9085 54
9086 35
9087 52
9088 78
9089 61
9090 73
9091 78
9092 60
9093 14
9094 7
9095 46
9096 18
9097 69
9098 59
9099 51
9100 66
9101 5
9102 64
9103 21
9104 50
9105 39
9106 52
9107 76
9108 68
9109 11
9110 28
9111 95
9112 26
9113 90
9114 20
9115 77
9116 106
9117 69
9118 22
9119 101
9120 1
9121 61
9122 97
9123 90
9124 26
9125 98
9126 48
9127 17
9128 8
9129 20
9130 91
9131 76
9132 94
9133 12
9134 93
9135 1
9136 82
9137 2
9138 80
9139 52
9140 87
9141 71
9142 59
9143 20
9144 57
9145 18
9146 52
9147 43
9148 103
9149 98
9150 38
9151 26
9152 36
9153 75
9154 65
9155 50
9156 94
9157 54
9158 75
9159 26
9160 58
9161 18
9162 61
9163 56
9164 52
9165 8
9166 89
9167 71
9168 4
9169 92
9170 33
9171 82
9172 61
9173 0
9174 45
9175 83
9176 90
9177 57
9178 34
9179 96
9180 37
9181 4
9182 6
9183 87
9184 61
9185 59
9186 10
9187 57
9188 26
9189 89
9190 32
9191 18
9192 3
9193 15
9194 61
9195 31
9196 35
9197 12
9198 34
9199 45
9200 10
9201 49
9202 62
9203 105
9204 28
9205 2
9206 50
9207 6
9208 41
9209 40
9210 25
9211 52
9212 8
9213 64
9214 29
9215 75
9216 57
9217 0
9218 90
9219 88
9220 6
9221 47
9222 31
9223 21
9224 38
9225 85
9226 1
9227 29
9228 105
9229 14
9230 18
9231 11
9232 35
9233 91
9234 4
9235 36
9236 23
9237 93
9238 94
9239 73
9240 2
9241 54
9242 38
9243 61
9244 25
9245 62
9246 101
9247 78
9248 37
9249 46
9250 93
9251 8
9252 79
9253 79
9254 99
9255 6
9256 19
9257 95
9258 63
9259 76
9260 23
9261 36
9262 28
9263 71
9264 100
9265 17
9266 82
9267 74
9268 35
9269 50
9270 6
9271 4
9272 65
9273 8
9274 26
9275 57
9276 35
9277 109
9278 15
9279 19
9280 69
9281 50
9282 23
9283 53
9284 23
9285 93
9286 81
9287 66
9288 38
9289 109
9290 7
9291 101
9292 27
9293 101
9294 33
9295 74
9296 91
9297 94
9298 101
9299 100
9300 49
9301 88
9302 100
9303 32
9304 10
9305 84
9306 10
9307 71
9308 63
9309 33
9310 4
9311 94
9312 21
9313 22
9314 6
9315 23
9316 106
9317 80
9318 51
9319 52
9320 10
9321 108
9322 101
9323 7
9324 17
9325 10
9326 52
9327 53
9328 40
9329 59
9330 35
9331 53
9332 35
9333 10
9334 14
9335 61
9336 3
9337 50
9338 70
9339 102
9340 95
9341 5
9342 18
9343 0
9344 35
9345 0
9346 9
9347 34
9348 59
9349 22
9350 39
9351 3
9352 70
9353 71
9354 63
9355 45
9356 49
9357 29
9358 5
9359 99
9360 35
9361 22
9362 60
9363 91
9364 92
9365 52
9366 95
9367 62
9368 71
9369 36
9370 17
9371 13
9372 108
9373 30
9374 77
9375 81
9376 39
9377 43
9378 61
9379 3
9380 52
9381 12
9382 18
9383 71
9384 5
9385 103
9386 98
9387 53
9388 53
9389 41
9390 52
9391 101
9392 7
9393 84
9394 96
9395 94
9396 99
9397 91
9398 69
9399 17
9400 0
9401 28
9402 65
9403 9
9404 88
9405 65
9406 59
9407 11
9408 31
9409 10
9410 96
9411 35
9412 69
9413 107
9414 16
9415 5
9416 68
9417 31
9418 14
9419 94
9420 15
9421 75
9422 51
9423 35
9424 69
9425 59
9426 5
9427 68
9428 75
9429 91
9430 5
9431 94
9432 101
9433 65
9434 69
9435 25
9436 4
9437 27
9438 61
9439 95
9440 31
9441 26
9442 10
9443 43
9444 98
9445 64
9446 13
9447 29
9448 18
9449 47
9450 18
9451 23
9452 112
9453 51
9454 12
9455 100
9456 84
9457 62
9458 14
9459 71
9460 47
9461 41
9462 21
9463 28
9464 1
9465 14
9466 28
9467 98
9468 35
9469 50
9470 11
9471 75
9472 79
9473 101
9474 45
9475 91
9476 21
9477 112
9478 93
9479 70
9480 90
9481 77
9482 35
9483 70
9484 33
9485 19
9486 50
9487 34
9488 77
9489 50
9490 84
9491 100
9492 19
9493 91
9494 64
9495 25
9496 77
9497 20
9498 40
9499 100
9500 60
9501 32
9502 51
9503 49
9504 0
9505 0
9506 52
9507 70
9508 87
9509 9
9510 67
9511 69
9512 81
9513 69
9514 103
9515 67
9516 15
9517 76
9518 10
9519 49
9520 103
9521 0
9522 44
9523 53
9524 95
9525 72
9526 18
9527 41
9528 103
9529 0
9530 56
9531 56
9532 41
9533 35
9534 69
9535 12
9536 10
9537 29
9538 46
9539 84
9540 32
9541 3
9542 89
9543 61
9544 33
9545 79
9546 19
9547 65
9548 51
9549 23
9550 84
9551 42
9552 38
9553 71
9554 11
9555 55
9556 71
9557 29
9558 94
9559 1
9560 31
9561 10
9562 62
9563 57
9564 101
9565 35
9566 98
9567 56
9568 38
9569 43
9570 21
9571 3
9572 23
9573 88
9574 24
9575 44
9576 41
9577 50
9578 9
9579 49
9580 94
9581 72
9582 50
9583 15
9584 46
9585 41
9586 35
9587 74
9588 95
9589 133
9590 32
9591 94
9592 1
9593 76
9594 55
9595 51
9596 87
9597 83
9598 4
9599 9
9600 6
9601 52
9602 19
9603 94
9604 55
9605 54
9606 103
9607 94
9608 106
9609 18
9610 98
9611 5
9612 60
9613 48
9614 57
9615 107
9616 18
9617 112
9618 32
9619 59
9620 71
9621 52
9622 98
9623 42
9624 90
9625 19
9626 16
9627 60
9628 3
9629 1
9630 12
9631 37
9632 96
9633 58
9634 4
9635 83
9636 66
9637 95
9638 36
9639 50
9640 98
9641 93
9642 90
9643 100
9644 17
9645 28
9646 47
9647 27
9648 52
9649 85
9650 101
9651 60
9652 38
9653 46
9654 17
9655 64
9656 47
9657 28
9658 106
9659 31
9660 100
9661 30
9662 2
9663 58
9664 59
9665 39
9666 78
9667 2
9668 108
9669 10
9670 4
9671 37
9672 23
9673 2
9674 7
9675 60
9676 69
9677 22
9678 73
9679 93
9680 49
9681 40
9682 91
9683 97
9684 7
9685 23
9686 43
9687 92
9688 4
9689 14
9690 45
9691 5
9692 59
9693 33
9694 39
9695 15
9696 38
9697 17
9698 98
9699 84
9700 98
9701 31
9702 61
9703 47
9704 70
9705 88
9706 71
9707 62
9708 3
9709 61
9710 78
9711 10
9712 40
9713 66
9714 51
9715 54
9716 21
9717 10
9718 31
9719 50
9720 46
9721 49
9722 69
9723 79
9724 49
9725 58
9726 39
9727 13
9728 81
9729 52
9730 28
9731 97
9732 39
9733 10
9734 24
9735 112
9736 71
9737 62
9738 0
9739 77
9740 18
9741 39
9742 66
9743 30
9744 12
9745 19
9746 83
9747 14
9748 70
9749 60
9750 101
9751 36
9752 25
9753 25
9754 69
9755 19
9756 54
9757 52
9758 23
9759 75
9760 75
9761 101
9762 5
9763 1
9764 44
9765 66
9766 98
9767 12
9768 67
9769 1
9770 72
9771 46
9772 20
9773 62
9774 58
9775 8
9776 20
9777 55
9778 83
9779 63
9780 40
9781 29
9782 70
9783 45
9784 72
9785 95
9786 13
9787 82
9788 75
9789 15
9790 10
9791 17
9792 50
9793 36
9794 49
9795 34
9796 35
9797 57
9798 8
9799 30
9800 69
9801 53
9802 112
9803 4
9804 65
9805 78
9806 51
9807 44
9808 1
9809 82
9810 75
9811 53
9812 40
9813 24
9814 57
9815 19
9816 19
9817 15
9818 42
9819 73
9820 31
9821 21
9822 104
9823 62
9824 53
9825 50
9826 70
9827 23
9828 9
9829 8
9830 23
9831 25
9832 35
9833 23
9834 109
9835 63
9836 49
9837 75
9838 33
9839 63
9840 103
9841 45
9842 94
9843 36
9844 8
9845 40
9846 109
9847 16
9848 21
9849 48
9850 40
9851 93
9852 69
9853 43
9854 64
9855 11
9856 70
9857 95
9858 1
9859 64
9860 49
9861 134
9862 29
9863 28
9864 47
9865 67
9866 10
9867 36
9868 4
9869 108
9870 98
9871 55
9872 74
9873 12
9874 48
9875 91
9876 9
9877 13
9878 15
9879 56
9880 22
9881 0
9882 53
9883 36
9884 73
9885 70
9886 55
9887 79
9888 72
9889 17
9890 64
9891 69
9892 61
9893 34
9894 52
9895 27
9896 100
9897 100
9898 13
9899 77
9900 36
9901 89
9902 52
9903 37
9904 19
9905 35
9906 23
9907 80
9908 35
9909 71
9910 94
9911 52
9912 15
9913 52
9914 46
9915 9
9916 50
9917 57
9918 45
9919 66
9920 52
9921 29
9922 94
9923 55
9924 79
9925 39
9926 67
9927 75
9928 48
9929 70
9930 59
9931 46
9932 84
9933 33
9934 59
9935 98
9936 38
9937 1
9938 5
9939 8
9940 51
9941 99
9942 16
9943 95
9944 61
9945 26
9946 27
9947 39
9948 36
9949 81
9950 107
9951 72
9952 73
9953 103
9954 35
9955 87
9956 50
9957 4
9958 47
9959 84
9960 103
9961 32
9962 98
9963 53
9964 32
9965 80
9966 12
9967 38
9968 59
9969 87
9970 92
9971 61
9972 51
9973 42
9974 19
9975 40
9976 9
9977 18
9978 19
9979 41
9980 36
9981 54
9982 33
9983 52
9984 97
9985 103
9986 48
9987 10
9988 48
9989 33
9990 32
9991 108
9992 1
9993 71
9994 79
9995 26
9996 27
9997 83
9998 65
9999 46
