0 0
1 1
2 2
3 3
4 4
5 4
6 5
7 6
8 7
9 4
10 8
11 4
12 9
13 9
14 2
15 10
16 11
17 5
18 4
19 4
20 1
21 12
22 13
23 14
24 0
25 4
26 4
27 15
28 0
29 16
30 5
31 17
32 18
33 3
34 19
35 20
36 21
37 22
38 16
39 23
40 24
41 25
42 0
43 24
44 4
45 1
46 26
47 27
48 19
49 3
50 13
51 14
52 4
53 27
54 2
55 5
56 15
57 12
58 23
59 19
60 28
61 24
62 5
63 18
64 10
65 29
66 26
67 5
68 2
69 28
70 27
71 7
72 21
73 30
74 16
75 31
76 1
77 12
78 22
79 3
80 24
81 24
82 14
83 32
84 4
85 19
86 4
87 30
88 33
89 31
90 24
91 34
92 35
93 5
94 24
95 5
96 4
97 18
98 19
99 1
100 19
101 4
102 4
103 8
104 36
105 28
106 25
107 8
108 14
109 29
110 23
111 21
112 23
113 3
114 20
115 4
116 36
117 4
118 14
119 37
120 13
121 23
122 24
123 24
124 4
125 32
126 29
127 12
128 25
129 17
130 22
131 34
132 29
133 24
134 9
135 18
136 4
137 29
138 15
139 4
140 29
141 18
142 20
143 1
144 34
145 9
146 4
147 19
148 15
149 24
150 30
151 9
152 31
153 4
154 4
155 4
156 9
157 32
158 7
159 26
160 17
161 5
162 19
163 38
164 6
165 19
166 23
167 16
168 28
169 25
170 4
171 4
172 27
173 34
174 19
175 34
176 26
177 6
178 4
179 4
180 39
181 4
182 5
183 5
184 29
185 0
186 32
187 4
188 4
189 21
190 4
191 27
192 4
193 30
194 40
195 0
196 30
197 4
198 2
199 8
200 3
201 3
202 15
203 22
204 5
205 30
206 32
207 35
208 4
209 19
210 14
211 18
212 30
213 11
214 38
215 14
216 27
217 15
218 27
219 4
220 19
221 38
222 8
223 4
224 3
225 4
226 1
227 29
228 16
229 30
230 6
231 6
232 9
233 39
234 24
235 9
236 0
237 4
238 9
239 29
240 4
241 8
242 37
243 2
244 23
245 41
246 28
247 40
248 12
249 15
250 36
251 0
252 4
253 24
254 27
255 41
256 31
257 27
258 4
259 17
260 4
261 14
262 5
263 4
264 4
265 18
266 1
267 6
268 4
269 4
270 32
271 19
272 12
273 4
274 4
275 14
276 0
277 4
278 29
279 38
280 37
281 25
282 9
283 35
284 15
285 26
286 4
287 26
288 26
289 33
290 21
291 4
292 2
293 1
294 31
295 26
296 21
297 25
298 8
299 18
300 31
301 28
302 15
303 22
304 20
305 36
306 8
307 25
308 19
309 11
310 37
311 4
312 14
313 34
314 5
315 22
316 5
317 3
318 4
319 20
320 34
321 24
322 21
323 10
324 21
325 23
326 32
327 4
328 12
329 9
330 34
331 24
332 31
333 5
334 22
335 9
336 16
337 15
338 5
339 29
340 26
341 23
342 4
343 26
344 14
345 30
346 4
347 20
348 16
349 27
350 4
351 18
352 34
353 24
354 29
355 22
356 27
357 8
358 32
359 35
360 4
361 1
362 8
363 13
364 5
365 8
366 37
367 23
368 9
369 8
370 29
371 30
372 32
373 15
374 13
375 34
376 4
377 12
378 19
379 36
380 2
381 35
382 17
383 15
384 13
385 7
386 3
387 4
388 22
389 3
390 30
391 0
392 5
393 40
394 30
395 36
396 4
397 30
398 26
399 5
400 0
401 19
402 17
403 30
404 9
405 34
406 5
407 9
408 10
409 34
410 14
411 39
412 4
413 35
414 28
415 4
416 1
417 32
418 13
419 5
420 31
421 38
422 14
423 1
424 34
425 4
426 31
427 18
428 22
429 33
430 4
431 0
432 6
433 10
434 4
435 12
436 4
437 19
438 23
439 24
440 38
441 6
442 24
443 17
444 21
445 33
446 14
447 22
448 37
449 3
450 30
451 3
452 19
453 20
454 28
455 32
456 32
457 24
458 5
459 18
460 25
461 4
462 1
463 14
464 8
465 15
466 4
467 11
468 33
469 28
470 9
471 1
472 25
473 34
474 19
475 4
476 19
477 36
478 28
479 22
480 4
481 35
482 16
483 10
484 15
485 40
486 4
487 16
488 33
489 14
490 5
491 28
492 5
493 29
494 5
495 37
496 7
497 19
498 21
499 0
500 5
501 19
502 20
503 6
504 4
505 34
506 31
507 29
508 4
509 3
510 31
511 16
512 4
513 28
514 31
515 6
516 23
517 4
518 19
519 4
520 4
521 8
522 20
523 9
524 4
525 14
526 4
527 34
528 35
529 0
530 16
531 3
532 4
533 18
534 31
535 25
536 10
537 7
538 4
539 28
540 19
541 27
542 31
543 15
544 18
545 8
546 4
547 32
548 4
549 13
550 23
551 9
552 21
553 25
554 18
555 4
556 24
557 4
558 4
559 12
560 5
561 22
562 33
563 13
564 4
565 4
566 15
567 26
568 26
569 28
570 25
571 5
572 24
573 0
574 18
575 19
576 4
577 5
578 19
579 13
580 29
581 1
582 40
583 20
584 28
585 23
586 14
587 4
588 18
589 14
590 3
591 8
592 17
593 37
594 4
595 30
596 31
597 5
598 37
599 13
600 22
601 4
602 24
603 23
604 28
605 28
606 2
607 9
608 28
609 12
610 4
611 4
612 32
613 18
614 30
615 28
616 0
617 3
618 20
619 4
620 29
621 10
622 32
623 32
624 1
625 2
626 1
627 4
628 37
629 9
630 38
631 28
632 4
633 38
634 4
635 4
636 23
637 12
638 28
639 4
640 18
641 26
642 7
643 38
644 9
645 18
646 4
647 13
648 3
649 3
650 40
651 11
652 29
653 2
654 27
655 14
656 9
657 13
658 21
659 3
660 28
661 21
662 4
663 25
664 11
665 24
666 23
667 1
668 13
669 30
670 4
671 4
672 0
673 20
674 39
675 15
676 4
677 6
678 5
679 4
680 6
681 27
682 26
683 28
684 9
685 14
686 10
687 27
688 32
689 11
690 24
691 17
692 27
693 4
694 35
695 5
696 4
697 4
698 28
699 0
700 0
701 30
702 40
703 24
704 28
705 39
706 29
707 4
708 15
709 36
710 24
711 33
712 3
713 4
714 16
715 24
716 8
717 13
718 9
719 6
720 4
721 32
722 29
723 25
724 19
725 38
726 34
727 5
728 12
729 2
730 4
731 29
732 14
733 23
734 25
735 24
736 38
737 37
738 28
739 5
740 20
741 4
742 35
743 0
744 28
745 40
746 32
747 4
748 30
749 41
750 30
751 19
752 27
753 21
754 11
755 17
756 12
757 13
758 30
759 21
760 20
761 4
762 29
763 35
764 18
765 23
766 13
767 17
768 21
769 25
770 4
771 16
772 38
773 4
774 20
775 27
776 5
777 8
778 27
779 32
780 36
781 13
782 32
783 40
784 28
785 41
786 4
787 29
788 4
789 7
790 4
791 4
792 4
793 23
794 4
795 30
796 1
797 38
798 6
799 6
800 26
801 38
802 40
803 22
804 23
805 36
806 18
807 31
808 30
809 20
810 19
811 12
812 0
813 23
814 4
815 4
816 3
817 4
818 4
819 5
820 11
821 19
822 31
823 29
824 4
825 19
826 4
827 5
828 27
829 14
830 6
831 14
832 13
833 3
834 25
835 16
836 10
837 23
838 19
839 34
840 3
841 2
842 40
843 4
844 23
845 37
846 6
847 0
848 8
849 4
850 24
851 1
852 4
853 4
854 26
855 5
856 25
857 27
858 8
859 16
860 15
861 5
862 39
863 4
864 27
865 16
866 12
867 26
868 17
869 29
870 30
871 18
872 28
873 19
874 20
875 22
876 19
877 37
878 9
879 20
880 10
881 0
882 20
883 4
884 33
885 3
886 12
887 32
888 19
889 27
890 8
891 6
892 18
893 26
894 4
895 6
896 4
897 10
898 16
899 20
900 8
901 23
902 38
903 2
904 21
905 1
906 24
907 41
908 38
909 25
910 32
911 36
912 22
913 16
914 6
915 2
916 34
917 26
918 34
919 40
920 40
921 4
922 34
923 30
924 5
925 34
926 7
927 19
928 31
929 12
930 33
931 24
932 22
933 40
934 12
935 4
936 34
937 32
938 6
939 4
940 6
941 8
942 4
943 12
944 33
945 20
946 36
947 0
948 6
949 2
950 4
951 18
952 20
953 10
954 17
955 33
956 4
957 4
958 22
959 40
960 40
961 31
962 35
963 15
964 4
965 5
966 3
967 3
968 40
969 28
970 28
971 3
972 17
973 9
974 35
975 4
976 13
977 19
978 5
979 19
980 10
981 15
982 11
983 9
984 0
985 29
986 4
987 31
988 0
989 19
990 9
991 38
992 31
993 32
994 12
995 15
996 15
997 17
998 24
999 28
1000 23
1001 3
1002 27
1003 4
1004 13
1005 1
1006 4
1007 30
1008 26
1009 3
1010 40
1011 2
1012 30
1013 20
1014 5
1015 28
1016 4
1017 24
1018 32
1019 31
1020 34
1021 0
1022 38
1023 31
1024 30
1025 29
1026 5
1027 17
1028 32
1029 41
1030 6
1031 14
1032 24
1033 24
1034 9
1035 14
1036 23
1037 28
1038 18
1039 35
1040 13
1041 18
1042 3
1043 40
1044 14
1045 5
1046 4
1047 15
1048 40
1049 21
1050 30
1051 35
1052 4
1053 40
1054 14
1055 9
1056 9
1057 39
1058 4
1059 32
1060 35
1061 37
1062 13
1063 2
1064 38
1065 35
1066 36
1067 19
1068 0
1069 15
1070 28
1071 4
1072 40
1073 38
1074 38
1075 22
1076 40
1077 12
1078 3
1079 40
1080 24
1081 18
1082 3
1083 4
1084 23
1085 4
1086 20
1087 5
1088 30
1089 4
1090 25
1091 31
1092 0
1093 22
1094 38
1095 9
1096 5
1097 5
1098 3
1099 8
1100 35
1101 12
1102 5
1103 10
1104 37
1105 13
1106 9
1107 12
1108 41
1109 8
1110 20
1111 0
1112 24
1113 16
1114 8
1115 4
1116 14
1117 30
1118 37
1119 28
1120 19
1121 1
1122 24
1123 13
1124 24
1125 13
1126 9
1127 4
1128 18
1129 18
1130 27
1131 4
1132 4
1133 9
1134 3
1135 10
1136 0
1137 38
1138 21
1139 23
1140 4
1141 4
1142 7
1143 2
1144 4
1145 3
1146 30
1147 19
1148 32
1149 3
1150 25
1151 13
1152 9
1153 38
1154 37
1155 12
1156 19
1157 32
1158 40
1159 3
1160 0
1161 27
1162 34
1163 19
1164 10
1165 41
1166 6
1167 34
1168 15
1169 24
1170 39
1171 4
1172 34
1173 40
1174 12
1175 18
1176 15
1177 34
1178 28
1179 4
1180 23
1181 4
1182 9
1183 30
1184 4
1185 9
1186 34
1187 16
1188 0
1189 20
1190 11
1191 20
1192 25
1193 4
1194 19
1195 32
1196 4
1197 3
1198 6
1199 9
1200 22
1201 32
1202 26
1203 37
1204 4
1205 10
1206 4
1207 30
1208 39
1209 16
1210 19
1211 4
1212 9
1213 18
1214 18
1215 31
1216 41
1217 27
1218 28
1219 12
1220 4
1221 4
1222 2
1223 21
1224 8
1225 5
1226 26
1227 20
1228 32
1229 23
1230 38
1231 9
1232 10
1233 3
1234 9
1235 32
1236 26
1237 35
1238 36
1239 6
1240 7
1241 5
1242 34
1243 18
1244 8
1245 21
1246 38
1247 3
1248 0
1249 33
1250 0
1251 26
1252 37
1253 9
1254 5
1255 27
1256 4
1257 4
1258 8
1259 41
1260 12
1261 34
1262 29
1263 21
1264 24
1265 23
1266 40
1267 35
1268 13
1269 30
1270 34
1271 4
1272 4
1273 15
1274 21
1275 4
1276 4
1277 30
1278 0
1279 9
1280 40
1281 8
1282 4
1283 12
1284 12
1285 4
1286 31
1287 6
1288 16
1289 37
1290 10
1291 7
1292 5
1293 33
1294 5
1295 32
1296 28
1297 24
1298 24
1299 8
1300 5
1301 24
1302 13
1303 15
1304 12
1305 16
1306 25
1307 6
1308 30
1309 19
1310 9
1311 15
1312 21
1313 17
1314 30
1315 4
1316 25
1317 19
1318 24
1319 4
1320 4
1321 6
1322 4
1323 38
1324 5
1325 19
1326 18
1327 0
1328 4
1329 8
1330 13
1331 24
1332 33
1333 34
1334 27
1335 18
1336 18
1337 13
1338 24
1339 4
1340 12
1341 23
1342 8
1343 18
1344 8
1345 14
1346 13
1347 4
1348 12
1349 24
1350 5
1351 17
1352 9
1353 5
1354 18
1355 5
1356 3
1357 4
1358 14
1359 32
1360 1
1361 24
1362 1
1363 22
1364 5
1365 4
1366 31
1367 37
1368 4
1369 13
1370 4
1371 41
1372 28
1373 4
1374 4
1375 6
1376 4
1377 26
1378 3
1379 23
1380 27
1381 12
1382 30
1383 29
1384 3
1385 41
1386 35
1387 21
1388 24
1389 25
1390 19
1391 22
1392 4
1393 16
1394 4
1395 18
1396 16
1397 17
1398 20
1399 8
1400 4
1401 8
1402 18
1403 2
1404 21
1405 31
1406 18
1407 37
1408 19
1409 40
1410 36
1411 3
1412 13
1413 14
1414 41
1415 3
1416 13
1417 19
1418 4
1419 6
1420 28
1421 9
1422 4
1423 14
1424 4
1425 3
1426 19
1427 22
1428 14
1429 5
1430 40
1431 30
1432 33
1433 4
1434 26
1435 41
1436 19
1437 32
1438 3
1439 4
1440 25
1441 28
1442 20
1443 32
1444 19
1445 12
1446 2
1447 4
1448 23
1449 34
1450 14
1451 5
1452 9
1453 14
1454 22
1455 20
1456 21
1457 3
1458 19
1459 35
1460 4
1461 4
1462 31
1463 0
1464 9
1465 20
1466 4
1467 1
1468 33
1469 25
1470 1
1471 18
1472 18
1473 13
1474 27
1475 8
1476 4
1477 4
1478 15
1479 4
1480 38
1481 15
1482 40
1483 5
1484 19
1485 3
1486 24
1487 29
1488 13
1489 5
1490 22
1491 11
1492 7
1493 30
1494 24
1495 34
1496 13
1497 3
1498 37
1499 40
1500 4
1501 2
1502 6
1503 22
1504 27
1505 26
1506 37
1507 14
1508 25
1509 2
1510 29
1511 23
1512 4
1513 33
1514 4
1515 4
1516 3
1517 38
1518 24
1519 17
1520 20
1521 33
1522 28
1523 25
1524 34
1525 9
1526 38
1527 12
1528 28
1529 41
1530 32
1531 27
1532 9
1533 25
1534 2
1535 35
1536 16
1537 23
1538 6
1539 28
1540 26
1541 9
1542 4
1543 24
1544 35
1545 24
1546 20
1547 8
1548 28
1549 22
1550 34
1551 5
1552 9
1553 1
1554 9
1555 4
1556 41
1557 4
1558 7
1559 4
1560 28
1561 12
1562 26
1563 3
1564 29
1565 18
1566 19
1567 23
1568 18
1569 14
1570 14
1571 22
1572 40
1573 6
1574 28
1575 3
1576 5
1577 18
1578 27
1579 1
1580 28
1581 3
1582 32
1583 4
1584 37
1585 15
1586 36
1587 26
1588 10
1589 4
1590 18
1591 40
1592 5
1593 5
1594 29
1595 33
1596 6
1597 12
1598 4
1599 24
1600 8
1601 25
1602 20
1603 23
1604 31
1605 1
1606 27
1607 4
1608 27
1609 18
1610 9
1611 4
1612 27
1613 35
1614 10
1615 31
1616 3
1617 16
1618 15
1619 38
1620 33
1621 4
1622 19
1623 15
1624 20
1625 14
1626 12
1627 13
1628 4
1629 4
1630 34
1631 4
1632 27
1633 36
1634 26
1635 30
1636 12
1637 19
1638 12
1639 5
1640 38
1641 14
1642 16
1643 4
1644 25
1645 1
1646 22
1647 18
1648 8
1649 16
1650 4
1651 18
1652 5
1653 5
1654 41
1655 6
1656 36
1657 27
1658 23
1659 31
1660 34
1661 2
1662 8
1663 9
1664 4
1665 4
1666 35
1667 19
1668 9
1669 19
1670 38
1671 37
1672 31
1673 31
1674 0
1675 4
1676 8
1677 8
1678 12
1679 9
1680 23
1681 3
1682 18
1683 4
1684 4
1685 25
1686 1
1687 23
1688 18
1689 2
1690 40
1691 19
1692 4
1693 22
1694 34
1695 34
1696 27
1697 12
1698 32
1699 20
1700 39
1701 1
1702 18
1703 9
1704 19
1705 15
1706 3
1707 15
1708 17
1709 20
1710 31
1711 3
1712 8
1713 38
1714 6
1715 5
1716 17
1717 4
1718 34
1719 34
1720 19
1721 23
1722 15
1723 4
1724 28
1725 21
1726 38
1727 8
1728 25
1729 8
1730 9
1731 4
1732 1
1733 35
1734 10
1735 19
1736 31
1737 9
1738 40
1739 7
1740 33
1741 35
1742 8
1743 16
1744 23
1745 4
1746 27
1747 14
1748 32
1749 25
1750 31
1751 19
1752 13
1753 4
1754 14
1755 2
1756 21
1757 31
1758 5
1759 24
1760 3
1761 14
1762 7
1763 15
1764 34
1765 39
1766 21
1767 5
1768 4
1769 24
1770 9
1771 10
1772 4
1773 34
1774 36
1775 15
1776 5
1777 5
1778 5
1779 30
1780 8
1781 14
1782 2
1783 36
1784 4
1785 16
1786 30
1787 37
1788 4
1789 18
1790 4
1791 13
1792 1
1793 21
1794 28
1795 3
1796 33
1797 0
1798 8
1799 26
1800 20
1801 24
1802 19
1803 24
1804 21
1805 27
1806 20
1807 16
1808 23
1809 27
1810 40
1811 21
1812 4
1813 10
1814 26
1815 4
1816 12
1817 8
1818 20
1819 30
1820 25
1821 7
1822 9
1823 31
1824 4
1825 37
1826 31
1827 3
1828 31
1829 16
1830 24
1831 39
1832 28
1833 9
1834 1
1835 16
1836 28
1837 19
1838 16
1839 3
1840 30
1841 34
1842 32
1843 35
1844 4
1845 23
1846 41
1847 13
1848 24
1849 18
1850 15
1851 4
1852 3
1853 25
1854 4
1855 5
1856 18
1857 12
1858 19
1859 4
1860 37
1861 8
1862 31
1863 4
1864 9
1865 20
1866 18
1867 14
1868 4
1869 4
1870 11
1871 40
1872 40
1873 19
1874 30
1875 28
1876 19
1877 15
1878 34
1879 3
1880 4
1881 37
1882 12
1883 4
1884 36
1885 28
1886 4
1887 1
1888 27
1889 1
1890 4
1891 4
1892 40
1893 4
1894 13
1895 30
1896 4
1897 35
1898 35
1899 8
1900 16
1901 6
1902 3
1903 4
1904 9
1905 19
1906 1
1907 32
1908 29
1909 28
1910 29
1911 22
1912 5
1913 37
1914 0
1915 15
1916 5
1917 2
1918 27
1919 4
1920 28
1921 2
1922 8
1923 16
1924 0
1925 5
1926 38
1927 27
1928 27
1929 8
1930 14
1931 13
1932 3
1933 5
1934 32
1935 38
1936 4
1937 16
1938 32
1939 40
1940 4
1941 28
1942 9
1943 40
1944 22
1945 22
1946 13
1947 32
1948 23
1949 4
1950 17
1951 0
1952 31
1953 20
1954 3
1955 14
1956 0
1957 4
1958 22
1959 29
1960 36
1961 28
1962 2
1963 15
1964 4
1965 3
1966 12
1967 26
1968 15
1969 23
1970 29
1971 40
1972 5
1973 4
1974 20
1975 39
1976 16
1977 6
1978 28
1979 31
1980 4
1981 14
1982 24
1983 26
1984 17
1985 4
1986 16
1987 19
1988 27
1989 4
1990 19
1991 4
1992 32
1993 41
1994 4
1995 23
1996 4
1997 15
1998 36
1999 29
2000 17
2001 18
2002 17
2003 10
2004 40
2005 13
2006 29
2007 25
2008 38
2009 4
2010 19
2011 4
2012 30
2013 0
2014 25
2015 20
2016 4
2017 28
2018 27
2019 16
2020 8
2021 38
2022 28
2023 37
2024 6
2025 7
2026 27
2027 3
2028 12
2029 21
2030 38
2031 24
2032 15
2033 16
2034 40
2035 15
2036 15
2037 5
2038 30
2039 19
2040 36
2041 4
2042 19
2043 4
2044 33
2045 0
2046 38
2047 16
2048 41
2049 39
2050 18
2051 40
2052 18
2053 30
2054 24
2055 3
2056 37
2057 28
2058 12
2059 38
2060 10
2061 9
2062 4
2063 1
2064 28
2065 38
2066 19
2067 18
2068 8
2069 37
2070 19
2071 5
2072 12
2073 25
2074 33
2075 23
2076 5
2077 31
2078 20
2079 15
2080 5
2081 28
2082 40
2083 19
2084 6
2085 23
2086 4
2087 4
2088 31
2089 19
2090 31
2091 8
2092 19
2093 0
2094 4
2095 15
2096 1
2097 9
2098 29
2099 34
2100 18
2101 0
2102 41
2103 29
2104 8
2105 24
2106 29
2107 34
2108 35
2109 29
2110 4
2111 6
2112 28
2113 21
2114 10
2115 12
2116 4
2117 33
2118 11
2119 10
2120 4
2121 29
2122 41
2123 34
2124 37
2125 16
2126 5
2127 12
2128 22
2129 24
2130 27
2131 14
2132 8
2133 23
2134 34
2135 24
2136 24
2137 19
2138 17
2139 20
2140 19
2141 8
2142 41
2143 33
2144 17
2145 18
2146 29
2147 37
2148 17
2149 10
2150 19
2151 30
2152 1
2153 27
2154 38
2155 13
2156 9
2157 37
2158 20
2159 32
2160 15
2161 8
2162 24
2163 20
2164 0
2165 12
2166 23
2167 35
2168 32
2169 5
2170 5
2171 34
2172 8
2173 8
2174 4
2175 2
2176 4
2177 29
2178 11
2179 7
2180 28
2181 23
2182 35
2183 41
2184 38
2185 5
2186 9
2187 25
2188 36
2189 25
2190 7
2191 4
2192 26
2193 12
2194 18
2195 21
2196 4
2197 31
2198 23
2199 1
2200 31
2201 36
2202 3
2203 4
2204 1
2205 28
2206 5
2207 25
2208 15
2209 19
2210 3
2211 27
2212 2
2213 19
2214 9
2215 24
2216 14
2217 37
2218 35
2219 38
2220 12
2221 22
2222 38
2223 35
2224 31
2225 19
2226 4
2227 38
2228 15
2229 19
2230 14
2231 29
2232 2
2233 8
2234 14
2235 32
2236 37
2237 30
2238 19
2239 12
2240 32
2241 19
2242 23
2243 4
2244 38
2245 37
2246 24
2247 17
2248 24
2249 35
2250 38
2251 32
2252 39
2253 29
2254 35
2255 25
2256 0
2257 4
2258 6
2259 41
2260 15
2261 14
2262 23
2263 30
2264 22
2265 4
2266 19
2267 4
2268 1
2269 32
2270 12
2271 31
2272 10
2273 24
2274 22
2275 27
2276 2
2277 26
2278 35
2279 32
2280 20
2281 28
2282 30
2283 20
2284 9
2285 14
2286 35
2287 5
2288 5
2289 22
2290 24
2291 39
2292 0
2293 41
2294 16
2295 1
2296 36
2297 9
2298 34
2299 3
2300 20
2301 6
2302 34
2303 4
2304 12
2305 7
2306 18
2307 36
2308 33
2309 24
2310 4
2311 20
2312 9
2313 18
2314 2
2315 29
2316 7
2317 5
2318 30
2319 8
2320 39
2321 29
2322 8
2323 5
2324 17
2325 14
2326 28
2327 4
2328 23
2329 32
2330 32
2331 2
2332 9
2333 5
2334 19
2335 28
2336 30
2337 20
2338 20
2339 27
2340 23
2341 4
2342 18
2343 4
2344 3
2345 12
2346 4
2347 37
2348 24
2349 26
2350 8
2351 23
2352 22
2353 10
2354 3
2355 4
2356 23
2357 31
2358 24
2359 4
2360 4
2361 19
2362 18
2363 13
2364 5
2365 40
2366 20
2367 4
2368 14
2369 4
2370 14
2371 26
2372 29
2373 4
2374 19
2375 19
2376 38
2377 20
2378 30
2379 0
2380 10
2381 16
2382 23
2383 19
2384 26
2385 9
2386 9
2387 19
2388 13
2389 32
2390 32
2391 19
2392 40
2393 28
2394 17
2395 13
2396 7
2397 39
2398 3
2399 19
2400 15
2401 14
2402 30
2403 9
2404 17
2405 0
2406 1
2407 9
2408 1
2409 13
2410 31
2411 21
2412 6
2413 19
2414 6
2415 14
2416 19
2417 14
2418 12
2419 8
2420 31
2421 4
2422 35
2423 8
2424 4
2425 41
2426 1
2427 22
2428 12
2429 2
2430 4
2431 13
2432 0
2433 5
2434 6
2435 17
2436 28
2437 4
2438 37
2439 29
2440 16
2441 3
2442 4
2443 31
2444 8
2445 28
2446 27
2447 0
2448 25
2449 18
2450 2
2451 6
2452 29
2453 5
2454 24
2455 28
2456 25
2457 9
2458 40
2459 10
2460 39
2461 34
2462 19
2463 19
2464 22
2465 41
2466 5
2467 14
2468 23
2469 4
2470 41
2471 5
2472 12
2473 4
2474 9
2475 33
2476 2
2477 1
2478 14
2479 29
2480 4
2481 24
2482 2
2483 19
2484 9
2485 4
2486 30
2487 15
2488 9
2489 19
2490 32
2491 5
2492 29
2493 2
2494 19
2495 37
2496 5
2497 4
2498 19
2499 19
2500 4
2501 17
2502 4
2503 29
2504 11
2505 4
2506 40
2507 4
2508 38
2509 25
2510 40
2511 12
2512 29
2513 30
2514 4
2515 9
2516 26
2517 4
2518 23
2519 27
2520 19
2521 4
2522 18
2523 13
2524 5
2525 28
2526 21
2527 9
2528 8
2529 4
2530 3
2531 1
2532 9
2533 16
2534 17
2535 32
2536 38
2537 8
2538 29
2539 35
2540 4
2541 38
2542 28
2543 13
2544 1
2545 6
2546 19
2547 4
2548 19
2549 40
2550 39
2551 1
2552 1
2553 14
2554 13
2555 7
2556 32
2557 30
2558 9
2559 28
2560 34
2561 27
2562 24
2563 13
2564 7
2565 34
2566 9
2567 19
2568 29
2569 4
2570 2
2571 4
2572 34
2573 39
2574 20
2575 28
2576 24
2577 31
2578 14
2579 37
2580 38
2581 5
2582 15
2583 17
2584 4
2585 30
2586 4
2587 2
2588 4
2589 29
2590 23
2591 0
2592 13
2593 4
2594 6
2595 20
2596 4
2597 24
2598 4
2599 2
2600 23
2601 9
2602 9
2603 4
2604 38
2605 20
2606 16
2607 4
2608 13
2609 5
2610 9
2611 27
2612 27
2613 15
2614 0
2615 30
2616 3
2617 14
2618 39
2619 4
2620 40
2621 1
2622 1
2623 9
2624 14
2625 14
2626 30
2627 4
2628 8
2629 18
2630 26
2631 29
2632 20
2633 30
2634 1
2635 4
2636 5
2637 8
2638 34
2639 37
2640 14
2641 15
2642 22
2643 18
2644 36
2645 31
2646 26
2647 26
2648 1
2649 14
2650 36
2651 13
2652 2
2653 38
2654 4
2655 17
2656 9
2657 4
2658 6
2659 19
2660 0
2661 3
2662 29
2663 40
2664 20
2665 9
2666 9
2667 41
2668 6
2669 37
2670 28
2671 5
2672 36
2673 18
2674 30
2675 35
2676 36
2677 38
2678 19
2679 21
2680 24
2681 29
2682 3
2683 29
2684 16
2685 30
2686 13
2687 29
2688 8
2689 23
2690 9
2691 5
2692 4
2693 23
2694 4
2695 34
2696 13
2697 34
2698 8
2699 3
2700 4
2701 28
2702 25
2703 14
2704 14
2705 1
2706 3
2707 20
2708 17
2709 30
2710 9
2711 4
2712 38
2713 40
2714 14
2715 31
2716 40
2717 3
2718 18
2719 18
2720 4
2721 14
2722 3
2723 22
2724 7
2725 22
2726 29
2727 17
2728 9
2729 40
2730 3
2731 32
2732 4
2733 23
2734 13
2735 3
2736 4
2737 5
2738 13
2739 8
2740 4
2741 34
2742 4
2743 25
2744 19
2745 16
2746 2
2747 13
2748 32
2749 16
2750 32
2751 1
2752 4
2753 19
2754 17
2755 5
2756 22
2757 3
2758 3
2759 37
2760 26
2761 5
2762 4
2763 35
2764 23
2765 4
2766 21
2767 17
2768 21
2769 27
2770 21
2771 30
2772 4
2773 4
2774 2
2775 4
2776 33
2777 16
2778 18
2779 9
2780 5
2781 24
2782 28
2783 29
2784 19
2785 13
2786 0
2787 12
2788 3
2789 4
2790 16
2791 35
2792 22
2793 4
2794 15
2795 36
2796 1
2797 2
2798 19
2799 41
2800 2
2801 18
2802 16
2803 38
2804 29
2805 2
2806 24
2807 39
2808 30
2809 4
2810 22
2811 20
2812 27
2813 28
2814 16
2815 4
2816 3
2817 37
2818 5
2819 22
2820 8
2821 33
2822 30
2823 32
2824 19
2825 4
2826 4
2827 22
2828 41
2829 2
2830 29
2831 12
2832 10
2833 9
2834 33
2835 4
2836 3
2837 3
2838 20
2839 15
2840 19
2841 26
2842 9
2843 10
2844 3
2845 9
2846 2
2847 7
2848 16
2849 5
2850 20
2851 22
2852 17
2853 36
2854 6
2855 35
2856 40
2857 4
2858 18
2859 18
2860 31
2861 4
2862 4
2863 21
2864 8
2865 32
2866 5
2867 12
2868 4
2869 32
2870 16
2871 18
2872 9
2873 30
2874 32
2875 13
2876 27
2877 4
2878 40
2879 34
2880 8
2881 18
2882 40
2883 31
2884 5
2885 9
2886 3
2887 14
2888 25
2889 17
2890 17
2891 4
2892 20
2893 13
2894 6
2895 4
2896 33
2897 14
2898 2
2899 17
2900 29
2901 34
2902 37
2903 40
2904 16
2905 25
2906 23
2907 29
2908 3
2909 24
2910 13
2911 27
2912 18
2913 15
2914 16
2915 27
2916 10
2917 4
2918 26
2919 4
2920 3
2921 1
2922 4
2923 20
2924 20
2925 24
2926 34
2927 8
2928 36
2929 29
2930 3
2931 14
2932 12
2933 23
2934 3
2935 8
2936 19
2937 27
2938 11
2939 33
2940 29
2941 25
2942 27
2943 19
2944 30
2945 3
2946 4
2947 4
2948 39
2949 18
2950 37
2951 3
2952 5
2953 19
2954 37
2955 16
2956 22
2957 9
2958 4
2959 26
2960 16
2961 30
2962 4
2963 9
2964 28
2965 2
2966 12
2967 14
2968 13
2969 28
2970 2
2971 28
2972 35
2973 15
2974 4
2975 41
2976 20
2977 26
2978 37
2979 35
2980 35
2981 22
2982 4
2983 19
2984 37
2985 10
2986 13
2987 34
2988 14
2989 37
2990 2
2991 12
2992 18
2993 4
2994 9
2995 29
2996 18
2997 17
2998 8
2999 23
3000 8
3001 34
3002 40
3003 0
3004 17
3005 23
3006 24
3007 30
3008 0
3009 9
3010 40
3011 29
3012 33
3013 30
3014 19
3015 4
3016 34
3017 29
3018 15
3019 40
3020 3
3021 19
3022 4
3023 22
3024 20
3025 16
3026 4
3027 36
3028 23
3029 28
3030 9
3031 2
3032 40
3033 14
3034 32
3035 2
3036 35
3037 34
3038 19
3039 24
3040 40
3041 13
3042 4
3043 9
3044 16
3045 20
3046 0
3047 35
3048 4
3049 3
3050 18
3051 4
3052 30
3053 6
3054 4
3055 35
3056 22
3057 5
3058 13
3059 24
3060 36
3061 9
3062 12
3063 22
3064 4
3065 4
3066 19
3067 21
3068 24
3069 30
3070 5
3071 24
3072 4
3073 4
3074 30
3075 36
3076 30
3077 4
3078 9
3079 14
3080 13
3081 4
3082 3
3083 15
3084 36
3085 24
3086 19
3087 37
3088 32
3089 2
3090 30
3091 8
3092 2
3093 33
3094 24
3095 29
3096 19
3097 34
3098 0
3099 40
3100 12
3101 15
3102 7
3103 12
3104 22
3105 1
3106 24
3107 32
3108 10
3109 15
3110 19
3111 30
3112 31
3113 8
3114 25
3115 9
3116 7
3117 4
3118 25
3119 23
3120 27
3121 32
3122 19
3123 16
3124 13
3125 27
3126 39
3127 36
3128 30
3129 5
3130 28
3131 24
3132 4
3133 35
3134 9
3135 38
3136 9
3137 4
3138 19
3139 37
3140 10
3141 26
3142 20
3143 26
3144 6
3145 12
3146 39
3147 10
3148 3
3149 40
3150 19
3151 22
3152 32
3153 14
3154 35
3155 37
3156 11
3157 6
3158 4
3159 20
3160 24
3161 30
3162 9
3163 31
3164 41
3165 0
3166 13
3167 4
3168 12
3169 25
3170 41
3171 19
3172 10
3173 25
3174 4
3175 13
3176 30
3177 9
3178 14
3179 30
3180 25
3181 4
3182 7
3183 37
3184 8
3185 38
3186 4
3187 27
3188 27
3189 24
3190 23
3191 22
3192 13
3193 37
3194 34
3195 10
3196 24
3197 16
3198 25
3199 24
3200 4
3201 38
3202 16
3203 32
3204 30
3205 30
3206 1
3207 37
3208 9
3209 4
3210 40
3211 4
3212 6
3213 0
3214 24
3215 0
3216 8
3217 18
3218 31
3219 21
3220 4
3221 0
3222 29
3223 5
3224 5
3225 31
3226 19
3227 6
3228 32
3229 4
3230 23
3231 8
3232 6
3233 2
3234 4
3235 22
3236 4
3237 19
3238 19
3239 4
3240 19
3241 5
3242 18
3243 5
3244 4
3245 38
3246 29
3247 25
3248 24
3249 4
3250 0
3251 5
3252 38
3253 32
3254 2
3255 40
3256 13
3257 38
3258 19
3259 41
3260 31
3261 5
3262 20
3263 34
3264 34
3265 19
3266 22
3267 36
3268 6
3269 36
3270 18
3271 4
3272 4
3273 39
3274 4
3275 3
3276 26
3277 4
3278 17
3279 30
3280 4
3281 14
3282 38
3283 29
3284 13
3285 4
3286 15
3287 15
3288 25
3289 31
3290 9
3291 21
3292 28
3293 12
3294 30
3295 4
3296 14
3297 13
3298 4
3299 36
3300 4
3301 25
3302 18
3303 26
3304 20
3305 28
3306 8
3307 16
3308 4
3309 13
3310 30
3311 2
3312 14
3313 5
3314 20
3315 19
3316 24
3317 40
3318 14
3319 8
3320 5
3321 19
3322 7
3323 18
3324 40
3325 4
3326 7
3327 7
3328 19
3329 30
3330 4
3331 20
3332 18
3333 11
3334 40
3335 1
3336 18
3337 4
3338 7
3339 28
3340 21
3341 13
3342 20
3343 35
3344 5
3345 4
3346 6
3347 23
3348 2
3349 4
3350 20
3351 35
3352 6
3353 38
3354 31
3355 19
3356 8
3357 29
3358 9
3359 24
3360 5
3361 13
3362 38
3363 38
3364 16
3365 14
3366 5
3367 13
3368 10
3369 34
3370 8
3371 20
3372 14
3373 6
3374 6
3375 8
3376 4
3377 36
3378 20
3379 24
3380 28
3381 36
3382 23
3383 28
3384 4
3385 23
3386 3
3387 1
3388 2
3389 6
3390 22
3391 34
3392 7
3393 34
3394 5
3395 13
3396 5
3397 24
3398 3
3399 23
3400 14
3401 4
3402 1
3403 34
3404 10
3405 4
3406 30
3407 28
3408 19
3409 40
3410 4
3411 19
3412 4
3413 4
3414 24
3415 4
3416 5
3417 9
3418 5
3419 41
3420 19
3421 22
3422 31
3423 22
3424 35
3425 15
3426 30
3427 12
3428 34
3429 32
3430 34
3431 4
3432 29
3433 21
3434 40
3435 8
3436 4
3437 16
3438 4
3439 4
3440 24
3441 22
3442 35
3443 19
3444 19
3445 8
3446 3
3447 4
3448 32
3449 19
3450 35
3451 20
3452 31
3453 19
3454 22
3455 30
3456 21
3457 23
3458 20
3459 9
3460 18
3461 19
3462 15
3463 3
3464 14
3465 6
3466 18
3467 20
3468 9
3469 35
3470 19
3471 38
3472 18
3473 29
3474 0
3475 35
3476 38
3477 18
3478 1
3479 18
3480 40
3481 28
3482 4
3483 18
3484 16
3485 32
3486 8
3487 3
3488 40
3489 13
3490 35
3491 2
3492 29
3493 36
3494 6
3495 38
3496 0
3497 27
3498 9
3499 3
3500 28
3501 9
3502 9
3503 9
3504 37
3505 26
3506 2
3507 23
3508 2
3509 41
3510 1
3511 36
3512 25
3513 12
3514 34
3515 4
3516 22
3517 4
3518 14
3519 25
3520 5
3521 13
3522 28
3523 5
3524 17
3525 18
3526 10
3527 2
3528 23
3529 6
3530 24
3531 3
3532 5
3533 5
3534 18
3535 35
3536 26
3537 19
3538 8
3539 32
3540 28
3541 29
3542 14
3543 28
3544 4
3545 27
3546 20
3547 24
3548 36
3549 28
3550 37
3551 5
3552 19
3553 5
3554 15
3555 36
3556 34
3557 19
3558 19
3559 2
3560 23
3561 23
3562 19
3563 25
3564 5
3565 28
3566 30
3567 32
3568 38
3569 12
3570 16
3571 5
3572 7
3573 36
3574 10
3575 24
3576 7
3577 24
3578 25
3579 30
3580 14
3581 34
3582 4
3583 22
3584 4
3585 27
3586 8
3587 14
3588 7
3589 4
3590 14
3591 15
3592 23
3593 36
3594 40
3595 2
3596 20
3597 30
3598 4
3599 28
3600 15
3601 2
3602 6
3603 14
3604 24
3605 5
3606 30
3607 41
3608 5
3609 37
3610 36
3611 23
3612 37
3613 22
3614 4
3615 37
3616 23
3617 4
3618 13
3619 0
3620 4
3621 4
3622 4
3623 5
3624 14
3625 2
3626 6
3627 11
3628 38
3629 8
3630 34
3631 32
3632 16
3633 2
3634 5
3635 27
3636 13
3637 18
3638 5
3639 9
3640 4
3641 34
3642 37
3643 4
3644 31
3645 40
3646 9
3647 4
3648 20
3649 22
3650 23
3651 35
3652 5
3653 12
3654 24
3655 38
3656 14
3657 3
3658 40
3659 10
3660 23
3661 4
3662 32
3663 3
3664 18
3665 9
3666 40
3667 0
3668 8
3669 22
3670 41
3671 4
3672 30
3673 31
3674 3
3675 17
3676 5
3677 15
3678 6
3679 32
3680 8
3681 19
3682 32
3683 17
3684 9
3685 36
3686 5
3687 4
3688 15
3689 25
3690 9
3691 14
3692 29
3693 38
3694 24
3695 12
3696 32
3697 12
3698 14
3699 5
3700 19
3701 15
3702 4
3703 38
3704 30
3705 34
3706 3
3707 40
3708 6
3709 30
3710 13
3711 14
3712 4
3713 25
3714 38
3715 30
3716 15
3717 20
3718 5
3719 28
3720 4
3721 5
3722 14
3723 3
3724 0
3725 21
3726 25
3727 5
3728 1
3729 4
3730 37
3731 15
3732 4
3733 16
3734 29
3735 9
3736 5
3737 35
3738 29
3739 23
3740 24
3741 5
3742 21
3743 30
3744 29
3745 26
3746 22
3747 29
3748 4
3749 6
3750 35
3751 2
3752 14
3753 29
3754 24
3755 17
3756 31
3757 4
3758 30
3759 37
3760 31
3761 5
3762 27
3763 38
3764 28
3765 8
3766 25
3767 9
3768 2
3769 13
3770 13
3771 8
3772 10
3773 4
3774 29
3775 9
3776 34
3777 20
3778 6
3779 7
3780 4
3781 5
3782 27
3783 19
3784 15
3785 28
3786 16
3787 26
3788 5
3789 37
3790 8
3791 14
3792 14
3793 32
3794 4
3795 31
3796 22
3797 18
3798 9
3799 10
3800 2
3801 22
3802 4
3803 25
3804 40
3805 22
3806 9
3807 4
3808 32
3809 10
3810 4
3811 24
3812 40
3813 19
3814 8
3815 0
3816 35
3817 4
3818 15
3819 5
3820 4
3821 27
3822 16
3823 3
3824 24
3825 12
3826 4
3827 0
3828 24
3829 5
3830 9
3831 15
3832 40
3833 4
3834 5
3835 34
3836 0
3837 20
3838 14
3839 38
3840 5
3841 18
3842 14
3843 3
3844 4
3845 28
3846 19
3847 4
3848 26
3849 5
3850 26
3851 12
3852 3
3853 5
3854 12
3855 32
3856 27
3857 12
3858 14
3859 37
3860 12
3861 29
3862 24
3863 2
3864 23
3865 28
3866 13
3867 24
3868 40
3869 4
3870 32
3871 4
3872 17
3873 27
3874 15
3875 38
3876 39
3877 32
3878 31
3879 24
3880 4
3881 5
3882 15
3883 38
3884 4
3885 12
3886 35
3887 19
3888 32
3889 32
3890 5
3891 0
3892 3
3893 29
3894 29
3895 15
3896 23
3897 17
3898 29
3899 4
3900 25
3901 2
3902 18
3903 18
3904 11
3905 30
3906 21
3907 19
3908 20
3909 38
3910 15
3911 9
3912 3
3913 28
3914 22
3915 29
3916 25
3917 18
3918 9
3919 22
3920 4
3921 34
3922 18
3923 9
3924 30
3925 38
3926 11
3927 18
3928 38
3929 15
3930 16
3931 30
3932 39
3933 5
3934 14
3935 12
3936 22
3937 5
3938 14
3939 10
3940 22
3941 39
3942 34
3943 31
3944 7
3945 16
3946 2
3947 4
3948 23
3949 7
3950 4
3951 9
3952 13
3953 15
3954 15
3955 6
3956 5
3957 28
3958 3
3959 6
3960 27
3961 4
3962 4
3963 16
3964 22
3965 37
3966 4
3967 29
3968 12
3969 30
3970 10
3971 3
3972 4
3973 16
3974 28
3975 33
3976 27
3977 4
3978 31
3979 33
3980 34
3981 25
3982 23
3983 38
3984 17
3985 26
3986 6
3987 35
3988 37
3989 35
3990 19
3991 10
3992 4
3993 9
3994 28
3995 15
3996 15
3997 5
3998 38
3999 0
4000 1
4001 5
4002 9
4003 20
4004 40
4005 15
4006 7
4007 20
4008 2
4009 35
4010 35
4011 27
4012 27
4013 0
4014 7
4015 18
4016 4
4017 14
4018 2
4019 18
4020 24
4021 4
4022 24
4023 4
4024 20
4025 30
4026 3
4027 37
4028 22
4029 18
4030 27
4031 14
4032 31
4033 19
4034 34
4035 9
4036 28
4037 24
4038 4
4039 1
4040 23
4041 1
4042 5
4043 26
4044 35
4045 9
4046 19
4047 40
4048 3
4049 30
4050 40
4051 14
4052 4
4053 5
4054 6
4055 2
4056 5
4057 4
4058 16
4059 30
4060 8
4061 18
4062 18
4063 0
4064 8
4065 26
4066 16
4067 19
4068 9
4069 22
4070 22
4071 28
4072 0
4073 17
4074 4
4075 4
4076 19
4077 24
4078 30
4079 23
4080 31
4081 2
4082 32
4083 23
4084 6
4085 17
4086 30
4087 14
4088 27
4089 9
4090 19
4091 18
4092 4
4093 16
4094 37
4095 4
4096 15
4097 15
4098 17
4099 15
4100 4
4101 31
4102 33
4103 12
4104 9
4105 4
4106 34
4107 5
4108 11
4109 30
4110 38
4111 17
4112 28
4113 28
4114 12
4115 22
4116 16
4117 21
4118 9
4119 1
4120 28
4121 33
4122 4
4123 3
4124 8
4125 4
4126 15
4127 40
4128 18
4129 1
4130 19
4131 19
4132 10
4133 9
4134 9
4135 32
4136 26
4137 4
4138 4
4139 19
4140 3
4141 23
4142 40
4143 16
4144 13
4145 18
4146 13
4147 27
4148 32
4149 4
4150 27
4151 4
4152 24
4153 12
4154 16
4155 24
4156 21
4157 24
4158 17
4159 40
4160 37
4161 16
4162 19
4163 13
4164 25
4165 36
4166 11
4167 19
4168 28
4169 1
4170 19
4171 30
4172 4
4173 30
4174 18
4175 27
4176 38
4177 19
4178 25
4179 10
4180 30
4181 9
4182 29
4183 28
4184 5
4185 19
4186 31
4187 4
4188 40
4189 15
4190 4
4191 18
4192 7
4193 14
4194 38
4195 11
4196 35
4197 21
4198 39
4199 22
4200 40
4201 27
4202 21
4203 15
4204 2
4205 5
4206 4
4207 5
4208 32
4209 22
4210 5
4211 3
4212 4
4213 14
4214 40
4215 14
4216 37
4217 32
4218 4
4219 8
4220 25
4221 9
4222 37
4223 34
4224 1
4225 35
4226 4
4227 13
4228 4
4229 19
4230 36
4231 24
4232 32
4233 5
4234 23
4235 29
4236 28
4237 40
4238 18
4239 14
4240 9
4241 27
4242 22
4243 3
4244 20
4245 3
4246 37
4247 40
4248 23
4249 9
4250 0
4251 4
4252 25
4253 8
4254 12
4255 14
4256 18
4257 4
4258 9
4259 2
4260 5
4261 1
4262 3
4263 24
4264 9
4265 30
4266 31
4267 4
4268 5
4269 18
4270 26
4271 8
4272 13
4273 0
4274 4
4275 36
4276 28
4277 22
4278 14
4279 35
4280 18
4281 38
4282 39
4283 24
4284 4
4285 36
4286 24
4287 4
4288 34
4289 30
4290 4
4291 6
4292 23
4293 6
4294 16
4295 31
4296 19
4297 21
4298 7
4299 23
4300 13
4301 2
4302 4
4303 4
4304 29
4305 14
4306 8
4307 7
4308 9
4309 18
4310 3
4311 13
4312 2
4313 13
4314 4
4315 12
4316 15
4317 38
4318 8
4319 19
4320 3
4321 12
4322 9
4323 4
4324 20
4325 9
4326 40
4327 18
4328 15
4329 4
4330 9
4331 19
4332 16
4333 4
4334 4
4335 37
4336 40
4337 30
4338 18
4339 33
4340 25
4341 4
4342 14
4343 28
4344 0
4345 28
4346 4
4347 28
4348 28
4349 23
4350 21
4351 4
4352 34
4353 24
4354 23
4355 22
4356 1
4357 5
4358 2
4359 4
4360 30
4361 21
4362 18
4363 9
4364 11
4365 4
4366 3
4367 29
4368 12
4369 20
4370 4
4371 35
4372 4
4373 34
4374 14
4375 5
4376 20
4377 1
4378 17
4379 26
4380 27
4381 8
4382 14
4383 8
4384 29
4385 40
4386 23
4387 8
4388 8
4389 39
4390 26
4391 22
4392 23
4393 15
4394 29
4395 39
4396 5
4397 24
4398 3
4399 10
4400 12
4401 28
4402 31
4403 4
4404 12
4405 24
4406 6
4407 3
4408 28
4409 0
4410 31
4411 34
4412 19
4413 21
4414 29
4415 24
4416 30
4417 40
4418 27
4419 14
4420 38
4421 40
4422 13
4423 9
4424 40
4425 34
4426 1
4427 18
4428 22
4429 20
4430 4
4431 20
4432 22
4433 7
4434 37
4435 19
4436 4
4437 4
4438 15
4439 4
4440 11
4441 32
4442 20
4443 2
4444 5
4445 4
4446 35
4447 5
4448 12
4449 6
4450 8
4451 4
4452 17
4453 4
4454 32
4455 40
4456 30
4457 4
4458 13
4459 32
4460 28
4461 35
4462 4
4463 20
4464 29
4465 30
4466 5
4467 13
4468 35
4469 20
4470 34
4471 13
4472 5
4473 31
4474 40
4475 35
4476 34
4477 25
4478 14
4479 7
4480 14
4481 35
4482 4
4483 4
4484 7
4485 4
4486 35
4487 19
4488 23
4489 17
4490 9
4491 21
4492 2
4493 16
4494 17
4495 3
4496 35
4497 24
4498 37
4499 30
4500 38
4501 27
4502 3
4503 23
4504 4
4505 18
4506 15
4507 14
4508 17
4509 2
4510 14
4511 32
4512 16
4513 20
4514 13
4515 20
4516 21
4517 35
4518 41
4519 9
4520 38
4521 18
4522 4
4523 5
4524 4
4525 4
4526 10
4527 36
4528 34
4529 34
4530 4
4531 22
4532 24
4533 15
4534 31
4535 4
4536 24
4537 1
4538 29
4539 14
4540 18
4541 6
4542 3
4543 0
4544 17
4545 15
4546 34
4547 24
4548 7
4549 6
4550 5
4551 19
4552 15
4553 20
4554 31
4555 4
4556 41
4557 38
4558 17
4559 36
4560 17
4561 21
4562 14
4563 2
4564 5
4565 1
4566 13
4567 35
4568 4
4569 5
4570 32
4571 9
4572 4
4573 24
4574 40
4575 1
4576 3
4577 40
4578 19
4579 17
4580 36
4581 17
4582 32
4583 19
4584 35
4585 11
4586 8
4587 25
4588 29
4589 31
4590 10
4591 3
4592 32
4593 28
4594 26
4595 40
4596 4
4597 4
4598 23
4599 14
4600 19
4601 14
4602 5
4603 19
4604 3
4605 24
4606 20
4607 7
4608 39
4609 19
4610 8
4611 9
4612 9
4613 1
4614 9
4615 13
4616 32
4617 21
4618 34
4619 34
4620 25
4621 4
4622 4
4623 9
4624 29
4625 20
4626 17
4627 14
4628 8
4629 32
4630 20
4631 27
4632 5
4633 27
4634 30
4635 19
4636 23
4637 24
4638 27
4639 28
4640 31
4641 30
4642 18
4643 4
4644 35
4645 8
4646 6
4647 10
4648 22
4649 5
4650 32
4651 4
4652 13
4653 34
4654 16
4655 38
4656 4
4657 41
4658 25
4659 20
4660 23
4661 29
4662 9
4663 24
4664 13
4665 14
4666 5
4667 5
4668 30
4669 5
4670 22
4671 22
4672 30
4673 10
4674 23
4675 3
4676 22
4677 8
4678 23
4679 9
4680 13
4681 19
4682 4
4683 19
4684 10
4685 17
4686 17
4687 34
4688 9
4689 9
4690 19
4691 38
4692 3
4693 13
4694 35
4695 37
4696 4
4697 29
4698 35
4699 24
4700 23
4701 38
4702 20
4703 16
4704 5
4705 30
4706 5
4707 32
4708 5
4709 38
4710 14
4711 5
4712 2
4713 28
4714 20
4715 12
4716 7
4717 28
4718 29
4719 4
4720 22
4721 27
4722 18
4723 34
4724 27
4725 28
4726 9
4727 36
4728 19
4729 28
4730 35
4731 36
4732 5
4733 28
4734 32
4735 2
4736 20
4737 9
4738 0
4739 4
4740 34
4741 18
4742 23
4743 9
4744 34
4745 9
4746 19
4747 24
4748 14
4749 36
4750 25
4751 17
4752 4
4753 4
4754 5
4755 1
4756 17
4757 32
4758 5
4759 20
4760 4
4761 25
4762 38
4763 8
4764 3
4765 29
4766 31
4767 14
4768 15
4769 4
4770 30
4771 23
4772 27
4773 19
4774 5
4775 3
4776 11
4777 29
4778 33
4779 39
4780 0
4781 12
4782 38
4783 17
4784 4
4785 4
4786 31
4787 7
4788 37
4789 9
4790 20
4791 34
4792 9
4793 4
4794 10
4795 20
4796 22
4797 1
4798 21
4799 11
4800 39
4801 31
4802 22
4803 18
4804 22
4805 27
4806 6
4807 32
4808 7
4809 2
4810 20
4811 18
4812 8
4813 13
4814 37
4815 4
4816 20
4817 26
4818 17
4819 22
4820 4
4821 3
4822 36
4823 4
4824 3
4825 1
4826 2
4827 38
4828 2
4829 16
4830 40
4831 3
4832 32
4833 14
4834 0
4835 36
4836 35
4837 23
4838 1
4839 19
4840 40
4841 19
4842 7
4843 23
4844 11
4845 18
4846 31
4847 14
4848 4
4849 5
4850 26
4851 13
4852 32
4853 24
4854 22
4855 36
4856 15
4857 34
4858 6
4859 17
4860 4
4861 38
4862 34
4863 18
4864 23
4865 14
4866 16
4867 8
4868 31
4869 19
4870 15
4871 35
4872 15
4873 13
4874 9
4875 13
4876 21
4877 5
4878 5
4879 22
4880 5
4881 5
4882 14
4883 27
4884 15
4885 27
4886 32
4887 4
4888 18
4889 28
4890 4
4891 17
4892 22
4893 30
4894 6
4895 24
4896 3
4897 32
4898 5
4899 35
4900 8
4901 28
4902 4
4903 24
4904 9
4905 28
4906 9
4907 31
4908 28
4909 28
4910 9
4911 25
4912 9
4913 5
4914 35
4915 3
4916 23
4917 2
4918 4
4919 14
4920 18
4921 15
4922 18
4923 9
4924 29
4925 23
4926 40
4927 15
4928 4
4929 21
4930 7
4931 4
4932 0
4933 5
4934 38
4935 25
4936 14
4937 4
4938 21
4939 30
4940 1
4941 17
4942 39
4943 15
4944 3
4945 37
4946 20
4947 23
4948 4
4949 24
4950 12
4951 34
4952 26
4953 17
4954 8
4955 3
4956 23
4957 21
4958 28
4959 35
4960 4
4961 37
4962 30
4963 25
4964 20
4965 4
4966 22
4967 36
4968 24
4969 18
4970 34
4971 3
4972 11
4973 5
4974 28
4975 0
4976 28
4977 9
4978 39
4979 40
4980 8
4981 2
4982 10
4983 2
4984 15
4985 37
4986 4
4987 1
4988 4
4989 28
4990 16
4991 24
4992 12
4993 4
4994 17
4995 4
4996 10
4997 30
4998 3
4999 18
5000 26
5001 9
5002 3
5003 28
5004 7
5005 4
5006 19
5007 18
5008 6
5009 24
5010 9
5011 4
5012 27
5013 0
5014 3
5015 4
5016 6
5017 14
5018 13
5019 34
5020 4
5021 24
5022 34
5023 19
5024 5
5025 4
5026 37
5027 14
5028 19
5029 4
5030 4
5031 3
5032 3
5033 39
5034 9
5035 19
5036 8
5037 4
5038 31
5039 18
5040 6
5041 20
5042 32
5043 32
5044 6
5045 40
5046 23
5047 10
5048 15
5049 30
5050 9
5051 28
5052 36
5053 8
5054 18
5055 30
5056 8
5057 39
5058 12
5059 23
5060 21
5061 36
5062 27
5063 5
5064 18
5065 11
5066 5
5067 8
5068 15
5069 34
5070 4
5071 16
5072 7
5073 12
5074 40
5075 20
5076 15
5077 20
5078 21
5079 30
5080 29
5081 34
5082 18
5083 4
5084 27
5085 34
5086 34
5087 13
5088 4
5089 14
5090 12
5091 17
5092 11
5093 38
5094 36
5095 4
5096 14
5097 12
5098 2
5099 28
5100 24
5101 28
5102 22
5103 28
5104 29
5105 11
5106 9
5107 21
5108 40
5109 23
5110 3
5111 29
5112 26
5113 5
5114 38
5115 14
5116 20
5117 38
5118 2
5119 4
5120 20
5121 23
5122 5
5123 6
5124 0
5125 13
5126 15
5127 19
5128 20
5129 4
5130 37
5131 15
5132 30
5133 30
5134 5
5135 37
5136 26
5137 17
5138 27
5139 24
5140 6
5141 33
5142 13
5143 39
5144 38
5145 14
5146 4
5147 36
5148 15
5149 33
5150 30
5151 13
5152 14
5153 41
5154 4
5155 28
5156 4
5157 4
5158 10
5159 12
5160 26
5161 4
5162 28
5163 20
5164 19
5165 16
5166 4
5167 14
5168 9
5169 0
5170 22
5171 23
5172 29
5173 19
5174 14
5175 14
5176 30
5177 3
5178 4
5179 25
5180 40
5181 12
5182 5
5183 23
5184 37
5185 28
5186 32
5187 21
5188 4
5189 29
5190 4
5191 23
5192 3
5193 5
5194 38
5195 21
5196 14
5197 35
5198 40
5199 4
5200 22
5201 33
5202 28
5203 27
5204 11
5205 30
5206 15
5207 3
5208 30
5209 25
5210 22
5211 6
5212 31
5213 5
5214 19
5215 41
5216 6
5217 24
5218 27
5219 2
5220 10
5221 5
5222 27
5223 6
5224 26
5225 24
5226 16
5227 35
5228 16
5229 16
5230 10
5231 18
5232 31
5233 26
5234 1
5235 27
5236 38
5237 8
5238 19
5239 39
5240 21
5241 0
5242 21
5243 6
5244 24
5245 15
5246 21
5247 0
5248 8
5249 3
5250 4
5251 7
5252 22
5253 4
5254 24
5255 40
5256 14
5257 2
5258 4
5259 25
5260 20
5261 34
5262 7
5263 6
5264 6
5265 7
5266 8
5267 27
5268 39
5269 5
5270 14
5271 4
5272 26
5273 1
5274 4
5275 16
5276 38
5277 28
5278 24
5279 9
5280 29
5281 22
5282 19
5283 36
5284 0
5285 20
5286 10
5287 24
5288 2
5289 24
5290 7
5291 18
5292 5
5293 4
5294 31
5295 40
5296 24
5297 30
5298 19
5299 15
5300 28
5301 15
5302 24
5303 16
5304 5
5305 32
5306 16
5307 3
5308 1
5309 11
5310 9
5311 41
5312 20
5313 22
5314 28
5315 24
5316 14
5317 18
5318 25
5319 4
5320 24
5321 19
5322 28
5323 4
5324 18
5325 6
5326 19
5327 5
5328 39
5329 32
5330 12
5331 31
5332 22
5333 21
5334 4
5335 27
5336 36
5337 38
5338 29
5339 20
5340 1
5341 12
5342 29
5343 11
5344 20
5345 16
5346 37
5347 15
5348 12
5349 23
5350 7
5351 6
5352 19
5353 12
5354 17
5355 25
5356 2
5357 16
5358 3
5359 25
5360 4
5361 3
5362 39
5363 16
5364 32
5365 29
5366 14
5367 3
5368 9
5369 30
5370 35
5371 26
5372 25
5373 4
5374 23
5375 24
5376 4
5377 22
5378 16
5379 35
5380 3
5381 18
5382 16
5383 15
5384 0
5385 14
5386 4
5387 4
5388 4
5389 27
5390 37
5391 18
5392 8
5393 0
5394 31
5395 17
5396 41
5397 12
5398 19
5399 36
5400 34
5401 21
5402 26
5403 4
5404 22
5405 4
5406 4
5407 19
5408 22
5409 19
5410 20
5411 12
5412 30
5413 4
5414 27
5415 7
5416 4
5417 30
5418 10
5419 3
5420 9
5421 0
5422 5
5423 19
5424 23
5425 9
5426 29
5427 38
5428 22
5429 3
5430 28
5431 3
5432 4
5433 27
5434 29
5435 29
5436 4
5437 14
5438 35
5439 35
5440 3
5441 3
5442 19
5443 20
5444 4
5445 8
5446 4
5447 22
5448 34
5449 11
5450 5
5451 38
5452 38
5453 35
5454 38
5455 21
5456 41
5457 30
5458 18
5459 24
5460 36
5461 25
5462 28
5463 19
5464 8
5465 27
5466 25
5467 32
5468 36
5469 3
5470 31
5471 33
5472 35
5473 14
5474 40
5475 37
5476 38
5477 37
5478 20
5479 35
5480 13
5481 9
5482 35
5483 20
5484 26
5485 11
5486 4
5487 13
5488 38
5489 18
5490 3
5491 33
5492 4
5493 31
5494 28
5495 33
5496 20
5497 40
5498 32
5499 25
5500 27
5501 39
5502 29
5503 18
5504 6
5505 15
5506 8
5507 17
5508 18
5509 28
5510 12
5511 0
5512 16
5513 17
5514 25
5515 28
5516 41
5517 19
5518 23
5519 26
5520 18
5521 5
5522 13
5523 25
5524 41
5525 14
5526 18
5527 1
5528 8
5529 33
5530 33
5531 29
5532 18
5533 18
5534 6
5535 5
5536 9
5537 24
5538 39
5539 26
5540 4
5541 5
5542 37
5543 19
5544 36
5545 33
5546 4
5547 4
5548 19
5549 25
5550 6
5551 7
5552 28
5553 30
5554 33
5555 5
5556 31
5557 4
5558 31
5559 10
5560 5
5561 31
5562 27
5563 30
5564 20
5565 6
5566 5
5567 9
5568 3
5569 40
5570 38
5571 17
5572 17
5573 31
5574 26
5575 34
5576 4
5577 38
5578 10
5579 4
5580 4
5581 27
5582 29
5583 5
5584 17
5585 35
5586 13
5587 34
5588 8
5589 38
5590 22
5591 32
5592 22
5593 3
5594 29
5595 4
5596 35
5597 23
5598 23
5599 31
5600 28
5601 26
5602 10
5603 34
5604 38
5605 12
5606 13
5607 32
5608 6
5609 40
5610 31
5611 30
5612 9
5613 5
5614 23
5615 40
5616 17
5617 40
5618 16
5619 34
5620 19
5621 9
5622 40
5623 26
5624 5
5625 9
5626 14
5627 14
5628 24
5629 17
5630 9
5631 15
5632 35
5633 36
5634 34
5635 14
5636 2
5637 8
5638 26
5639 20
5640 0
5641 23
5642 34
5643 4
5644 32
5645 9
5646 31
5647 4
5648 38
5649 12
5650 0
5651 17
5652 6
5653 25
5654 15
5655 7
5656 25
5657 21
5658 4
5659 13
5660 3
5661 33
5662 24
5663 3
5664 4
5665 38
5666 31
5667 9
5668 23
5669 32
5670 19
5671 34
5672 6
5673 31
5674 16
5675 19
5676 38
5677 27
5678 4
5679 6
5680 12
5681 17
5682 38
5683 13
5684 0
5685 5
5686 13
5687 9
5688 12
5689 5
5690 18
5691 30
5692 27
5693 22
5694 7
5695 16
5696 20
5697 4
5698 7
5699 33
5700 17
5701 32
5702 33
5703 23
5704 19
5705 19
5706 21
5707 31
5708 3
5709 22
5710 41
5711 15
5712 25
5713 27
5714 23
5715 18
5716 23
5717 31
5718 30
5719 4
5720 30
5721 32
5722 6
5723 4
5724 21
5725 18
5726 22
5727 34
5728 19
5729 3
5730 17
5731 5
5732 24
5733 1
5734 37
5735 6
5736 20
5737 38
5738 28
5739 23
5740 4
5741 17
5742 5
5743 21
5744 4
5745 29
5746 4
5747 5
5748 30
5749 9
5750 27
5751 13
5752 4
5753 15
5754 14
5755 28
5756 23
5757 28
5758 30
5759 6
5760 4
5761 25
5762 19
5763 29
5764 17
5765 22
5766 29
5767 25
5768 18
5769 1
5770 15
5771 35
5772 10
5773 15
5774 1
5775 31
5776 11
5777 12
5778 40
5779 0
5780 32
5781 7
5782 19
5783 3
5784 22
5785 32
5786 6
5787 12
5788 31
5789 23
5790 28
5791 24
5792 16
5793 4
5794 16
5795 30
5796 25
5797 40
5798 27
5799 34
5800 2
5801 5
5802 5
5803 14
5804 6
5805 28
5806 4
5807 9
5808 4
5809 0
5810 3
5811 8
5812 12
5813 1
5814 6
5815 14
5816 8
5817 26
5818 30
5819 32
5820 3
5821 32
5822 20
5823 1
5824 6
5825 21
5826 8
5827 35
5828 20
5829 1
5830 8
5831 28
5832 30
5833 26
5834 28
5835 21
5836 10
5837 4
5838 28
5839 28
5840 30
5841 14
5842 4
5843 4
5844 16
5845 14
5846 5
5847 22
5848 40
5849 16
5850 34
5851 0
5852 18
5853 25
5854 1
5855 20
5856 3
5857 30
5858 25
5859 20
5860 14
5861 20
5862 34
5863 14
5864 17
5865 16
5866 15
5867 6
5868 13
5869 12
5870 27
5871 27
5872 22
5873 26
5874 0
5875 4
5876 14
5877 40
5878 19
5879 29
5880 19
5881 4
5882 23
5883 20
5884 22
5885 16
5886 35
5887 20
5888 16
5889 4
5890 27
5891 14
5892 8
5893 9
5894 37
5895 26
5896 8
5897 26
5898 24
5899 28
5900 26
5901 4
5902 36
5903 28
5904 3
5905 40
5906 18
5907 29
5908 32
5909 12
5910 17
5911 18
5912 19
5913 27
5914 4
5915 27
5916 8
5917 38
5918 37
5919 36
5920 9
5921 16
5922 35
5923 30
5924 33
5925 4
5926 12
5927 5
5928 4
5929 14
5930 8
5931 23
5932 38
5933 24
5934 4
5935 34
5936 22
5937 27
5938 4
5939 19
5940 10
5941 4
5942 19
5943 21
5944 9
5945 38
5946 4
5947 13
5948 2
5949 39
5950 35
5951 23
5952 28
5953 5
5954 16
5955 22
5956 30
5957 9
5958 4
5959 12
5960 4
5961 25
5962 14
5963 4
5964 4
5965 5
5966 4
5967 4
5968 4
5969 8
5970 38
5971 29
5972 5
5973 5
5974 18
5975 5
5976 34
5977 31
5978 1
5979 0
5980 22
5981 40
5982 13
5983 4
5984 4
5985 38
5986 4
5987 12
5988 38
5989 25
5990 28
5991 1
5992 36
5993 21
5994 19
5995 38
5996 3
5997 40
5998 29
5999 36
6000 4
6001 31
6002 4
6003 13
6004 5
6005 19
6006 18
6007 20
6008 15
6009 27
6010 41
6011 23
6012 0
6013 35
6014 14
6015 4
6016 1
6017 32
6018 4
6019 9
6020 26
6021 30
6022 5
6023 4
6024 4
6025 3
6026 20
6027 26
6028 33
6029 5
6030 36
6031 38
6032 28
6033 23
6034 17
6035 4
6036 4
6037 7
6038 38
6039 29
6040 9
6041 32
6042 23
6043 5
6044 14
6045 25
6046 35
6047 18
6048 3
6049 4
6050 29
6051 18
6052 34
6053 4
6054 15
6055 5
6056 28
6057 4
6058 10
6059 4
6060 30
6061 28
6062 0
6063 1
6064 15
6065 4
6066 19
6067 15
6068 22
6069 18
6070 5
6071 34
6072 32
6073 8
6074 0
6075 1
6076 32
6077 15
6078 36
6079 25
6080 5
6081 4
6082 19
6083 27
6084 36
6085 22
6086 11
6087 7
6088 19
6089 13
6090 28
6091 14
6092 18
6093 1
6094 30
6095 32
6096 1
6097 4
6098 12
6099 0
6100 4
6101 1
6102 35
6103 4
6104 13
6105 23
6106 14
6107 39
6108 8
6109 19
6110 14
6111 34
6112 32
6113 15
6114 3
6115 6
6116 7
6117 13
6118 4
6119 12
6120 6
6121 4
6122 19
6123 40
6124 27
6125 34
6126 38
6127 12
6128 2
6129 40
6130 8
6131 8
6132 14
6133 11
6134 18
6135 4
6136 12
6137 16
6138 9
6139 25
6140 3
6141 4
6142 22
6143 25
6144 7
6145 3
6146 12
6147 22
6148 35
6149 9
6150 14
6151 28
6152 21
6153 25
6154 4
6155 15
6156 5
6157 3
6158 18
6159 3
6160 4
6161 25
6162 4
6163 12
6164 23
6165 30
6166 4
6167 25
6168 9
6169 10
6170 4
6171 23
6172 6
6173 26
6174 40
6175 10
6176 20
6177 1
6178 4
6179 34
6180 7
6181 37
6182 3
6183 30
6184 34
6185 15
6186 3
6187 4
6188 40
6189 24
6190 2
6191 12
6192 3
6193 18
6194 4
6195 38
6196 6
6197 8
6198 9
6199 4
6200 5
6201 14
6202 41
6203 6
6204 4
6205 17
6206 16
6207 35
6208 24
6209 5
6210 41
6211 30
6212 4
6213 7
6214 1
6215 35
6216 19
6217 0
6218 10
6219 32
6220 20
6221 29
6222 5
6223 4
6224 40
6225 40
6226 13
6227 7
6228 25
6229 1
6230 19
6231 34
6232 4
6233 29
6234 27
6235 32
6236 38
6237 37
6238 3
6239 33
6240 25
6241 14
6242 13
6243 28
6244 4
6245 4
6246 34
6247 31
6248 5
6249 35
6250 35
6251 30
6252 23
6253 9
6254 4
6255 15
6256 25
6257 21
6258 4
6259 8
6260 12
6261 5
6262 36
6263 39
6264 13
6265 31
6266 5
6267 5
6268 24
6269 2
6270 35
6271 8
6272 28
6273 34
6274 25
6275 18
6276 4
6277 5
6278 4
6279 5
6280 39
6281 0
6282 24
6283 5
6284 26
6285 5
6286 18
6287 20
6288 28
6289 23
6290 29
6291 4
6292 25
6293 11
6294 1
6295 28
6296 4
6297 15
6298 28
6299 6
6300 4
6301 13
6302 16
6303 33
6304 5
6305 31
6306 4
6307 34
6308 18
6309 27
6310 27
6311 9
6312 1
6313 20
6314 4
6315 5
6316 4
6317 30
6318 30
6319 37
6320 5
6321 9
6322 19
6323 19
6324 14
6325 16
6326 23
6327 24
6328 3
6329 4
6330 34
6331 31
6332 32
6333 29
6334 4
6335 8
6336 19
6337 18
6338 36
6339 28
6340 28
6341 4
6342 6
6343 12
6344 31
6345 16
6346 19
6347 17
6348 32
6349 4
6350 5
6351 19
6352 22
6353 18
6354 28
6355 30
6356 14
6357 9
6358 27
6359 31
6360 37
6361 9
6362 27
6363 18
6364 5
6365 15
6366 23
6367 13
6368 4
6369 28
6370 16
6371 25
6372 19
6373 4
6374 0
6375 21
6376 16
6377 0
6378 3
6379 33
6380 9
6381 25
6382 20
6383 4
6384 3
6385 5
6386 30
6387 22
6388 38
6389 26
6390 14
6391 1
6392 25
6393 32
6394 19
6395 5
6396 10
6397 8
6398 4
6399 12
6400 4
6401 28
6402 22
6403 25
6404 21
6405 2
6406 19
6407 34
6408 1
6409 16
6410 40
6411 8
6412 17
6413 8
6414 18
6415 1
6416 3
6417 24
6418 8
6419 4
6420 36
6421 21
6422 30
6423 23
6424 31
6425 20
6426 14
6427 9
6428 9
6429 26
6430 17
6431 41
6432 3
6433 25
6434 20
6435 28
6436 37
6437 4
6438 28
6439 5
6440 36
6441 40
6442 40
6443 38
6444 12
6445 9
6446 14
6447 36
6448 1
6449 24
6450 24
6451 38
6452 4
6453 24
6454 4
6455 15
6456 19
6457 6
6458 20
6459 26
6460 22
6461 28
6462 4
6463 27
6464 5
6465 24
6466 4
6467 26
6468 18
6469 16
6470 8
6471 30
6472 2
6473 18
6474 4
6475 14
6476 27
6477 15
6478 5
6479 15
6480 33
6481 5
6482 20
6483 19
6484 35
6485 5
6486 38
6487 33
6488 40
6489 14
6490 15
6491 12
6492 5
6493 36
6494 13
6495 22
6496 25
6497 18
6498 30
6499 2
6500 40
6501 12
6502 34
6503 23
6504 12
6505 9
6506 28
6507 25
6508 4
6509 25
6510 23
6511 32
6512 22
6513 31
6514 35
6515 22
6516 3
6517 0
6518 15
6519 25
6520 26
6521 40
6522 4
6523 31
6524 30
6525 41
6526 2
6527 36
6528 22
6529 27
6530 15
6531 7
6532 28
6533 8
6534 30
6535 28
6536 36
6537 4
6538 30
6539 28
6540 37
6541 4
6542 4
6543 22
6544 4
6545 13
6546 24
6547 26
6548 35
6549 22
6550 17
6551 18
6552 30
6553 25
6554 9
6555 2
6556 4
6557 19
6558 24
6559 31
6560 20
6561 7
6562 9
6563 28
6564 12
6565 29
6566 5
6567 20
6568 14
6569 8
6570 35
6571 12
6572 30
6573 4
6574 11
6575 38
6576 22
6577 38
6578 0
6579 24
6580 38
6581 27
6582 39
6583 35
6584 40
6585 1
6586 9
6587 40
6588 4
6589 14
6590 26
6591 5
6592 4
6593 29
6594 23
6595 30
6596 41
6597 36
6598 23
6599 19
6600 4
6601 26
6602 4
6603 9
6604 4
6605 26
6606 6
6607 22
6608 40
6609 8
6610 8
6611 31
6612 32
6613 27
6614 14
6615 4
6616 24
6617 25
6618 39
6619 36
6620 8
6621 24
6622 5
6623 38
6624 25
6625 10
6626 20
6627 38
6628 13
6629 5
6630 3
6631 19
6632 14
6633 25
6634 34
6635 29
6636 32
6637 22
6638 26
6639 34
6640 24
6641 8
6642 6
6643 24
6644 21
6645 27
6646 29
6647 10
6648 18
6649 7
6650 31
6651 18
6652 10
6653 37
6654 28
6655 14
6656 40
6657 6
6658 34
6659 9
6660 35
6661 38
6662 38
6663 9
6664 16
6665 18
6666 35
6667 6
6668 4
6669 35
6670 22
6671 26
6672 9
6673 4
6674 35
6675 29
6676 20
6677 9
6678 6
6679 30
6680 4
6681 28
6682 4
6683 8
6684 3
6685 14
6686 31
6687 17
6688 9
6689 12
6690 12
6691 28
6692 28
6693 6
6694 35
6695 4
6696 1
6697 36
6698 29
6699 35
6700 23
6701 31
6702 40
6703 9
6704 4
6705 7
6706 4
6707 7
6708 15
6709 4
6710 27
6711 8
6712 9
6713 4
6714 10
6715 35
6716 24
6717 20
6718 41
6719 34
6720 41
6721 28
6722 21
6723 34
6724 26
6725 29
6726 13
6727 7
6728 14
6729 7
6730 12
6731 24
6732 30
6733 7
6734 4
6735 23
6736 19
6737 24
6738 9
6739 6
6740 0
6741 4
6742 16
6743 3
6744 26
6745 12
6746 0
6747 18
6748 12
6749 21
6750 34
6751 6
6752 6
6753 34
6754 41
6755 30
6756 3
6757 5
6758 7
6759 20
6760 40
6761 16
6762 19
6763 17
6764 12
6765 6
6766 30
6767 18
6768 1
6769 31
6770 31
6771 16
6772 2
6773 18
6774 22
6775 4
6776 18
6777 12
6778 10
6779 21
6780 15
6781 4
6782 15
6783 15
6784 14
6785 34
6786 12
6787 5
6788 18
6789 13
6790 3
6791 34
6792 18
6793 32
6794 38
6795 19
6796 30
6797 17
6798 12
6799 4
6800 4
6801 30
6802 24
6803 24
6804 4
6805 4
6806 23
6807 12
6808 12
6809 9
6810 24
6811 38
6812 4
6813 16
6814 1
6815 4
6816 15
6817 9
6818 20
6819 29
6820 13
6821 4
6822 6
6823 18
6824 20
6825 28
6826 34
6827 12
6828 3
6829 5
6830 38
6831 31
6832 15
6833 13
6834 23
6835 14
6836 4
6837 19
6838 14
6839 5
6840 8
6841 20
6842 31
6843 37
6844 4
6845 38
6846 19
6847 4
6848 0
6849 26
6850 18
6851 14
6852 32
6853 0
6854 27
6855 28
6856 2
6857 29
6858 4
6859 28
6860 13
6861 24
6862 19
6863 29
6864 37
6865 38
6866 4
6867 29
6868 27
6869 38
6870 18
6871 40
6872 2
6873 22
6874 20
6875 22
6876 4
6877 17
6878 21
6879 28
6880 34
6881 29
6882 4
6883 19
6884 27
6885 25
6886 15
6887 3
6888 2
6889 31
6890 26
6891 35
6892 4
6893 19
6894 22
6895 23
6896 37
6897 15
6898 31
6899 35
6900 27
6901 4
6902 14
6903 20
6904 23
6905 9
6906 2
6907 7
6908 34
6909 1
6910 6
6911 16
6912 21
6913 35
6914 19
6915 9
6916 22
6917 22
6918 30
6919 29
6920 31
6921 8
6922 23
6923 15
6924 18
6925 4
6926 20
6927 25
6928 14
6929 26
6930 18
6931 5
6932 23
6933 23
6934 20
6935 32
6936 5
6937 14
6938 4
6939 37
6940 9
6941 0
6942 4
6943 14
6944 10
6945 4
6946 22
6947 8
6948 4
6949 29
6950 9
6951 19
6952 36
6953 6
6954 5
6955 28
6956 17
6957 1
6958 33
6959 6
6960 15
6961 18
6962 6
6963 36
6964 28
6965 21
6966 28
6967 37
6968 4
6969 37
6970 5
6971 15
6972 5
6973 41
6974 38
6975 24
6976 23
6977 30
6978 20
6979 27
6980 4
6981 7
6982 8
6983 4
6984 9
6985 4
6986 32
6987 3
6988 31
6989 4
6990 19
6991 9
6992 24
6993 9
6994 3
6995 4
6996 38
6997 9
6998 38
6999 0
7000 41
7001 23
7002 14
7003 19
7004 24
7005 9
7006 8
7007 16
7008 1
7009 30
7010 6
7011 18
7012 24
7013 39
7014 28
7015 39
7016 20
7017 14
7018 3
7019 17
7020 0
7021 9
7022 20
7023 28
7024 19
7025 17
7026 17
7027 40
7028 19
7029 3
7030 25
7031 29
7032 32
7033 13
7034 26
7035 5
7036 5
7037 27
7038 21
7039 2
7040 28
7041 3
7042 1
7043 15
7044 27
7045 29
7046 23
7047 32
7048 27
7049 24
7050 19
7051 23
7052 35
7053 20
7054 23
7055 16
7056 9
7057 31
7058 9
7059 41
7060 0
7061 3
7062 1
7063 5
7064 4
7065 20
7066 7
7067 12
7068 33
7069 9
7070 32
7071 19
7072 9
7073 4
7074 6
7075 12
7076 19
7077 14
7078 4
7079 8
7080 3
7081 27
7082 19
7083 4
7084 20
7085 5
7086 31
7087 30
7088 26
7089 35
7090 36
7091 18
7092 18
7093 28
7094 1
7095 19
7096 14
7097 28
7098 30
7099 29
7100 23
7101 36
7102 28
7103 9
7104 9
7105 3
7106 12
7107 9
7108 31
7109 18
7110 12
7111 36
7112 0
7113 23
7114 11
7115 33
7116 41
7117 12
7118 7
7119 15
7120 14
7121 20
7122 30
7123 18
7124 4
7125 22
7126 4
7127 18
7128 18
7129 1
7130 2
7131 18
7132 12
7133 23
7134 22
7135 29
7136 14
7137 1
7138 4
7139 17
7140 6
7141 24
7142 4
7143 34
7144 38
7145 15
7146 16
7147 4
7148 19
7149 30
7150 0
7151 41
7152 22
7153 0
7154 2
7155 40
7156 37
7157 35
7158 32
7159 40
7160 14
7161 26
7162 22
7163 34
7164 32
7165 26
7166 18
7167 32
7168 28
7169 28
7170 20
7171 22
7172 20
7173 26
7174 16
7175 22
7176 27
7177 11
7178 24
7179 13
7180 2
7181 14
7182 36
7183 6
7184 5
7185 4
7186 36
7187 29
7188 29
7189 15
7190 29
7191 31
7192 4
7193 3
7194 37
7195 26
7196 11
7197 27
7198 29
7199 18
7200 23
7201 22
7202 18
7203 20
7204 24
7205 0
7206 16
7207 4
7208 1
7209 29
7210 41
7211 38
7212 14
7213 16
7214 22
7215 25
7216 21
7217 38
7218 2
7219 5
7220 13
7221 24
7222 4
7223 29
7224 8
7225 30
7226 14
7227 17
7228 34
7229 4
7230 31
7231 3
7232 20
7233 32
7234 5
7235 31
7236 31
7237 26
7238 31
7239 4
7240 36
7241 40
7242 8
7243 6
7244 8
7245 22
7246 24
7247 5
7248 40
7249 23
7250 18
7251 31
7252 20
7253 33
7254 11
7255 38
7256 10
7257 28
7258 31
7259 16
7260 28
7261 23
7262 28
7263 38
7264 1
7265 18
7266 19
7267 1
7268 34
7269 39
7270 4
7271 27
7272 30
7273 5
7274 9
7275 4
7276 0
7277 34
7278 23
7279 5
7280 4
7281 23
7282 21
7283 14
7284 10
7285 35
7286 4
7287 13
7288 36
7289 4
7290 25
7291 40
7292 28
7293 28
7294 10
7295 4
7296 4
7297 26
7298 16
7299 9
7300 32
7301 13
7302 26
7303 24
7304 9
7305 16
7306 12
7307 9
7308 4
7309 35
7310 13
7311 9
7312 1
7313 3
7314 4
7315 26
7316 8
7317 15
7318 12
7319 38
7320 7
7321 13
7322 13
7323 5
7324 12
7325 12
7326 33
7327 17
7328 2
7329 4
7330 23
7331 7
7332 4
7333 19
7334 27
7335 8
7336 17
7337 34
7338 14
7339 4
7340 36
7341 27
7342 24
7343 4
7344 2
7345 9
7346 36
7347 41
7348 38
7349 29
7350 25
7351 6
7352 5
7353 11
7354 8
7355 19
7356 35
7357 9
7358 0
7359 5
7360 4
7361 5
7362 2
7363 31
7364 5
7365 35
7366 41
7367 20
7368 38
7369 25
7370 29
7371 9
7372 22
7373 4
7374 39
7375 33
7376 15
7377 9
7378 7
7379 15
7380 19
7381 15
7382 18
7383 4
7384 0
7385 19
7386 18
7387 4
7388 23
7389 12
7390 8
7391 40
7392 41
7393 3
7394 4
7395 19
7396 36
7397 31
7398 28
7399 6
7400 38
7401 34
7402 10
7403 38
7404 4
7405 35
7406 18
7407 19
7408 8
7409 33
7410 2
7411 17
7412 34
7413 5
7414 30
7415 8
7416 20
7417 15
7418 30
7419 19
7420 23
7421 38
7422 19
7423 3
7424 24
7425 17
7426 7
7427 8
7428 1
7429 26
7430 19
7431 2
7432 31
7433 25
7434 25
7435 23
7436 9
7437 25
7438 12
7439 6
7440 4
7441 33
7442 11
7443 22
7444 4
7445 14
7446 4
7447 1
7448 9
7449 40
7450 4
7451 23
7452 29
7453 14
7454 31
7455 19
7456 38
7457 28
7458 11
7459 18
7460 14
7461 34
7462 30
7463 18
7464 3
7465 35
7466 3
7467 37
7468 30
7469 26
7470 4
7471 4
7472 4
7473 23
7474 4
7475 16
7476 12
7477 24
7478 3
7479 1
7480 24
7481 4
7482 25
7483 19
7484 4
7485 26
7486 23
7487 8
7488 24
7489 38
7490 4
7491 34
7492 13
7493 4
7494 9
7495 1
7496 4
7497 5
7498 34
7499 15
7500 11
7501 28
7502 4
7503 24
7504 4
7505 30
7506 3
7507 9
7508 15
7509 24
7510 6
7511 20
7512 9
7513 15
7514 4
7515 6
7516 36
7517 39
7518 19
7519 35
7520 36
7521 4
7522 28
7523 32
7524 5
7525 26
7526 34
7527 8
7528 9
7529 29
7530 9
7531 7
7532 28
7533 0
7534 25
7535 5
7536 30
7537 34
7538 15
7539 20
7540 0
7541 2
7542 23
7543 32
7544 2
7545 40
7546 26
7547 20
7548 27
7549 7
7550 4
7551 28
7552 5
7553 4
7554 4
7555 26
7556 5
7557 24
7558 10
7559 24
7560 33
7561 36
7562 20
7563 30
7564 4
7565 11
7566 13
7567 33
7568 3
7569 4
7570 29
7571 11
7572 21
7573 5
7574 16
7575 27
7576 6
7577 8
7578 5
7579 1
7580 4
7581 29
7582 26
7583 36
7584 1
7585 16
7586 20
7587 9
7588 22
7589 13
7590 32
7591 23
7592 11
7593 35
7594 11
7595 4
7596 31
7597 4
7598 4
7599 6
7600 40
7601 22
7602 34
7603 27
7604 14
7605 18
7606 4
7607 19
7608 1
7609 38
7610 38
7611 33
7612 19
7613 28
7614 9
7615 17
7616 4
7617 22
7618 19
7619 9
7620 24
7621 4
7622 28
7623 9
7624 4
7625 29
7626 34
7627 8
7628 40
7629 2
7630 21
7631 24
7632 38
7633 14
7634 3
7635 9
7636 29
7637 37
7638 4
7639 32
7640 11
7641 15
7642 5
7643 0
7644 4
7645 34
7646 5
7647 5
7648 17
7649 10
7650 33
7651 4
7652 16
7653 5
7654 38
7655 34
7656 3
7657 27
7658 10
7659 20
7660 38
7661 24
7662 21
7663 36
7664 20
7665 5
7666 4
7667 13
7668 4
7669 8
7670 9
7671 18
7672 37
7673 12
7674 33
7675 4
7676 34
7677 9
7678 25
7679 16
7680 9
7681 17
7682 24
7683 17
7684 18
7685 24
7686 22
7687 32
7688 21
7689 9
7690 21
7691 6
7692 10
7693 24
7694 30
7695 4
7696 28
7697 12
7698 4
7699 19
7700 4
7701 28
7702 9
7703 34
7704 4
7705 31
7706 25
7707 30
7708 32
7709 10
7710 19
7711 2
7712 9
7713 5
7714 37
7715 13
7716 30
7717 28
7718 1
7719 22
7720 14
7721 20
7722 9
7723 14
7724 28
7725 28
7726 13
7727 3
7728 14
7729 23
7730 32
7731 38
7732 41
7733 4
7734 4
7735 4
7736 28
7737 29
7738 37
7739 3
7740 10
7741 2
7742 4
7743 8
7744 37
7745 4
7746 40
7747 18
7748 5
7749 4
7750 21
7751 0
7752 33
7753 22
7754 4
7755 15
7756 35
7757 18
7758 26
7759 18
7760 19
7761 13
7762 4
7763 6
7764 18
7765 3
7766 21
7767 22
7768 35
7769 24
7770 12
7771 34
7772 4
7773 26
7774 28
7775 36
7776 26
7777 28
7778 4
7779 23
7780 30
7781 22
7782 3
7783 3
7784 31
7785 5
7786 5
7787 6
7788 23
7789 6
7790 29
7791 4
7792 14
7793 18
7794 22
7795 34
7796 19
7797 4
7798 19
7799 23
7800 8
7801 14
7802 17
7803 4
7804 1
7805 12
7806 4
7807 11
7808 13
7809 41
7810 15
7811 33
7812 28
7813 4
7814 10
7815 18
7816 9
7817 5
7818 41
7819 32
7820 10
7821 31
7822 4
7823 16
7824 4
7825 30
7826 12
7827 6
7828 10
7829 28
7830 11
7831 4
7832 29
7833 32
7834 4
7835 31
7836 36
7837 34
7838 29
7839 21
7840 24
7841 22
7842 5
7843 5
7844 4
7845 4
7846 16
7847 0
7848 34
7849 24
7850 27
7851 24
7852 32
7853 9
7854 0
7855 18
7856 32
7857 39
7858 31
7859 8
7860 27
7861 40
7862 7
7863 29
7864 29
7865 12
7866 19
7867 5
7868 19
7869 32
7870 4
7871 8
7872 24
7873 5
7874 3
7875 40
7876 20
7877 4
7878 28
7879 32
7880 4
7881 19
7882 23
7883 38
7884 30
7885 29
7886 4
7887 21
7888 35
7889 17
7890 28
7891 5
7892 29
7893 24
7894 3
7895 4
7896 14
7897 8
7898 8
7899 41
7900 22
7901 29
7902 32
7903 21
7904 19
7905 3
7906 4
7907 26
7908 31
7909 19
7910 9
7911 8
7912 4
7913 22
7914 0
7915 34
7916 27
7917 37
7918 3
7919 4
7920 35
7921 12
7922 34
7923 9
7924 13
7925 19
7926 10
7927 4
7928 5
7929 9
7930 39
7931 1
7932 30
7933 5
7934 16
7935 36
7936 3
7937 15
7938 5
7939 2
7940 19
7941 24
7942 0
7943 38
7944 23
7945 4
7946 4
7947 22
7948 1
7949 8
7950 15
7951 19
7952 3
7953 13
7954 8
7955 5
7956 20
7957 38
7958 16
7959 4
7960 17
7961 13
7962 7
7963 31
7964 39
7965 12
7966 2
7967 35
7968 30
7969 30
7970 25
7971 37
7972 26
7973 23
7974 12
7975 5
7976 4
7977 22
7978 3
7979 3
7980 17
7981 13
7982 19
7983 37
7984 2
7985 27
7986 4
7987 29
7988 10
7989 1
7990 19
7991 16
7992 18
7993 5
7994 24
7995 34
7996 12
7997 7
7998 34
7999 5
8000 34
8001 4
8002 4
8003 23
8004 4
8005 3
8006 4
8007 36
8008 1
8009 22
8010 38
8011 31
8012 13
8013 2
8014 9
8015 41
8016 8
8017 32
8018 5
8019 24
8020 24
8021 28
8022 27
8023 31
8024 40
8025 14
8026 34
8027 23
8028 4
8029 22
8030 27
8031 0
8032 16
8033 9
8034 3
8035 11
8036 29
8037 13
8038 29
8039 38
8040 2
8041 32
8042 33
8043 34
8044 19
8045 0
8046 41
8047 22
8048 18
8049 25
8050 4
8051 18
8052 4
8053 39
8054 3
8055 38
8056 4
8057 3
8058 2
8059 4
8060 38
8061 22
8062 7
8063 12
8064 7
8065 31
8066 28
8067 29
8068 39
8069 29
8070 19
8071 1
8072 8
8073 38
8074 35
8075 28
8076 7
8077 1
8078 9
8079 9
8080 30
8081 12
8082 14
8083 37
8084 19
8085 4
8086 24
8087 24
8088 26
8089 4
8090 38
8091 9
8092 19
8093 12
8094 13
8095 4
8096 32
8097 23
8098 25
8099 20
8100 29
8101 8
8102 9
8103 25
8104 12
8105 4
8106 36
8107 30
8108 18
8109 29
8110 28
8111 4
8112 3
8113 36
8114 31
8115 30
8116 8
8117 37
8118 4
8119 1
8120 4
8121 41
8122 13
8123 18
8124 4
8125 40
8126 13
8127 35
8128 19
8129 3
8130 19
8131 28
8132 38
8133 38
8134 21
8135 18
8136 4
8137 23
8138 19
8139 14
8140 37
8141 4
8142 19
8143 14
8144 26
8145 23
8146 5
8147 28
8148 29
8149 34
8150 20
8151 32
8152 2
8153 4
8154 4
8155 27
8156 4
8157 32
8158 28
8159 40
8160 4
8161 4
8162 4
8163 7
8164 23
8165 14
8166 37
8167 27
8168 3
8169 15
8170 19
8171 41
8172 20
8173 22
8174 19
8175 9
8176 14
8177 4
8178 4
8179 14
8180 9
8181 5
8182 1
8183 24
8184 39
8185 24
8186 41
8187 30
8188 14
8189 24
8190 16
8191 19
8192 4
8193 10
8194 40
8195 28
8196 38
8197 18
8198 17
8199 37
8200 30
8201 15
8202 15
8203 37
8204 22
8205 16
8206 4
8207 5
8208 20
8209 21
8210 17
8211 9
8212 25
8213 26
8214 19
8215 28
8216 12
8217 4
8218 31
8219 2
8220 38
8221 32
8222 36
8223 20
8224 34
8225 5
8226 32
8227 4
8228 38
8229 23
8230 18
8231 19
8232 5
8233 32
8234 4
8235 29
8236 32
8237 28
8238 4
8239 6
8240 20
8241 31
8242 8
8243 19
8244 33
8245 3
8246 0
8247 4
8248 21
8249 28
8250 32
8251 13
8252 28
8253 4
8254 6
8255 38
8256 0
8257 24
8258 9
8259 0
8260 40
8261 40
8262 12
8263 14
8264 7
8265 40
8266 4
8267 5
8268 4
8269 11
8270 20
8271 21
8272 12
8273 14
8274 40
8275 24
8276 18
8277 30
8278 4
8279 6
8280 11
8281 23
8282 4
8283 29
8284 27
8285 3
8286 27
8287 39
8288 38
8289 15
8290 9
8291 33
8292 10
8293 27
8294 4
8295 15
8296 40
8297 36
8298 16
8299 30
8300 33
8301 18
8302 24
8303 36
8304 4
8305 27
8306 30
8307 9
8308 13
8309 9
8310 38
8311 4
8312 9
8313 9
8314 20
8315 5
8316 5
8317 17
8318 27
8319 9
8320 14
8321 4
8322 35
8323 31
8324 18
8325 4
8326 2
8327 26
8328 36
8329 17
8330 27
8331 6
8332 5
8333 2
8334 40
8335 4
8336 26
8337 35
8338 17
8339 18
8340 16
8341 34
8342 21
8343 38
8344 29
8345 5
8346 19
8347 4
8348 3
8349 7
8350 24
8351 12
8352 16
8353 10
8354 34
8355 4
8356 11
8357 5
8358 36
8359 37
8360 26
8361 38
8362 2
8363 17
8364 2
8365 18
8366 13
8367 27
8368 19
8369 4
8370 13
8371 5
8372 40
8373 33
8374 2
8375 20
8376 22
8377 16
8378 37
8379 12
8380 5
8381 41
8382 2
8383 20
8384 2
8385 28
8386 28
8387 23
8388 28
8389 31
8390 30
8391 23
8392 23
8393 34
8394 14
8395 19
8396 22
8397 19
8398 16
8399 8
8400 4
8401 4
8402 18
8403 1
8404 32
8405 4
8406 38
8407 39
8408 4
8409 2
8410 9
8411 4
8412 12
8413 15
8414 18
8415 19
8416 27
8417 4
8418 12
8419 18
8420 16
8421 4
8422 10
8423 16
8424 34
8425 38
8426 35
8427 9
8428 16
8429 18
8430 26
8431 39
8432 4
8433 38
8434 11
8435 26
8436 14
8437 14
8438 4
8439 7
8440 16
8441 18
8442 20
8443 32
8444 24
8445 15
8446 12
8447 36
8448 31
8449 29
8450 20
8451 29
8452 4
8453 5
8454 20
8455 34
8456 3
8457 41
8458 31
8459 18
8460 36
8461 8
8462 26
8463 21
8464 16
8465 7
8466 4
8467 8
8468 4
8469 3
8470 21
8471 17
8472 36
8473 35
8474 4
8475 38
8476 19
8477 4
8478 40
8479 21
8480 27
8481 8
8482 9
8483 35
8484 4
8485 41
8486 10
8487 41
8488 28
8489 26
8490 17
8491 3
8492 3
8493 38
8494 29
8495 20
8496 21
8497 31
8498 32
8499 23
8500 19
8501 33
8502 12
8503 13
8504 28
8505 4
8506 29
8507 8
8508 4
8509 36
8510 33
8511 19
8512 4
8513 24
8514 33
8515 33
8516 9
8517 36
8518 19
8519 4
8520 4
8521 14
8522 7
8523 27
8524 22
8525 18
8526 16
8527 1
8528 4
8529 2
8530 4
8531 19
8532 4
8533 29
8534 37
8535 14
8536 28
8537 26
8538 13
8539 30
8540 20
8541 38
8542 9
8543 31
8544 31
8545 14
8546 14
8547 18
8548 3
8549 10
8550 34
8551 26
8552 5
8553 14
8554 6
8555 40
8556 4
8557 22
8558 19
8559 9
8560 32
8561 14
8562 5
8563 31
8564 27
8565 16
8566 4
8567 12
8568 18
8569 18
8570 19
8571 7
8572 4
8573 5
8574 5
8575 13
8576 17
8577 19
8578 4
8579 4
8580 33
8581 4
8582 28
8583 27
8584 4
8585 37
8586 12
8587 19
8588 21
8589 12
8590 32
8591 34
8592 4
8593 28
8594 5
8595 38
8596 4
8597 9
8598 3
8599 27
8600 39
8601 19
8602 40
8603 10
8604 25
8605 23
8606 36
8607 12
8608 3
8609 8
8610 38
8611 40
8612 9
8613 17
8614 0
8615 11
8616 32
8617 4
8618 3
8619 31
8620 20
8621 35
8622 20
8623 40
8624 8
8625 12
8626 6
8627 37
8628 27
8629 33
8630 4
8631 31
8632 3
8633 17
8634 29
8635 37
8636 4
8637 36
8638 5
8639 18
8640 10
8641 35
8642 24
8643 4
8644 5
8645 2
8646 1
8647 4
8648 24
8649 5
8650 5
8651 14
8652 0
8653 5
8654 4
8655 40
8656 4
8657 22
8658 7
8659 30
8660 4
8661 5
8662 18
8663 29
8664 28
8665 17
8666 1
8667 34
8668 29
8669 1
8670 4
8671 23
8672 27
8673 6
8674 4
8675 40
8676 12
8677 12
8678 5
8679 5
8680 28
8681 23
8682 32
8683 10
8684 29
8685 27
8686 30
8687 4
8688 28
8689 40
8690 9
8691 41
8692 26
8693 0
8694 4
8695 30
8696 20
8697 29
8698 4
8699 20
8700 8
8701 4
8702 15
8703 4
8704 27
8705 25
8706 8
8707 32
8708 19
8709 3
8710 30
8711 4
8712 29
8713 9
8714 4
8715 19
8716 9
8717 9
8718 12
8719 1
8720 29
8721 26
8722 40
8723 24
8724 15
8725 30
8726 4
8727 11
8728 35
8729 22
8730 19
8731 5
8732 31
8733 32
8734 27
8735 20
8736 9
8737 28
8738 25
8739 26
8740 38
8741 29
8742 30
8743 1
8744 11
8745 26
8746 29
8747 12
8748 13
8749 30
8750 9
8751 40
8752 4
8753 3
8754 4
8755 19
8756 5
8757 11
8758 7
8759 13
8760 23
8761 28
8762 4
8763 12
8764 30
8765 19
8766 5
8767 22
8768 4
8769 4
8770 15
8771 15
8772 2
8773 32
8774 20
8775 4
8776 3
8777 39
8778 32
8779 9
8780 18
8781 4
8782 26
8783 7
8784 23
8785 4
8786 6
8787 4
8788 15
8789 38
8790 22
8791 19
8792 27
8793 24
8794 5
8795 41
8796 10
8797 8
8798 5
8799 18
8800 4
8801 6
8802 37
8803 4
8804 40
8805 38
8806 4
8807 28
8808 9
8809 38
8810 6
8811 21
8812 4
8813 12
8814 40
8815 28
8816 4
8817 13
8818 9
8819 4
8820 4
8821 17
8822 7
8823 5
8824 3
8825 27
8826 34
8827 3
8828 41
8829 28
8830 3
8831 5
8832 5
8833 21
8834 5
8835 28
8836 28
8837 4
8838 4
8839 14
8840 4
8841 19
8842 14
8843 15
8844 4
8845 30
8846 4
8847 15
8848 27
8849 29
8850 19
8851 14
8852 15
8853 14
8854 4
8855 32
8856 4
8857 30
8858 19
8859 19
8860 13
8861 26
8862 24
8863 12
8864 4
8865 29
8866 8
8867 20
8868 19
8869 23
8870 20
8871 40
8872 9
8873 35
8874 7
8875 17
8876 4
8877 4
8878 30
8879 29
8880 8
8881 4
8882 1
8883 0
8884 18
8885 26
8886 3
8887 37
8888 24
8889 14
8890 4
8891 9
8892 31
8893 3
8894 13
8895 18
8896 36
8897 28
8898 4
8899 3
8900 19
8901 4
8902 1
8903 40
8904 33
8905 37
8906 15
8907 0
8908 26
8909 20
8910 20
8911 29
8912 31
8913 36
8914 14
8915 3
8916 19
8917 19
8918 22
8919 0
8920 8
8921 21
8922 5
8923 32
8924 16
8925 34
8926 28
8927 4
8928 0
8929 35
8930 23
8931 38
8932 10
8933 25
8934 22
8935 24
8936 28
8937 27
8938 19
8939 10
8940 10
8941 26
8942 12
8943 29
8944 3
8945 14
8946 6
8947 3
8948 10
8949 24
8950 18
8951 32
8952 26
8953 19
8954 38
8955 26
8956 22
8957 4
8958 30
8959 19
8960 9
8961 9
8962 19
8963 16
8964 20
8965 40
8966 22
8967 4
8968 11
8969 6
8970 26
8971 5
8972 40
8973 10
8974 13
8975 34
8976 20
8977 9
8978 24
8979 5
8980 20
8981 23
8982 2
8983 4
8984 4
8985 27
8986 11
8987 32
8988 18
8989 0
8990 37
8991 25
8992 32
8993 38
8994 8
8995 38
8996 16
8997 6
8998 34
8999 22
9000 31
9001 13
9002 5
9003 14
9004 4
9005 9
9006 9
9007 18
9008 5
9009 4
9010 10
9011 11
9012 14
9013 4
9014 2
9015 9
9016 4
9017 11
9018 32
9019 7
9020 28
9021 4
9022 9
9023 4
9024 40
9025 22
9026 4
9027 4
9028 11
9029 4
9030 12
9031 31
9032 5
9033 0
9034 2
9035 40
9036 24
9037 31
9038 30
9039 15
9040 31
9041 4
9042 16
9043 26
9044 4
9045 4
9046 5
9047 33
9048 23
9049 5
9050 4
9051 15
9052 10
9053 18
9054 27
9055 28
9056 6
9057 28
9058 4
9059 4
9060 19
9061 24
9062 21
9063 29
9064 8
9065 19
9066 25
9067 4
9068 36
9069 4
9070 4
9071 21
9072 4
9073 36
9074 7
9075 4
9076 5
9077 29
9078 4
9079 29
9080 4
9081 18
9082 6
9083 40
9084 27
9085 5
9086 24
9087 28
9088 6
9089 18
9090 38
9091 4
9092 18
9093 40
9094 15
9095 12
9096 5
9097 35
9098 9
9099 9
9100 20
9101 31
9102 12
9103 28
9104 40
9105 18
9106 4
9107 35
9108 34
9109 39
9110 4
9111 38
9112 9
9113 9
9114 3
9115 27
9116 38
9117 19
9118 14
9119 15
9120 4
9121 12
9122 4
9123 10
9124 16
9125 26
9126 0
9127 28
9128 4
9129 15
9130 0
9131 18
9132 13
9133 38
9134 30
9135 32
9136 20
9137 31
9138 18
9139 38
9140 16
9141 4
9142 41
9143 22
9144 0
9145 22
9146 4
9147 13
9148 1
9149 24
9150 5
9151 15
9152 21
9153 31
9154 28
9155 16
9156 5
9157 39
9158 34
9159 41
9160 30
9161 25
9162 2
9163 24
9164 1
9165 4
9166 28
9167 3
9168 4
9169 38
9170 18
9171 38
9172 0
9173 1
9174 13
9175 27
9176 23
9177 31
9178 19
9179 14
9180 26
9181 14
9182 20
9183 21
9184 37
9185 37
9186 33
9187 30
9188 39
9189 20
9190 4
9191 19
9192 3
9193 11
9194 1
9195 32
9196 10
9197 9
9198 2
9199 4
9200 31
9201 25
9202 33
9203 29
9204 30
9205 28
9206 38
9207 26
9208 39
9209 2
9210 29
9211 4
9212 12
9213 5
9214 2
9215 3
9216 19
9217 15
9218 15
9219 4
9220 4
9221 18
9222 26
9223 6
9224 28
9225 36
9226 17
9227 14
9228 3
9229 32
9230 0
9231 5
9232 10
9233 4
9234 38
9235 5
9236 33
9237 18
9238 38
9239 25
9240 33
9241 0
9242 22
9243 26
9244 36
9245 9
9246 19
9247 9
9248 8
9249 10
9250 28
9251 3
9252 10
9253 23
9254 37
9255 3
9256 28
9257 9
9258 16
9259 5
9260 34
9261 15
9262 0
9263 10
9264 34
9265 32
9266 8
9267 39
9268 14
9269 22
9270 4
9271 16
9272 20
9273 15
9274 15
9275 4
9276 4
9277 2
9278 32
9279 19
9280 13
9281 19
9282 29
9283 27
9284 29
9285 20
9286 31
9287 30
9288 33
9289 29
9290 23
9291 40
9292 1
9293 35
9294 37
9295 17
9296 5
9297 4
9298 5
9299 35
9300 4
9301 37
9302 4
9303 5
9304 4
9305 38
9306 4
9307 26
9308 15
9309 17
9310 37
9311 16
9312 38
9313 4
9314 19
9315 32
9316 2
9317 14
9318 35
9319 27
9320 23
9321 12
9322 19
9323 3
9324 11
9325 4
9326 28
9327 15
9328 27
9329 9
9330 4
9331 28
9332 4
9333 36
9334 29
9335 40
9336 38
9337 4
9338 26
9339 31
9340 26
9341 26
9342 4
9343 15
9344 18
9345 7
9346 18
9347 1
9348 27
9349 18
9350 32
9351 5
9352 13
9353 15
9354 25
9355 3
9356 3
9357 37
9358 30
9359 5
9360 25
9361 33
9362 4
9363 19
9364 10
9365 40
9366 31
9367 30
9368 9
9369 3
9370 28
9371 28
9372 19
9373 40
9374 13
9375 1
9376 24
9377 32
9378 15
9379 26
9380 2
9381 16
9382 14
9383 39
9384 4
9385 41
9386 29
9387 20
9388 3
9389 8
9390 24
9391 27
9392 38
9393 17
9394 27
9395 13
9396 6
9397 5
9398 26
9399 4
9400 5
9401 30
9402 22
9403 17
9404 22
9405 26
9406 40
9407 5
9408 9
9409 4
9410 27
9411 29
9412 16
9413 4
9414 8
9415 15
9416 2
9417 28
9418 4
9419 12
9420 28
9421 4
9422 20
9423 30
9424 18
9425 26
9426 7
9427 34
9428 33
9429 27
9430 18
9431 28
9432 12
9433 24
9434 7
9435 4
9436 40
9437 17
9438 19
9439 11
9440 36
9441 5
9442 4
9443 1
9444 17
9445 17
9446 9
9447 24
9448 34
9449 4
9450 41
9451 19
9452 29
9453 24
9454 31
9455 33
9456 1
9457 0
9458 15
9459 24
9460 24
9461 33
9462 12
9463 4
9464 18
9465 30
9466 12
9467 40
9468 9
9469 4
9470 4
9471 2
9472 0
9473 34
9474 33
9475 14
9476 36
9477 16
9478 31
9479 23
9480 23
9481 28
9482 38
9483 2
9484 32
9485 4
9486 35
9487 38
9488 4
9489 4
9490 38
9491 9
9492 14
9493 6
9494 40
9495 39
9496 29
9497 3
9498 20
9499 23
9500 32
9501 40
9502 24
9503 38
9504 35
9505 10
9506 10
9507 6
9508 4
9509 28
9510 1
9511 35
9512 28
9513 3
9514 1
9515 32
9516 40
9517 19
9518 40
9519 3
9520 16
9521 5
9522 17
9523 9
9524 4
9525 4
9526 34
9527 23
9528 1
9529 34
9530 4
9531 9
9532 27
9533 2
9534 41
9535 23
9536 18
9537 19
9538 34
9539 4
9540 19
9541 4
9542 7
9543 5
9544 4
9545 27
9546 41
9547 31
9548 20
9549 24
9550 29
9551 12
9552 20
9553 23
9554 31
9555 4
9556 18
9557 24
9558 37
9559 19
9560 24
9561 9
9562 4
9563 40
9564 19
9565 20
9566 4
9567 15
9568 3
9569 18
9570 34
9571 15
9572 20
9573 4
9574 28
9575 23
9576 23
9577 4
9578 22
9579 18
9580 20
9581 37
9582 35
9583 12
9584 14
9585 29
9586 4
9587 19
9588 5
9589 8
9590 32
9591 4
9592 27
9593 29
9594 18
9595 40
9596 17
9597 39
9598 17
9599 5
9600 14
9601 3
9602 15
9603 38
9604 40
9605 3
9606 19
9607 21
9608 21
9609 21
9610 4
9611 5
9612 1
9613 6
9614 3
9615 6
9616 28
9617 32
9618 5
9619 15
9620 3
9621 29
9622 13
9623 4
9624 27
9625 4
9626 35
9627 12
9628 17
9629 22
9630 4
9631 4
9632 4
9633 26
9634 21
9635 26
9636 4
9637 0
9638 3
9639 4
9640 17
9641 4
9642 4
9643 18
9644 14
9645 24
9646 4
9647 7
9648 16
9649 24
9650 4
9651 38
9652 23
9653 20
9654 31
9655 4
9656 9
9657 5
9658 32
9659 3
9660 4
9661 41
9662 27
9663 24
9664 8
9665 29
9666 4
9667 19
9668 4
9669 11
9670 1
9671 11
9672 30
9673 23
9674 12
9675 23
9676 17
9677 29
9678 4
9679 4
9680 28
9681 5
9682 28
9683 6
9684 33
9685 15
9686 14
9687 31
9688 31
9689 20
9690 4
9691 27
9692 22
9693 40
9694 33
9695 1
9696 30
9697 18
9698 9
9699 12
9700 36
9701 29
9702 19
9703 31
9704 9
9705 6
9706 37
9707 4
9708 0
9709 8
9710 18
9711 18
9712 21
9713 3
9714 3
9715 30
9716 4
9717 4
9718 5
9719 19
9720 3
9721 4
9722 24
9723 38
9724 6
9725 31
9726 9
9727 22
9728 28
9729 4
9730 26
9731 4
9732 29
9733 4
9734 6
9735 22
9736 4
9737 14
9738 4
9739 19
9740 30
9741 14
9742 32
9743 1
9744 40
9745 18
9746 4
9747 40
9748 28
9749 20
9750 35
9751 0
9752 12
9753 22
9754 33
9755 3
9756 37
9757 29
9758 33
9759 24
9760 1
9761 14
9762 23
9763 25
9764 29
9765 7
9766 9
9767 24
9768 28
9769 9
9770 4
9771 13
9772 20
9773 9
9774 28
9775 23
9776 34
9777 11
9778 9
9779 15
9780 38
9781 26
9782 7
9783 35
9784 6
9785 12
9786 5
9787 30
9788 4
9789 31
9790 35
9791 23
9792 22
9793 5
9794 1
9795 27
9796 22
9797 9
9798 12
9799 10
9800 5
9801 18
9802 40
9803 12
9804 31
9805 19
9806 10
9807 4
9808 37
9809 32
9810 9
9811 27
9812 1
9813 4
9814 22
9815 41
9816 29
9817 5
9818 0
9819 26
9820 32
9821 33
9822 4
9823 10
9824 4
9825 12
9826 40
9827 3
9828 8
9829 35
9830 27
9831 7
9832 20
9833 2
9834 32
9835 9
9836 14
9837 24
9838 18
9839 23
9840 5
9841 37
9842 33
9843 15
9844 35
9845 5
9846 3
9847 26
9848 35
9849 31
9850 17
9851 33
9852 4
9853 3
9854 28
9855 12
9856 29
9857 0
9858 23
9859 6
9860 35
9861 4
9862 37
9863 2
9864 4
9865 4
9866 13
9867 3
9868 5
9869 12
9870 4
9871 1
9872 32
9873 32
9874 4
9875 4
9876 5
9877 7
9878 4
9879 4
9880 4
9881 27
9882 38
9883 4
9884 9
9885 15
9886 12
9887 34
9888 4
9889 5
9890 40
9891 4
9892 10
9893 18
9894 24
9895 0
9896 40
9897 25
9898 14
9899 9
9900 40
9901 31
9902 18
9903 39
9904 9
9905 13
9906 20
9907 22
9908 9
9909 5
9910 37
9911 20
9912 15
9913 12
9914 6
9915 21
9916 19
9917 29
9918 12
9919 18
9920 3
9921 16
9922 9
9923 32
9924 21
9925 7
9926 5
9927 29
9928 18
9929 9
9930 28
9931 24
9932 33
9933 28
9934 12
9935 4
9936 11
9937 4
9938 23
9939 38
9940 38
9941 31
9942 32
9943 4
9944 4
9945 7
9946 16
9947 24
9948 8
9949 9
9950 21
9951 33
9952 31
9953 34
9954 12
9955 11
9956 29
9957 20
9958 20
9959 32
9960 26
9961 14
9962 37
9963 38
9964 3
9965 17
9966 23
9967 4
9968 28
9969 4
9970 8
9971 19
9972 37
9973 37
9974 32
9975 32
9976 9
9977 23
9978 20
9979 39
9980 30
9981 25
9982 19
9983 27
9984 39
9985 3
9986 34
9987 0
9988 3
9989 0
9990 2
9991 4
9992 28
9993 5
9994 18
9995 25
9996 18
9997 26
9998 4
9999 11
