0 0
1 1
2 2
3 3
4 4
5 5
6 6
7 7
8 6
9 4
10 4
11 8
12 9
13 10
14 4
15 9
16 4
17 11
18 2
19 9
20 6
21 12
22 9
23 4
24 11
25 13
26 12
27 14
28 15
29 1
30 4
31 3
32 9
33 16
34 17
35 12
36 13
37 9
38 1
39 4
40 18
41 6
42 4
43 17
44 2
45 12
46 0
47 12
48 6
49 9
50 1
51 0
52 9
53 1
54 17
55 12
56 13
57 10
58 8
59 10
60 4
61 4
62 1
63 1
64 19
65 10
66 16
67 12
68 10
69 2
70 13
71 7
72 4
73 20
74 9
75 9
76 12
77 3
78 10
79 2
80 1
81 1
82 9
83 2
84 7
85 9
86 4
87 19
88 6
89 6
90 13
91 17
92 17
93 21
94 4
95 6
96 9
97 6
98 13
99 6
100 6
101 22
102 2
103 9
104 4
105 1
106 9
107 5
108 2
109 6
110 17
111 13
112 18
113 17
114 4
115 16
116 23
117 2
118 17
119 13
120 17
121 17
122 7
123 17
124 0
125 12
126 10
127 13
128 6
129 13
130 9
131 9
132 12
133 1
134 12
135 17
136 13
137 1
138 10
139 17
140 4
141 6
142 17
143 4
144 20
145 10
146 0
147 17
148 18
149 19
150 13
151 0
152 7
153 6
154 5
155 9
156 10
157 12
158 3
159 17
160 22
161 6
162 12
163 1
164 2
165 12
166 5
167 2
168 6
169 13
170 9
171 23
172 23
173 4
174 4
175 9
176 10
177 4
178 12
179 13
180 2
181 9
182 4
183 17
184 2
185 3
186 12
187 17
188 13
189 6
190 4
191 17
192 6
193 17
194 19
195 23
196 9
197 13
198 3
199 12
200 9
201 5
202 13
203 10
204 6
205 6
206 2
207 12
208 13
209 9
210 6
211 4
212 19
213 19
214 1
215 12
216 1
217 6
218 4
219 12
220 6
221 12
222 17
223 12
224 17
225 7
226 1
227 9
228 16
229 13
230 1
231 9
232 14
233 12
234 22
235 7
236 16
237 13
238 13
239 2
240 13
241 17
242 19
243 7
244 18
245 6
246 1
247 9
248 1
249 0
250 19
251 6
252 5
253 17
254 17
255 6
256 0
257 19
258 10
259 13
260 6
261 13
262 7
263 6
264 9
265 19
266 17
267 22
268 10
269 9
270 9
271 1
272 6
273 18
274 12
275 10
276 13
277 16
278 8
279 8
280 19
281 12
282 10
283 6
284 17
285 11
286 19
287 1
288 13
289 12
290 12
291 6
292 2
293 9
294 1
295 10
296 13
297 17
298 6
299 17
300 12
301 0
302 19
303 6
304 24
305 7
306 9
307 18
308 19
309 19
310 12
311 8
312 9
313 1
314 10
315 4
316 12
317 2
318 17
319 3
320 12
321 2
322 9
323 12
324 12
325 10
326 2
327 19
328 4
329 12
330 17
331 3
332 6
333 2
334 24
335 0
336 12
337 3
338 18
339 10
340 2
341 9
342 17
343 9
344 25
345 7
346 16
347 12
348 19
349 6
350 10
351 12
352 4
353 19
354 8
355 1
356 9
357 12
358 12
359 19
360 13
361 8
362 17
363 9
364 16
365 9
366 16
367 9
368 2
369 23
370 4
371 12
372 12
373 3
374 9
375 13
376 1
377 17
378 9
379 6
380 6
381 14
382 19
383 2
384 12
385 12
386 10
387 6
388 16
389 12
390 23
391 4
392 17
393 9
394 9
395 13
396 17
397 1
398 6
399 4
400 19
401 6
402 17
403 6
404 12
405 4
406 10
407 23
408 17
409 11
410 19
411 23
412 19
413 4
414 23
415 26
416 17
417 6
418 9
419 17
420 18
421 12
422 9
423 2
424 13
425 4
426 6
427 13
428 17
429 2
430 13
431 17
432 19
433 2
434 12
435 4
436 1
437 8
438 23
439 17
440 9
441 19
442 21
443 4
444 12
445 6
446 4
447 3
448 6
449 1
450 8
451 6
452 6
453 4
454 17
455 1
456 17
457 1
458 12
459 1
460 12
461 12
462 4
463 4
464 14
465 9
466 4
467 21
468 7
469 17
470 1
471 1
472 23
473 4
474 1
475 17
476 1
477 12
478 13
479 12
480 17
481 9
482 17
483 17
484 9
485 13
486 12
487 23
488 19
489 17
490 9
491 12
492 9
493 12
494 13
495 9
496 4
497 12
498 4
499 1
500 4
501 13
502 9
503 12
504 6
505 6
506 12
507 13
508 4
509 12
510 1
511 8
512 3
513 6
514 19
515 6
516 12
517 17
518 1
519 9
520 2
521 3
522 2
523 6
524 1
525 4
526 4
527 3
528 5
529 19
530 1
531 1
532 23
533 12
534 18
535 17
536 4
537 17
538 18
539 11
540 1
541 6
542 6
543 17
544 1
545 2
546 17
547 0
548 1
549 6
550 2
551 8
552 17
553 19
554 7
555 13
556 2
557 13
558 6
559 3
560 2
561 1
562 9
563 19
564 6
565 4
566 1
567 6
568 17
569 12
570 9
571 17
572 1
573 17
574 4
575 6
576 12
577 6
578 9
579 17
580 6
581 4
582 1
583 1
584 17
585 9
586 1
587 0
588 4
589 6
590 16
591 9
592 17
593 12
594 7
595 12
596 1
597 6
598 19
599 12
600 12
601 12
602 6
603 2
604 17
605 12
606 23
607 6
608 9
609 16
610 1
611 4
612 11
613 9
614 9
615 9
616 3
617 1
618 14
619 12
620 12
621 1
622 1
623 12
624 17
625 2
626 13
627 12
628 19
629 4
630 1
631 13
632 1
633 19
634 12
635 6
636 13
637 2
638 4
639 4
640 13
641 1
642 12
643 9
644 9
645 3
646 19
647 2
648 1
649 0
650 4
651 12
652 6
653 12
654 12
655 9
656 7
657 4
658 9
659 1
660 6
661 9
662 22
663 4
664 19
665 12
666 17
667 12
668 13
669 4
670 17
671 1
672 2
673 6
674 20
675 12
676 6
677 12
678 4
679 4
680 6
681 19
682 12
683 17
684 0
685 19
686 2
687 6
688 23
689 13
690 4
691 9
692 4
693 19
694 10
695 12
696 4
697 6
698 6
699 17
700 16
701 0
702 12
703 13
704 9
705 9
706 12
707 4
708 2
709 17
710 9
711 17
712 4
713 4
714 6
715 23
716 12
717 13
718 13
719 19
720 6
721 17
722 13
723 4
724 23
725 12
726 4
727 13
728 17
729 1
730 6
731 6
732 18
733 1
734 4
735 19
736 1
737 6
738 6
739 9
740 9
741 7
742 4
743 4
744 17
745 12
746 2
747 12
748 1
749 7
750 19
751 7
752 17
753 6
754 1
755 9
756 19
757 19
758 3
759 2
760 17
761 12
762 19
763 4
764 17
765 4
766 1
767 4
768 6
769 1
770 12
771 4
772 6
773 12
774 4
775 4
776 1
777 6
778 4
779 19
780 3
781 12
782 4
783 4
784 1
785 17
786 8
787 12
788 2
789 9
790 9
791 12
792 9
793 4
794 19
795 4
796 18
797 12
798 12
799 11
800 17
801 19
802 12
803 9
804 19
805 6
806 9
807 12
808 19
809 13
810 1
811 1
812 1
813 17
814 17
815 2
816 13
817 1
818 4
819 1
820 1
821 12
822 13
823 6
824 5
825 9
826 17
827 7
828 13
829 12
830 12
831 12
832 4
833 4
834 13
835 9
836 4
837 13
838 17
839 1
840 9
841 6
842 4
843 12
844 7
845 12
846 9
847 3
848 17
849 12
850 9
851 4
852 6
853 18
854 1
855 10
856 6
857 4
858 1
859 12
860 17
861 19
862 13
863 22
864 3
865 23
866 4
867 9
868 7
869 17
870 6
871 12
872 1
873 10
874 17
875 6
876 2
877 26
878 1
879 17
880 13
881 4
882 1
883 1
884 4
885 19
886 9
887 9
888 12
889 1
890 12
891 1
892 1
893 24
894 4
895 10
896 19
897 6
898 3
899 13
900 6
901 4
902 22
903 8
904 12
905 13
906 2
907 9
908 6
909 4
910 12
911 12
912 12
913 1
914 12
915 17
916 4
917 17
918 19
919 10
920 1
921 9
922 5
923 6
924 10
925 17
926 19
927 26
928 4
929 2
930 5
931 2
932 7
933 7
934 12
935 3
936 9
937 12
938 7
939 9
940 17
941 13
942 4
943 17
944 19
945 5
946 1
947 11
948 6
949 4
950 19
951 18
952 19
953 13
954 19
955 13
956 4
957 13
958 12
959 13
960 1
961 4
962 6
963 12
964 11
965 1
966 4
967 4
968 8
969 6
970 4
971 9
972 17
973 10
974 13
975 9
976 4
977 13
978 17
979 15
980 17
981 13
982 10
983 13
984 1
985 9
986 4
987 9
988 1
989 2
990 12
991 4
992 9
993 2
994 13
995 1
996 12
997 13
998 4
999 4
1000 12
1001 17
1002 12
1003 9
1004 12
1005 19
1006 1
1007 12
1008 17
1009 4
1010 1
1011 19
1012 17
1013 2
1014 6
1015 7
1016 6
1017 20
1018 10
1019 8
1020 12
1021 0
1022 18
1023 19
1024 1
1025 17
1026 13
1027 4
1028 1
1029 1
1030 10
1031 0
1032 2
1033 1
1034 12
1035 12
1036 9
1037 9
1038 13
1039 5
1040 3
1041 17
1042 17
1043 1
1044 12
1045 0
1046 1
1047 1
1048 17
1049 2
1050 9
1051 9
1052 11
1053 1
1054 13
1055 6
1056 12
1057 1
1058 2
1059 9
1060 12
1061 9
1062 13
1063 12
1064 12
1065 9
1066 6
1067 9
1068 12
1069 10
1070 12
1071 6
1072 4
1073 4
1074 13
1075 9
1076 13
1077 20
1078 12
1079 16
1080 23
1081 6
1082 0
1083 19
1084 1
1085 19
1086 11
1087 1
1088 12
1089 9
1090 12
1091 1
1092 1
1093 9
1094 10
1095 13
1096 9
1097 12
1098 12
1099 9
1100 9
1101 12
1102 0
1103 17
1104 1
1105 12
1106 12
1107 2
1108 13
1109 1
1110 17
1111 1
1112 9
1113 2
1114 17
1115 17
1116 18
1117 4
1118 12
1119 1
1120 23
1121 23
1122 12
1123 19
1124 4
1125 1
1126 4
1127 1
1128 13
1129 1
1130 13
1131 12
1132 1
1133 17
1134 12
1135 6
1136 17
1137 10
1138 10
1139 2
1140 9
1141 12
1142 13
1143 0
1144 4
1145 5
1146 12
1147 2
1148 10
1149 6
1150 17
1151 4
1152 8
1153 9
1154 12
1155 7
1156 12
1157 9
1158 1
1159 1
1160 4
1161 16
1162 9
1163 4
1164 13
1165 4
1166 10
1167 9
1168 9
1169 10
1170 19
1171 12
1172 9
1173 12
1174 12
1175 1
1176 13
1177 4
1178 9
1179 17
1180 19
1181 17
1182 13
1183 6
1184 17
1185 16
1186 9
1187 4
1188 6
1189 19
1190 1
1191 12
1192 9
1193 12
1194 4
1195 18
1196 1
1197 6
1198 10
1199 19
1200 4
1201 1
1202 4
1203 12
1204 19
1205 13
1206 17
1207 18
1208 12
1209 1
1210 4
1211 1
1212 4
1213 10
1214 9
1215 1
1216 4
1217 9
1218 12
1219 19
1220 12
1221 3
1222 12
1223 12
1224 4
1225 13
1226 4
1227 17
1228 19
1229 12
1230 6
1231 4
1232 12
1233 16
1234 9
1235 9
1236 6
1237 2
1238 17
1239 5
1240 17
1241 12
1242 4
1243 10
1244 12
1245 4
1246 4
1247 7
1248 23
1249 1
1250 13
1251 0
1252 7
1253 2
1254 22
1255 9
1256 12
1257 4
1258 1
1259 13
1260 1
1261 4
1262 1
1263 6
1264 12
1265 12
1266 12
1267 1
1268 3
1269 1
1270 10
1271 1
1272 13
1273 9
1274 4
1275 12
1276 9
1277 14
1278 2
1279 14
1280 19
1281 12
1282 13
1283 13
1284 17
1285 18
1286 13
1287 19
1288 17
1289 9
1290 6
1291 2
1292 6
1293 23
1294 16
1295 19
1296 18
1297 13
1298 1
1299 2
1300 3
1301 9
1302 19
1303 8
1304 9
1305 19
1306 24
1307 4
1308 18
1309 19
1310 18
1311 7
1312 9
1313 13
1314 9
1315 1
1316 13
1317 17
1318 17
1319 7
1320 4
1321 4
1322 1
1323 17
1324 22
1325 12
1326 12
1327 12
1328 1
1329 19
1330 4
1331 12
1332 12
1333 9
1334 10
1335 12
1336 0
1337 23
1338 1
1339 1
1340 7
1341 9
1342 4
1343 9
1344 4
1345 6
1346 4
1347 0
1348 19
1349 1
1350 12
1351 10
1352 12
1353 0
1354 13
1355 4
1356 25
1357 4
1358 9
1359 23
1360 6
1361 13
1362 1
1363 9
1364 16
1365 19
1366 22
1367 6
1368 0
1369 13
1370 17
1371 12
1372 6
1373 12
1374 23
1375 19
1376 4
1377 7
1378 19
1379 3
1380 9
1381 8
1382 6
1383 13
1384 9
1385 6
1386 19
1387 1
1388 9
1389 12
1390 6
1391 19
1392 4
1393 4
1394 12
1395 6
1396 4
1397 19
1398 4
1399 17
1400 12
1401 17
1402 4
1403 13
1404 6
1405 6
1406 4
1407 6
1408 6
1409 1
1410 0
1411 13
1412 6
1413 17
1414 12
1415 12
1416 18
1417 16
1418 2
1419 10
1420 1
1421 7
1422 12
1423 12
1424 19
1425 7
1426 7
1427 17
1428 9
1429 14
1430 8
1431 12
1432 17
1433 13
1434 19
1435 6
1436 13
1437 4
1438 4
1439 4
1440 19
1441 2
1442 12
1443 17
1444 12
1445 1
1446 4
1447 12
1448 4
1449 4
1450 12
1451 1
1452 6
1453 12
1454 4
1455 12
1456 4
1457 8
1458 13
1459 6
1460 12
1461 13
1462 13
1463 16
1464 0
1465 4
1466 9
1467 12
1468 13
1469 13
1470 6
1471 12
1472 1
1473 9
1474 12
1475 12
1476 3
1477 12
1478 7
1479 17
1480 20
1481 23
1482 9
1483 4
1484 4
1485 2
1486 4
1487 4
1488 12
1489 8
1490 12
1491 19
1492 4
1493 2
1494 4
1495 12
1496 6
1497 12
1498 4
1499 6
1500 4
1501 4
1502 6
1503 17
1504 17
1505 14
1506 12
1507 9
1508 13
1509 17
1510 16
1511 19
1512 1
1513 12
1514 6
1515 4
1516 2
1517 1
1518 12
1519 9
1520 1
1521 12
1522 9
1523 4
1524 1
1525 2
1526 4
1527 17
1528 9
1529 17
1530 23
1531 4
1532 2
1533 16
1534 9
1535 4
1536 2
1537 12
1538 1
1539 4
1540 19
1541 4
1542 12
1543 11
1544 17
1545 6
1546 17
1547 12
1548 17
1549 23
1550 17
1551 18
1552 17
1553 6
1554 1
1555 1
1556 24
1557 17
1558 12
1559 4
1560 2
1561 3
1562 22
1563 12
1564 12
1565 9
1566 17
1567 2
1568 9
1569 17
1570 9
1571 9
1572 1
1573 17
1574 6
1575 4
1576 18
1577 13
1578 4
1579 2
1580 0
1581 4
1582 9
1583 6
1584 23
1585 6
1586 4
1587 13
1588 6
1589 17
1590 4
1591 6
1592 4
1593 19
1594 6
1595 12
1596 6
1597 6
1598 17
1599 4
1600 19
1601 1
1602 9
1603 1
1604 12
1605 12
1606 23
1607 12
1608 1
1609 19
1610 2
1611 17
1612 17
1613 6
1614 4
1615 9
1616 6
1617 17
1618 1
1619 12
1620 6
1621 12
1622 2
1623 0
1624 9
1625 17
1626 19
1627 12
1628 12
1629 12
1630 6
1631 13
1632 6
1633 19
1634 2
1635 12
1636 12
1637 4
1638 6
1639 19
1640 6
1641 12
1642 2
1643 7
1644 10
1645 6
1646 4
1647 4
1648 6
1649 6
1650 12
1651 9
1652 12
1653 6
1654 9
1655 4
1656 9
1657 9
1658 17
1659 17
1660 12
1661 13
1662 9
1663 4
1664 17
1665 4
1666 1
1667 17
1668 6
1669 4
1670 17
1671 13
1672 4
1673 17
1674 20
1675 12
1676 12
1677 9
1678 7
1679 17
1680 23
1681 9
1682 19
1683 4
1684 9
1685 19
1686 13
1687 17
1688 13
1689 10
1690 19
1691 9
1692 12
1693 13
1694 9
1695 1
1696 6
1697 17
1698 5
1699 2
1700 2
1701 1
1702 12
1703 9
1704 17
1705 17
1706 12
1707 13
1708 17
1709 9
1710 12
1711 9
1712 12
1713 6
1714 17
1715 4
1716 6
1717 9
1718 9
1719 12
1720 12
1721 1
1722 16
1723 6
1724 1
1725 12
1726 12
1727 9
1728 1
1729 12
1730 9
1731 13
1732 9
1733 17
1734 3
1735 16
1736 4
1737 4
1738 19
1739 9
1740 12
1741 6
1742 6
1743 1
1744 4
1745 1
1746 9
1747 9
1748 12
1749 19
1750 16
1751 4
1752 4
1753 17
1754 6
1755 9
1756 17
1757 4
1758 4
1759 12
1760 4
1761 17
1762 12
1763 12
1764 12
1765 9
1766 10
1767 11
1768 6
1769 1
1770 4
1771 4
1772 12
1773 12
1774 9
1775 16
1776 6
1777 2
1778 17
1779 1
1780 12
1781 9
1782 17
1783 12
1784 6
1785 4
1786 4
1787 12
1788 9
1789 6
1790 12
1791 19
1792 13
1793 0
1794 4
1795 2
1796 6
1797 9
1798 6
1799 11
1800 6
1801 17
1802 14
1803 12
1804 17
1805 23
1806 12
1807 17
1808 17
1809 6
1810 17
1811 12
1812 17
1813 12
1814 4
1815 6
1816 17
1817 6
1818 12
1819 12
1820 12
1821 1
1822 3
1823 1
1824 1
1825 2
1826 2
1827 2
1828 17
1829 1
1830 13
1831 13
1832 19
1833 12
1834 17
1835 4
1836 6
1837 4
1838 17
1839 12
1840 6
1841 4
1842 6
1843 19
1844 1
1845 11
1846 1
1847 6
1848 1
1849 6
1850 13
1851 12
1852 1
1853 12
1854 17
1855 12
1856 17
1857 19
1858 17
1859 4
1860 12
1861 4
1862 4
1863 12
1864 4
1865 12
1866 6
1867 12
1868 17
1869 17
1870 6
1871 17
1872 6
1873 6
1874 2
1875 17
1876 3
1877 2
1878 2
1879 10
1880 1
1881 6
1882 12
1883 12
1884 6
1885 2
1886 12
1887 9
1888 9
1889 6
1890 4
1891 17
1892 17
1893 9
1894 6
1895 4
1896 7
1897 9
1898 17
1899 9
1900 12
1901 6
1902 6
1903 4
1904 1
1905 9
1906 18
1907 13
1908 17
1909 12
1910 9
1911 9
1912 19
1913 6
1914 19
1915 6
1916 12
1917 4
1918 9
1919 9
1920 2
1921 4
1922 19
1923 7
1924 3
1925 4
1926 12
1927 13
1928 13
1929 4
1930 10
1931 12
1932 3
1933 3
1934 19
1935 1
1936 6
1937 12
1938 12
1939 25
1940 2
1941 13
1942 1
1943 1
1944 12
1945 12
1946 1
1947 4
1948 2
1949 12
1950 17
1951 10
1952 17
1953 17
1954 12
1955 12
1956 6
1957 12
1958 3
1959 17
1960 7
1961 19
1962 13
1963 12
1964 12
1965 12
1966 12
1967 12
1968 6
1969 6
1970 13
1971 12
1972 6
1973 4
1974 12
1975 9
1976 4
1977 4
1978 1
1979 4
1980 1
1981 2
1982 12
1983 19
1984 19
1985 9
1986 12
1987 12
1988 4
1989 6
1990 12
1991 9
1992 6
1993 2
1994 10
1995 9
1996 3
1997 12
1998 4
1999 13
2000 6
2001 3
2002 17
2003 4
2004 19
2005 9
2006 4
2007 12
2008 17
2009 4
2010 4
2011 2
2012 17
2013 9
2014 3
2015 11
2016 17
2017 6
2018 12
2019 6
2020 9
2021 9
2022 10
2023 6
2024 13
2025 19
2026 2
2027 6
2028 13
2029 9
2030 3
2031 19
2032 3
2033 12
2034 13
2035 4
2036 17
2037 4
2038 13
2039 1
2040 4
2041 2
2042 19
2043 19
2044 2
2045 12
2046 9
2047 12
2048 4
2049 6
2050 17
2051 12
2052 2
2053 1
2054 17
2055 2
2056 2
2057 1
2058 9
2059 1
2060 17
2061 4
2062 1
2063 4
2064 3
2065 13
2066 6
2067 13
2068 19
2069 16
2070 19
2071 19
2072 2
2073 1
2074 9
2075 4
2076 2
2077 13
2078 6
2079 17
2080 16
2081 19
2082 3
2083 12
2084 4
2085 19
2086 2
2087 1
2088 13
2089 3
2090 13
2091 6
2092 9
2093 19
2094 19
2095 4
2096 13
2097 17
2098 9
2099 14
2100 17
2101 2
2102 6
2103 3
2104 10
2105 17
2106 2
2107 0
2108 12
2109 6
2110 8
2111 4
2112 13
2113 13
2114 12
2115 9
2116 18
2117 12
2118 22
2119 4
2120 6
2121 17
2122 12
2123 4
2124 12
2125 6
2126 16
2127 18
2128 10
2129 6
2130 8
2131 16
2132 13
2133 4
2134 17
2135 12
2136 1
2137 19
2138 0
2139 9
2140 12
2141 4
2142 9
2143 6
2144 18
2145 9
2146 4
2147 2
2148 9
2149 6
2150 7
2151 4
2152 6
2153 17
2154 17
2155 13
2156 19
2157 9
2158 17
2159 6
2160 13
2161 17
2162 10
2163 13
2164 17
2165 12
2166 9
2167 6
2168 0
2169 23
2170 4
2171 4
2172 17
2173 6
2174 4
2175 9
2176 6
2177 12
2178 18
2179 17
2180 8
2181 2
2182 2
2183 4
2184 6
2185 6
2186 9
2187 12
2188 12
2189 19
2190 13
2191 12
2192 6
2193 17
2194 6
2195 6
2196 9
2197 8
2198 0
2199 6
2200 0
2201 17
2202 19
2203 2
2204 7
2205 1
2206 9
2207 9
2208 10
2209 16
2210 9
2211 16
2212 10
2213 1
2214 10
2215 17
2216 12
2217 13
2218 2
2219 12
2220 4
2221 1
2222 2
2223 6
2224 10
2225 2
2226 9
2227 12
2228 9
2229 8
2230 10
2231 17
2232 5
2233 22
2234 1
2235 6
2236 19
2237 12
2238 2
2239 2
2240 12
2241 9
2242 19
2243 7
2244 19
2245 10
2246 2
2247 9
2248 6
2249 0
2250 4
2251 6
2252 4
2253 22
2254 12
2255 2
2256 15
2257 6
2258 6
2259 19
2260 22
2261 17
2262 17
2263 6
2264 13
2265 17
2266 17
2267 6
2268 19
2269 7
2270 9
2271 16
2272 4
2273 2
2274 17
2275 17
2276 11
2277 2
2278 6
2279 4
2280 5
2281 17
2282 19
2283 9
2284 17
2285 17
2286 13
2287 19
2288 6
2289 6
2290 17
2291 13
2292 0
2293 12
2294 12
2295 1
2296 9
2297 6
2298 17
2299 19
2300 13
2301 7
2302 13
2303 6
2304 6
2305 11
2306 17
2307 19
2308 13
2309 10
2310 9
2311 6
2312 6
2313 19
2314 21
2315 19
2316 13
2317 12
2318 2
2319 13
2320 4
2321 4
2322 9
2323 13
2324 12
2325 17
2326 7
2327 3
2328 12
2329 9
2330 12
2331 10
2332 4
2333 12
2334 4
2335 12
2336 19
2337 6
2338 10
2339 3
2340 6
2341 9
2342 12
2343 17
2344 17
2345 12
2346 12
2347 9
2348 12
2349 12
2350 6
2351 2
2352 9
2353 17
2354 12
2355 4
2356 6
2357 9
2358 10
2359 19
2360 9
2361 12
2362 4
2363 12
2364 9
2365 17
2366 13
2367 22
2368 6
2369 17
2370 0
2371 17
2372 9
2373 7
2374 12
2375 6
2376 13
2377 19
2378 19
2379 2
2380 13
2381 7
2382 2
2383 0
2384 12
2385 9
2386 9
2387 8
2388 4
2389 6
2390 6
2391 19
2392 12
2393 12
2394 12
2395 9
2396 12
2397 19
2398 8
2399 17
2400 12
2401 4
2402 2
2403 9
2404 19
2405 18
2406 16
2407 9
2408 17
2409 1
2410 1
2411 2
2412 6
2413 2
2414 13
2415 17
2416 4
2417 13
2418 12
2419 3
2420 17
2421 22
2422 13
2423 9
2424 2
2425 20
2426 12
2427 1
2428 8
2429 12
2430 12
2431 9
2432 10
2433 4
2434 19
2435 10
2436 16
2437 13
2438 17
2439 17
2440 6
2441 18
2442 4
2443 2
2444 1
2445 1
2446 12
2447 4
2448 23
2449 8
2450 6
2451 9
2452 0
2453 19
2454 12
2455 8
2456 4
2457 9
2458 2
2459 4
2460 12
2461 20
2462 1
2463 9
2464 4
2465 13
2466 11
2467 12
2468 3
2469 19
2470 17
2471 9
2472 8
2473 9
2474 21
2475 17
2476 12
2477 4
2478 19
2479 9
2480 1
2481 12
2482 9
2483 23
2484 16
2485 13
2486 4
2487 13
2488 7
2489 12
2490 17
2491 19
2492 1
2493 1
2494 19
2495 5
2496 9
2497 2
2498 12
2499 13
2500 9
2501 17
2502 1
2503 11
2504 4
2505 2
2506 17
2507 6
2508 9
2509 9
2510 3
2511 2
2512 1
2513 5
2514 19
2515 9
2516 6
2517 6
2518 21
2519 4
2520 10
2521 13
2522 6
2523 22
2524 13
2525 19
2526 4
2527 6
2528 18
2529 9
2530 13
2531 19
2532 1
2533 9
2534 9
2535 10
2536 6
2537 2
2538 9
2539 19
2540 17
2541 26
2542 1
2543 9
2544 17
2545 17
2546 7
2547 2
2548 2
2549 17
2550 17
2551 4
2552 12
2553 9
2554 1
2555 3
2556 1
2557 3
2558 12
2559 4
2560 6
2561 12
2562 18
2563 9
2564 17
2565 1
2566 9
2567 13
2568 6
2569 19
2570 9
2571 2
2572 9
2573 6
2574 2
2575 1
2576 1
2577 19
2578 9
2579 11
2580 17
2581 19
2582 6
2583 9
2584 9
2585 6
2586 13
2587 1
2588 4
2589 12
2590 19
2591 12
2592 4
2593 4
2594 12
2595 19
2596 9
2597 12
2598 19
2599 1
2600 12
2601 17
2602 12
2603 12
2604 1
2605 1
2606 9
2607 4
2608 4
2609 12
2610 12
2611 17
2612 2
2613 2
2614 2
2615 4
2616 9
2617 4
2618 19
2619 13
2620 17
2621 2
2622 17
2623 0
2624 6
2625 1
2626 4
2627 4
2628 6
2629 4
2630 1
2631 2
2632 19
2633 22
2634 9
2635 4
2636 13
2637 11
2638 16
2639 17
2640 1
2641 4
2642 17
2643 6
2644 13
2645 4
2646 9
2647 4
2648 0
2649 7
2650 9
2651 5
2652 8
2653 13
2654 4
2655 18
2656 17
2657 1
2658 9
2659 4
2660 4
2661 9
2662 19
2663 19
2664 19
2665 26
2666 3
2667 17
2668 6
2669 9
2670 6
2671 9
2672 2
2673 9
2674 1
2675 6
2676 19
2677 9
2678 12
2679 19
2680 13
2681 13
2682 23
2683 18
2684 1
2685 2
2686 4
2687 17
2688 9
2689 12
2690 17
2691 1
2692 9
2693 17
2694 4
2695 2
2696 6
2697 12
2698 2
2699 1
2700 2
2701 1
2702 9
2703 17
2704 3
2705 19
2706 4
2707 4
2708 4
2709 19
2710 9
2711 6
2712 12
2713 17
2714 9
2715 12
2716 2
2717 17
2718 16
2719 8
2720 4
2721 4
2722 1
2723 4
2724 17
2725 12
2726 17
2727 1
2728 18
2729 9
2730 6
2731 9
2732 19
2733 12
2734 13
2735 1
2736 19
2737 4
2738 7
2739 17
2740 17
2741 9
2742 2
2743 1
2744 13
2745 17
2746 13
2747 19
2748 12
2749 12
2750 12
2751 12
2752 12
2753 13
2754 20
2755 3
2756 6
2757 19
2758 11
2759 2
2760 4
2761 13
2762 4
2763 23
2764 16
2765 12
2766 13
2767 4
2768 9
2769 9
2770 4
2771 12
2772 4
2773 6
2774 6
2775 12
2776 9
2777 12
2778 1
2779 13
2780 4
2781 13
2782 12
2783 4
2784 12
2785 16
2786 8
2787 4
2788 4
2789 17
2790 12
2791 9
2792 17
2793 6
2794 10
2795 16
2796 12
2797 2
2798 10
2799 18
2800 17
2801 19
2802 19
2803 4
2804 1
2805 17
2806 2
2807 17
2808 2
2809 9
2810 4
2811 1
2812 4
2813 4
2814 4
2815 12
2816 1
2817 7
2818 4
2819 1
2820 9
2821 6
2822 12
2823 19
2824 19
2825 1
2826 9
2827 11
2828 4
2829 12
2830 12
2831 9
2832 2
2833 19
2834 11
2835 9
2836 4
2837 17
2838 17
2839 12
2840 14
2841 8
2842 9
2843 12
2844 9
2845 6
2846 9
2847 7
2848 18
2849 4
2850 4
2851 12
2852 12
2853 12
2854 12
2855 12
2856 17
2857 4
2858 9
2859 17
2860 12
2861 12
2862 12
2863 1
2864 4
2865 12
2866 1
2867 4
2868 6
2869 18
2870 12
2871 18
2872 9
2873 12
2874 2
2875 9
2876 12
2877 12
2878 2
2879 9
2880 12
2881 13
2882 9
2883 18
2884 4
2885 19
2886 4
2887 12
2888 1
2889 17
2890 6
2891 0
2892 7
2893 19
2894 6
2895 19
2896 12
2897 2
2898 10
2899 17
2900 9
2901 1
2902 4
2903 3
2904 17
2905 12
2906 13
2907 12
2908 12
2909 4
2910 9
2911 6
2912 19
2913 4
2914 4
2915 7
2916 12
2917 7
2918 1
2919 12
2920 12
2921 1
2922 5
2923 9
2924 4
2925 12
2926 12
2927 3
2928 2
2929 1
2930 0
2931 1
2932 13
2933 8
2934 9
2935 6
2936 4
2937 9
2938 4
2939 4
2940 4
2941 12
2942 1
2943 2
2944 6
2945 1
2946 13
2947 9
2948 6
2949 2
2950 13
2951 17
2952 4
2953 1
2954 4
2955 19
2956 9
2957 4
2958 6
2959 8
2960 17
2961 4
2962 4
2963 9
2964 6
2965 4
2966 19
2967 9
2968 4
2969 12
2970 9
2971 12
2972 3
2973 6
2974 19
2975 2
2976 13
2977 1
2978 17
2979 10
2980 19
2981 2
2982 17
2983 9
2984 1
2985 17
2986 19
2987 12
2988 9
2989 19
2990 4
2991 4
2992 12
2993 11
2994 6
2995 1
2996 19
2997 2
2998 4
2999 4
3000 12
3001 6
3002 6
3003 2
3004 2
3005 12
3006 6
3007 9
3008 6
3009 9
3010 9
3011 4
3012 4
3013 19
3014 13
3015 9
3016 4
3017 11
3018 8
3019 12
3020 23
3021 9
3022 6
3023 9
3024 18
3025 2
3026 12
3027 7
3028 12
3029 19
3030 19
3031 17
3032 4
3033 6
3034 19
3035 19
3036 9
3037 11
3038 6
3039 1
3040 19
3041 12
3042 1
3043 4
3044 1
3045 9
3046 4
3047 9
3048 12
3049 4
3050 13
3051 12
3052 9
3053 4
3054 4
3055 7
3056 9
3057 4
3058 17
3059 9
3060 1
3061 10
3062 4
3063 16
3064 6
3065 4
3066 12
3067 13
3068 1
3069 13
3070 26
3071 4
3072 0
3073 22
3074 2
3075 9
3076 9
3077 6
3078 1
3079 4
3080 17
3081 6
3082 8
3083 19
3084 9
3085 13
3086 9
3087 4
3088 4
3089 12
3090 19
3091 13
3092 2
3093 4
3094 19
3095 4
3096 22
3097 12
3098 13
3099 12
3100 2
3101 13
3102 9
3103 13
3104 1
3105 19
3106 17
3107 6
3108 12
3109 12
3110 13
3111 19
3112 17
3113 9
3114 9
3115 13
3116 1
3117 12
3118 12
3119 12
3120 13
3121 19
3122 17
3123 4
3124 18
3125 19
3126 19
3127 17
3128 2
3129 17
3130 17
3131 9
3132 19
3133 12
3134 4
3135 19
3136 9
3137 4
3138 8
3139 4
3140 12
3141 17
3142 12
3143 4
3144 12
3145 13
3146 2
3147 6
3148 9
3149 12
3150 4
3151 9
3152 19
3153 23
3154 12
3155 2
3156 12
3157 4
3158 19
3159 12
3160 6
3161 9
3162 12
3163 4
3164 17
3165 17
3166 12
3167 4
3168 22
3169 9
3170 17
3171 4
3172 4
3173 12
3174 12
3175 4
3176 12
3177 9
3178 22
3179 1
3180 4
3181 17
3182 4
3183 12
3184 19
3185 17
3186 2
3187 2
3188 9
3189 4
3190 9
3191 5
3192 12
3193 19
3194 9
3195 17
3196 9
3197 4
3198 19
3199 9
3200 4
3201 1
3202 12
3203 12
3204 13
3205 12
3206 13
3207 13
3208 11
3209 10
3210 4
3211 12
3212 12
3213 5
3214 6
3215 19
3216 4
3217 12
3218 5
3219 4
3220 12
3221 2
3222 17
3223 6
3224 19
3225 10
3226 9
3227 12
3228 12
3229 4
3230 1
3231 10
3232 2
3233 19
3234 12
3235 9
3236 13
3237 9
3238 1
3239 26
3240 10
3241 12
3242 17
3243 9
3244 9
3245 4
3246 1
3247 10
3248 19
3249 9
3250 19
3251 23
3252 4
3253 7
3254 6
3255 12
3256 2
3257 23
3258 0
3259 6
3260 9
3261 6
3262 12
3263 1
3264 6
3265 12
3266 12
3267 17
3268 12
3269 17
3270 9
3271 4
3272 2
3273 1
3274 12
3275 12
3276 11
3277 13
3278 17
3279 19
3280 6
3281 9
3282 1
3283 3
3284 12
3285 13
3286 9
3287 2
3288 10
3289 9
3290 17
3291 13
3292 12
3293 5
3294 16
3295 12
3296 9
3297 23
3298 17
3299 9
3300 19
3301 9
3302 13
3303 2
3304 6
3305 6
3306 4
3307 17
3308 10
3309 9
3310 0
3311 2
3312 13
3313 9
3314 12
3315 17
3316 19
3317 4
3318 4
3319 7
3320 17
3321 4
3322 12
3323 19
3324 19
3325 1
3326 3
3327 2
3328 9
3329 2
3330 17
3331 12
3332 9
3333 4
3334 4
3335 16
3336 10
3337 4
3338 23
3339 4
3340 13
3341 26
3342 18
3343 2
3344 9
3345 13
3346 6
3347 17
3348 12
3349 4
3350 17
3351 12
3352 0
3353 9
3354 19
3355 18
3356 13
3357 13
3358 10
3359 12
3360 13
3361 4
3362 12
3363 13
3364 1
3365 0
3366 1
3367 1
3368 17
3369 13
3370 12
3371 20
3372 18
3373 2
3374 4
3375 17
3376 4
3377 4
3378 12
3379 12
3380 19
3381 4
3382 9
3383 12
3384 13
3385 17
3386 12
3387 19
3388 9
3389 3
3390 4
3391 19
3392 13
3393 12
3394 12
3395 4
3396 12
3397 1
3398 9
3399 7
3400 12
3401 19
3402 6
3403 12
3404 12
3405 12
3406 13
3407 12
3408 17
3409 6
3410 12
3411 2
3412 12
3413 4
3414 13
3415 7
3416 4
3417 18
3418 17
3419 11
3420 9
3421 1
3422 4
3423 9
3424 19
3425 6
3426 4
3427 6
3428 9
3429 9
3430 17
3431 1
3432 1
3433 12
3434 12
3435 4
3436 19
3437 2
3438 4
3439 4
3440 13
3441 8
3442 19
3443 17
3444 9
3445 16
3446 9
3447 4
3448 4
3449 2
3450 12
3451 12
3452 17
3453 4
3454 12
3455 4
3456 19
3457 4
3458 6
3459 4
3460 13
3461 1
3462 4
3463 11
3464 19
3465 12
3466 4
3467 1
3468 13
3469 2
3470 13
3471 19
3472 12
3473 9
3474 7
3475 4
3476 4
3477 4
3478 0
3479 12
3480 12
3481 7
3482 9
3483 4
3484 17
3485 12
3486 4
3487 13
3488 12
3489 12
3490 1
3491 13
3492 18
3493 12
3494 13
3495 3
3496 9
3497 6
3498 4
3499 4
3500 13
3501 3
3502 12
3503 1
3504 13
3505 9
3506 18
3507 4
3508 6
3509 19
3510 2
3511 19
3512 25
3513 12
3514 12
3515 12
3516 18
3517 4
3518 9
3519 1
3520 20
3521 9
3522 12
3523 3
3524 6
3525 20
3526 12
3527 1
3528 6
3529 6
3530 14
3531 4
3532 1
3533 9
3534 17
3535 1
3536 4
3537 10
3538 17
3539 23
3540 12
3541 12
3542 6
3543 6
3544 6
3545 10
3546 12
3547 6
3548 13
3549 3
3550 17
3551 4
3552 12
3553 12
3554 2
3555 4
3556 13
3557 2
3558 12
3559 9
3560 22
3561 20
3562 4
3563 19
3564 1
3565 4
3566 23
3567 12
3568 9
3569 4
3570 4
3571 12
3572 9
3573 1
3574 17
3575 4
3576 4
3577 12
3578 17
3579 12
3580 2
3581 6
3582 17
3583 12
3584 12
3585 12
3586 2
3587 17
3588 0
3589 12
3590 12
3591 12
3592 3
3593 17
3594 6
3595 4
3596 13
3597 6
3598 4
3599 9
3600 6
3601 6
3602 12
3603 6
3604 17
3605 9
3606 12
3607 17
3608 9
3609 7
3610 7
3611 9
3612 10
3613 17
3614 4
3615 3
3616 0
3617 17
3618 17
3619 2
3620 4
3621 9
3622 17
3623 6
3624 6
3625 4
3626 9
3627 13
3628 9
3629 4
3630 4
3631 3
3632 12
3633 17
3634 13
3635 12
3636 13
3637 9
3638 8
3639 4
3640 4
3641 19
3642 17
3643 19
3644 9
3645 4
3646 6
3647 4
3648 12
3649 6
3650 17
3651 10
3652 6
3653 2
3654 12
3655 6
3656 13
3657 17
3658 19
3659 12
3660 6
3661 1
3662 19
3663 12
3664 6
3665 4
3666 12
3667 12
3668 19
3669 12
3670 1
3671 10
3672 17
3673 12
3674 13
3675 4
3676 12
3677 6
3678 12
3679 17
3680 19
3681 17
3682 9
3683 4
3684 9
3685 17
3686 17
3687 12
3688 3
3689 4
3690 17
3691 1
3692 7
3693 2
3694 6
3695 12
3696 13
3697 2
3698 12
3699 12
3700 4
3701 6
3702 10
3703 1
3704 0
3705 6
3706 17
3707 17
3708 2
3709 4
3710 2
3711 4
3712 4
3713 12
3714 9
3715 17
3716 13
3717 12
3718 4
3719 3
3720 1
3721 19
3722 12
3723 17
3724 6
3725 13
3726 19
3727 12
3728 17
3729 1
3730 9
3731 19
3732 17
3733 9
3734 4
3735 2
3736 12
3737 12
3738 12
3739 4
3740 4
3741 19
3742 19
3743 6
3744 17
3745 9
3746 12
3747 7
3748 4
3749 12
3750 12
3751 4
3752 1
3753 17
3754 12
3755 4
3756 2
3757 1
3758 9
3759 12
3760 4
3761 12
3762 9
3763 4
3764 6
3765 4
3766 17
3767 19
3768 12
3769 9
3770 4
3771 4
3772 6
3773 12
3774 1
3775 4
3776 26
3777 12
3778 17
3779 1
3780 4
3781 1
3782 17
3783 17
3784 17
3785 5
3786 6
3787 4
3788 17
3789 9
3790 17
3791 6
3792 1
3793 6
3794 19
3795 9
3796 18
3797 2
3798 17
3799 1
3800 3
3801 12
3802 9
3803 3
3804 9
3805 9
3806 6
3807 6
3808 9
3809 4
3810 19
3811 6
3812 9
3813 17
3814 4
3815 12
3816 2
3817 12
3818 9
3819 4
3820 18
3821 4
3822 9
3823 1
3824 9
3825 12
3826 1
3827 12
3828 9
3829 4
3830 9
3831 1
3832 9
3833 19
3834 4
3835 9
3836 12
3837 6
3838 17
3839 4
3840 2
3841 4
3842 6
3843 4
3844 4
3845 2
3846 4
3847 6
3848 9
3849 6
3850 4
3851 1
3852 2
3853 4
3854 12
3855 4
3856 2
3857 9
3858 19
3859 12
3860 2
3861 9
3862 19
3863 6
3864 12
3865 9
3866 10
3867 6
3868 4
3869 12
3870 9
3871 23
3872 9
3873 9
3874 4
3875 9
3876 2
3877 12
3878 9
3879 4
3880 6
3881 13
3882 12
3883 13
3884 17
3885 17
3886 12
3887 3
3888 17
3889 4
3890 6
3891 21
3892 4
3893 18
3894 12
3895 6
3896 10
3897 1
3898 6
3899 17
3900 4
3901 13
3902 16
3903 17
3904 9
3905 19
3906 6
3907 6
3908 6
3909 6
3910 17
3911 13
3912 7
3913 9
3914 17
3915 1
3916 12
3917 6
3918 9
3919 1
3920 13
3921 9
3922 4
3923 14
3924 4
3925 1
3926 6
3927 9
3928 17
3929 12
3930 1
3931 6
3932 17
3933 17
3934 9
3935 4
3936 12
3937 9
3938 2
3939 19
3940 12
3941 4
3942 19
3943 6
3944 17
3945 17
3946 3
3947 9
3948 2
3949 12
3950 19
3951 17
3952 2
3953 6
3954 19
3955 14
3956 13
3957 12
3958 19
3959 6
3960 1
3961 12
3962 13
3963 12
3964 8
3965 6
3966 14
3967 2
3968 9
3969 17
3970 10
3971 13
3972 9
3973 6
3974 9
3975 4
3976 4
3977 9
3978 1
3979 17
3980 11
3981 3
3982 12
3983 4
3984 2
3985 9
3986 4
3987 10
3988 17
3989 19
3990 12
3991 12
3992 2
3993 17
3994 13
3995 4
3996 2
3997 19
3998 17
3999 9
4000 4
4001 6
4002 4
4003 4
4004 10
4005 9
4006 1
4007 6
4008 12
4009 12
4010 17
4011 13
4012 19
4013 12
4014 9
4015 12
4016 19
4017 9
4018 9
4019 4
4020 4
4021 19
4022 2
4023 9
4024 2
4025 4
4026 12
4027 12
4028 2
4029 9
4030 17
4031 4
4032 6
4033 6
4034 17
4035 17
4036 9
4037 17
4038 4
4039 9
4040 6
4041 0
4042 17
4043 19
4044 17
4045 6
4046 9
4047 9
4048 12
4049 6
4050 6
4051 12
4052 17
4053 12
4054 3
4055 6
4056 6
4057 4
4058 9
4059 12
4060 12
4061 10
4062 10
4063 6
4064 13
4065 19
4066 12
4067 6
4068 12
4069 17
4070 4
4071 6
4072 13
4073 10
4074 4
4075 6
4076 4
4077 4
4078 4
4079 4
4080 12
4081 12
4082 7
4083 4
4084 6
4085 9
4086 9
4087 2
4088 4
4089 6
4090 9
4091 17
4092 1
4093 1
4094 1
4095 7
4096 7
4097 17
4098 9
4099 19
4100 18
4101 17
4102 12
4103 13
4104 9
4105 17
4106 17
4107 17
4108 12
4109 13
4110 6
4111 4
4112 8
4113 2
4114 1
4115 11
4116 19
4117 12
4118 25
4119 2
4120 19
4121 2
4122 12
4123 17
4124 6
4125 0
4126 5
4127 9
4128 9
4129 12
4130 7
4131 5
4132 2
4133 12
4134 6
4135 18
4136 6
4137 9
4138 10
4139 7
4140 4
4141 6
4142 16
4143 1
4144 19
4145 1
4146 4
4147 12
4148 12
4149 2
4150 13
4151 7
4152 19
4153 6
4154 6
4155 1
4156 1
4157 4
4158 7
4159 4
4160 17
4161 4
4162 2
4163 12
4164 17
4165 21
4166 1
4167 13
4168 9
4169 9
4170 6
4171 18
4172 6
4173 6
4174 13
4175 4
4176 12
4177 1
4178 9
4179 12
4180 6
4181 6
4182 25
4183 4
4184 12
4185 4
4186 9
4187 9
4188 13
4189 13
4190 19
4191 17
4192 22
4193 19
4194 12
4195 17
4196 13
4197 2
4198 22
4199 4
4200 12
4201 8
4202 4
4203 19
4204 2
4205 12
4206 1
4207 17
4208 6
4209 9
4210 4
4211 12
4212 23
4213 10
4214 12
4215 17
4216 17
4217 2
4218 17
4219 12
4220 4
4221 12
4222 9
4223 2
4224 6
4225 23
4226 17
4227 12
4228 6
4229 6
4230 4
4231 17
4232 13
4233 12
4234 6
4235 19
4236 18
4237 11
4238 2
4239 10
4240 19
4241 13
4242 2
4243 10
4244 0
4245 9
4246 11
4247 12
4248 17
4249 12
4250 2
4251 13
4252 9
4253 6
4254 6
4255 4
4256 2
4257 4
4258 9
4259 19
4260 1
4261 6
4262 18
4263 7
4264 19
4265 20
4266 19
4267 12
4268 9
4269 6
4270 13
4271 2
4272 12
4273 12
4274 19
4275 19
4276 9
4277 5
4278 9
4279 12
4280 6
4281 1
4282 2
4283 6
4284 5
4285 12
4286 7
4287 17
4288 7
4289 12
4290 0
4291 2
4292 13
4293 2
4294 2
4295 12
4296 13
4297 4
4298 26
4299 11
4300 1
4301 6
4302 2
4303 6
4304 6
4305 3
4306 6
4307 17
4308 12
4309 16
4310 4
4311 10
4312 9
4313 2
4314 6
4315 6
4316 7
4317 16
4318 19
4319 9
4320 10
4321 6
4322 6
4323 17
4324 19
4325 6
4326 9
4327 19
4328 6
4329 0
4330 17
4331 17
4332 12
4333 4
4334 9
4335 9
4336 17
4337 5
4338 6
4339 19
4340 12
4341 17
4342 1
4343 1
4344 12
4345 12
4346 4
4347 9
4348 4
4349 13
4350 12
4351 6
4352 18
4353 9
4354 12
4355 19
4356 19
4357 9
4358 4
4359 17
4360 17
4361 18
4362 26
4363 3
4364 10
4365 13
4366 17
4367 0
4368 7
4369 2
4370 12
4371 3
4372 16
4373 19
4374 9
4375 6
4376 1
4377 9
4378 4
4379 13
4380 12
4381 12
4382 9
4383 1
4384 17
4385 19
4386 7
4387 9
4388 9
4389 8
4390 19
4391 12
4392 4
4393 13
4394 1
4395 4
4396 2
4397 6
4398 12
4399 19
4400 0
4401 13
4402 7
4403 9
4404 9
4405 17
4406 23
4407 6
4408 1
4409 19
4410 17
4411 9
4412 0
4413 23
4414 12
4415 6
4416 12
4417 0
4418 9
4419 2
4420 6
4421 21
4422 13
4423 4
4424 12
4425 22
4426 19
4427 6
4428 17
4429 2
4430 4
4431 17
4432 4
4433 18
4434 12
4435 9
4436 6
4437 9
4438 18
4439 19
4440 17
4441 13
4442 9
4443 12
4444 17
4445 19
4446 9
4447 1
4448 1
4449 19
4450 17
4451 17
4452 9
4453 7
4454 9
4455 1
4456 9
4457 6
4458 4
4459 13
4460 12
4461 6
4462 6
4463 2
4464 4
4465 9
4466 13
4467 12
4468 12
4469 6
4470 19
4471 10
4472 12
4473 1
4474 2
4475 9
4476 9
4477 6
4478 4
4479 4
4480 13
4481 7
4482 12
4483 9
4484 17
4485 6
4486 6
4487 9
4488 9
4489 0
4490 2
4491 19
4492 6
4493 13
4494 6
4495 17
4496 10
4497 5
4498 18
4499 17
4500 19
4501 0
4502 8
4503 4
4504 19
4505 1
4506 2
4507 17
4508 19
4509 20
4510 17
4511 2
4512 9
4513 4
4514 19
4515 1
4516 13
4517 12
4518 19
4519 17
4520 9
4521 12
4522 4
4523 10
4524 2
4525 12
4526 4
4527 3
4528 7
4529 5
4530 19
4531 17
4532 12
4533 19
4534 9
4535 1
4536 4
4537 11
4538 1
4539 8
4540 9
4541 23
4542 17
4543 4
4544 1
4545 17
4546 6
4547 19
4548 17
4549 12
4550 7
4551 21
4552 1
4553 21
4554 2
4555 19
4556 2
4557 12
4558 9
4559 4
4560 4
4561 2
4562 2
4563 12
4564 6
4565 12
4566 17
4567 1
4568 6
4569 13
4570 0
4571 12
4572 10
4573 4
4574 3
4575 6
4576 17
4577 6
4578 9
4579 10
4580 17
4581 1
4582 6
4583 0
4584 6
4585 19
4586 17
4587 13
4588 9
4589 19
4590 6
4591 2
4592 23
4593 8
4594 9
4595 10
4596 20
4597 6
4598 10
4599 9
4600 0
4601 17
4602 1
4603 9
4604 4
4605 6
4606 17
4607 1
4608 1
4609 21
4610 4
4611 9
4612 19
4613 11
4614 12
4615 17
4616 2
4617 10
4618 12
4619 4
4620 6
4621 4
4622 2
4623 9
4624 6
4625 9
4626 12
4627 13
4628 0
4629 1
4630 4
4631 12
4632 9
4633 13
4634 17
4635 1
4636 4
4637 3
4638 17
4639 19
4640 19
4641 4
4642 4
4643 13
4644 2
4645 19
4646 6
4647 18
4648 19
4649 9
4650 4
4651 4
4652 4
4653 17
4654 4
4655 1
4656 9
4657 9
4658 1
4659 12
4660 6
4661 10
4662 6
4663 18
4664 13
4665 4
4666 12
4667 4
4668 4
4669 9
4670 9
4671 9
4672 17
4673 8
4674 6
4675 10
4676 13
4677 10
4678 1
4679 10
4680 12
4681 19
4682 1
4683 0
4684 4
4685 4
4686 17
4687 4
4688 12
4689 2
4690 1
4691 19
4692 19
4693 17
4694 4
4695 9
4696 4
4697 4
4698 12
4699 1
4700 13
4701 13
4702 6
4703 4
4704 2
4705 4
4706 4
4707 12
4708 12
4709 17
4710 19
4711 2
4712 17
4713 9
4714 1
4715 4
4716 4
4717 9
4718 12
4719 1
4720 4
4721 1
4722 19
4723 17
4724 4
4725 13
4726 12
4727 4
4728 4
4729 1
4730 7
4731 19
4732 9
4733 1
4734 16
4735 9
4736 17
4737 17
4738 4
4739 4
4740 17
4741 3
4742 0
4743 4
4744 9
4745 2
4746 6
4747 6
4748 4
4749 6
4750 1
4751 19
4752 9
4753 4
4754 4
4755 4
4756 19
4757 13
4758 4
4759 9
4760 4
4761 9
4762 17
4763 9
4764 19
4765 9
4766 17
4767 9
4768 3
4769 19
4770 4
4771 19
4772 19
4773 9
4774 6
4775 6
4776 2
4777 4
4778 4
4779 1
4780 4
4781 6
4782 19
4783 19
4784 9
4785 13
4786 9
4787 6
4788 9
4789 6
4790 12
4791 9
4792 6
4793 8
4794 4
4795 13
4796 6
4797 13
4798 13
4799 12
4800 1
4801 19
4802 12
4803 17
4804 1
4805 6
4806 2
4807 4
4808 9
4809 12
4810 4
4811 6
4812 7
4813 9
4814 4
4815 4
4816 12
4817 1
4818 12
4819 4
4820 12
4821 4
4822 6
4823 22
4824 12
4825 9
4826 9
4827 1
4828 1
4829 19
4830 12
4831 12
4832 4
4833 7
4834 4
4835 18
4836 4
4837 4
4838 12
4839 19
4840 1
4841 18
4842 9
4843 4
4844 18
4845 19
4846 13
4847 19
4848 7
4849 8
4850 4
4851 4
4852 6
4853 2
4854 1
4855 6
4856 4
4857 4
4858 4
4859 1
4860 19
4861 2
4862 9
4863 12
4864 9
4865 8
4866 10
4867 9
4868 19
4869 6
4870 13
4871 12
4872 4
4873 17
4874 18
4875 4
4876 17
4877 1
4878 12
4879 9
4880 12
4881 19
4882 13
4883 17
4884 9
4885 9
4886 2
4887 13
4888 4
4889 4
4890 17
4891 19
4892 0
4893 17
4894 12
4895 13
4896 2
4897 12
4898 4
4899 4
4900 9
4901 13
4902 16
4903 10
4904 19
4905 17
4906 0
4907 13
4908 6
4909 1
4910 4
4911 19
4912 9
4913 19
4914 8
4915 19
4916 12
4917 4
4918 4
4919 9
4920 9
4921 2
4922 20
4923 1
4924 7
4925 2
4926 19
4927 1
4928 4
4929 19
4930 12
4931 12
4932 18
4933 13
4934 7
4935 4
4936 17
4937 9
4938 12
4939 9
4940 9
4941 1
4942 6
4943 12
4944 9
4945 10
4946 4
4947 9
4948 13
4949 7
4950 12
4951 12
4952 12
4953 9
4954 17
4955 17
4956 2
4957 13
4958 4
4959 13
4960 19
4961 12
4962 19
4963 13
4964 17
4965 19
4966 12
4967 17
4968 4
4969 12
4970 9
4971 2
4972 9
4973 1
4974 4
4975 4
4976 12
4977 12
4978 8
4979 1
4980 19
4981 16
4982 9
4983 10
4984 4
4985 9
4986 1
4987 4
4988 2
4989 2
4990 22
4991 17
4992 17
4993 7
4994 19
4995 12
4996 5
4997 4
4998 17
4999 12
5000 12
5001 10
5002 8
5003 6
5004 4
5005 17
5006 1
5007 6
5008 2
5009 0
5010 13
5011 1
5012 19
5013 17
5014 1
5015 9
5016 13
5017 9
5018 9
5019 4
5020 9
5021 4
5022 9
5023 4
5024 4
5025 1
5026 4
5027 9
5028 4
5029 12
5030 2
5031 8
5032 4
5033 2
5034 1
5035 6
5036 6
5037 6
5038 19
5039 13
5040 17
5041 4
5042 22
5043 13
5044 3
5045 13
5046 4
5047 1
5048 19
5049 6
5050 12
5051 13
5052 1
5053 12
5054 19
5055 4
5056 9
5057 4
5058 13
5059 12
5060 10
5061 22
5062 12
5063 4
5064 1
5065 2
5066 6
5067 4
5068 12
5069 19
5070 6
5071 1
5072 12
5073 6
5074 9
5075 10
5076 12
5077 8
5078 9
5079 4
5080 9
5081 7
5082 12
5083 3
5084 12
5085 6
5086 12
5087 17
5088 5
5089 4
5090 17
5091 19
5092 17
5093 2
5094 1
5095 9
5096 2
5097 9
5098 17
5099 12
5100 4
5101 13
5102 17
5103 12
5104 12
5105 9
5106 9
5107 17
5108 13
5109 1
5110 17
5111 19
5112 9
5113 4
5114 4
5115 4
5116 3
5117 12
5118 19
5119 6
5120 12
5121 9
5122 19
5123 12
5124 12
5125 13
5126 4
5127 2
5128 12
5129 12
5130 2
5131 18
5132 1
5133 4
5134 9
5135 20
5136 4
5137 4
5138 9
5139 10
5140 19
5141 19
5142 6
5143 19
5144 2
5145 8
5146 4
5147 6
5148 4
5149 4
5150 4
5151 6
5152 13
5153 12
5154 12
5155 19
5156 9
5157 1
5158 10
5159 6
5160 12
5161 19
5162 0
5163 9
5164 17
5165 13
5166 7
5167 12
5168 13
5169 1
5170 13
5171 12
5172 12
5173 9
5174 4
5175 13
5176 13
5177 4
5178 17
5179 10
5180 12
5181 9
5182 12
5183 19
5184 13
5185 1
5186 19
5187 12
5188 13
5189 13
5190 9
5191 23
5192 3
5193 13
5194 4
5195 12
5196 12
5197 17
5198 12
5199 4
5200 13
5201 4
5202 17
5203 19
5204 12
5205 6
5206 17
5207 9
5208 4
5209 19
5210 17
5211 12
5212 26
5213 13
5214 4
5215 10
5216 13
5217 12
5218 10
5219 4
5220 17
5221 12
5222 1
5223 4
5224 7
5225 9
5226 4
5227 23
5228 8
5229 4
5230 12
5231 0
5232 4
5233 0
5234 4
5235 4
5236 17
5237 12
5238 10
5239 1
5240 23
5241 12
5242 17
5243 9
5244 9
5245 1
5246 4
5247 13
5248 9
5249 19
5250 19
5251 13
5252 6
5253 7
5254 17
5255 3
5256 19
5257 9
5258 9
5259 13
5260 13
5261 13
5262 13
5263 1
5264 12
5265 19
5266 12
5267 6
5268 12
5269 13
5270 12
5271 17
5272 12
5273 4
5274 19
5275 18
5276 13
5277 1
5278 2
5279 18
5280 4
5281 5
5282 12
5283 24
5284 3
5285 1
5286 17
5287 13
5288 19
5289 4
5290 12
5291 19
5292 12
5293 13
5294 12
5295 12
5296 10
5297 4
5298 16
5299 7
5300 12
5301 13
5302 9
5303 2
5304 19
5305 6
5306 0
5307 6
5308 6
5309 12
5310 9
5311 1
5312 12
5313 17
5314 1
5315 9
5316 4
5317 9
5318 6
5319 4
5320 4
5321 1
5322 2
5323 4
5324 4
5325 12
5326 12
5327 2
5328 12
5329 4
5330 17
5331 17
5332 19
5333 8
5334 1
5335 12
5336 1
5337 13
5338 10
5339 2
5340 9
5341 9
5342 6
5343 9
5344 1
5345 12
5346 12
5347 19
5348 12
5349 9
5350 6
5351 12
5352 13
5353 17
5354 6
5355 12
5356 1
5357 12
5358 17
5359 13
5360 13
5361 19
5362 6
5363 4
5364 2
5365 19
5366 6
5367 12
5368 7
5369 6
5370 12
5371 9
5372 10
5373 10
5374 23
5375 4
5376 23
5377 1
5378 4
5379 13
5380 12
5381 13
5382 13
5383 12
5384 13
5385 17
5386 7
5387 19
5388 1
5389 13
5390 16
5391 22
5392 22
5393 19
5394 12
5395 17
5396 17
5397 12
5398 4
5399 4
5400 10
5401 12
5402 19
5403 18
5404 9
5405 25
5406 12
5407 13
5408 17
5409 6
5410 0
5411 12
5412 6
5413 9
5414 1
5415 12
5416 7
5417 6
5418 2
5419 16
5420 17
5421 1
5422 19
5423 2
5424 2
5425 9
5426 9
5427 10
5428 2
5429 3
5430 4
5431 9
5432 12
5433 13
5434 1
5435 9
5436 9
5437 4
5438 6
5439 13
5440 12
5441 3
5442 13
5443 3
5444 4
5445 12
5446 13
5447 12
5448 5
5449 12
5450 12
5451 3
5452 19
5453 19
5454 4
5455 19
5456 4
5457 12
5458 1
5459 19
5460 6
5461 4
5462 4
5463 13
5464 12
5465 17
5466 6
5467 9
5468 6
5469 17
5470 4
5471 4
5472 9
5473 9
5474 6
5475 4
5476 2
5477 12
5478 1
5479 13
5480 1
5481 4
5482 19
5483 17
5484 8
5485 4
5486 5
5487 13
5488 2
5489 9
5490 19
5491 18
5492 19
5493 1
5494 4
5495 4
5496 10
5497 7
5498 4
5499 9
5500 6
5501 2
5502 17
5503 4
5504 19
5505 12
5506 9
5507 13
5508 6
5509 1
5510 19
5511 12
5512 12
5513 9
5514 4
5515 12
5516 17
5517 9
5518 9
5519 6
5520 10
5521 12
5522 9
5523 1
5524 9
5525 2
5526 9
5527 4
5528 12
5529 2
5530 9
5531 23
5532 17
5533 12
5534 23
5535 17
5536 17
5537 17
5538 1
5539 19
5540 12
5541 9
5542 9
5543 9
5544 17
5545 12
5546 12
5547 12
5548 6
5549 9
5550 4
5551 4
5552 11
5553 6
5554 12
5555 12
5556 4
5557 3
5558 4
5559 12
5560 17
5561 12
5562 19
5563 13
5564 12
5565 13
5566 9
5567 6
5568 4
5569 6
5570 12
5571 2
5572 4
5573 19
5574 1
5575 9
5576 2
5577 12
5578 9
5579 6
5580 13
5581 11
5582 3
5583 1
5584 16
5585 6
5586 13
5587 12
5588 2
5589 12
5590 13
5591 22
5592 17
5593 17
5594 2
5595 19
5596 9
5597 9
5598 6
5599 9
5600 19
5601 12
5602 12
5603 19
5604 13
5605 1
5606 1
5607 23
5608 12
5609 3
5610 6
5611 12
5612 19
5613 12
5614 1
5615 17
5616 12
5617 12
5618 3
5619 4
5620 17
5621 17
5622 17
5623 6
5624 6
5625 9
5626 19
5627 2
5628 4
5629 12
5630 17
5631 4
5632 12
5633 12
5634 12
5635 17
5636 6
5637 4
5638 6
5639 17
5640 12
5641 18
5642 13
5643 17
5644 1
5645 4
5646 3
5647 4
5648 17
5649 12
5650 4
5651 10
5652 4
5653 9
5654 4
5655 12
5656 8
5657 6
5658 16
5659 13
5660 19
5661 17
5662 2
5663 3
5664 4
5665 17
5666 9
5667 3
5668 12
5669 19
5670 2
5671 9
5672 16
5673 12
5674 4
5675 4
5676 9
5677 17
5678 1
5679 1
5680 6
5681 19
5682 4
5683 9
5684 2
5685 12
5686 2
5687 6
5688 17
5689 17
5690 17
5691 4
5692 17
5693 9
5694 4
5695 13
5696 19
5697 4
5698 19
5699 17
5700 17
5701 19
5702 1
5703 2
5704 9
5705 6
5706 17
5707 9
5708 4
5709 12
5710 12
5711 13
5712 9
5713 4
5714 9
5715 17
5716 1
5717 6
5718 12
5719 9
5720 18
5721 6
5722 12
5723 2
5724 1
5725 17
5726 12
5727 12
5728 0
5729 6
5730 6
5731 12
5732 12
5733 17
5734 19
5735 12
5736 12
5737 4
5738 24
5739 1
5740 9
5741 4
5742 12
5743 6
5744 6
5745 12
5746 9
5747 13
5748 6
5749 1
5750 13
5751 12
5752 6
5753 6
5754 9
5755 12
5756 18
5757 12
5758 13
5759 19
5760 9
5761 9
5762 12
5763 4
5764 19
5765 4
5766 17
5767 4
5768 12
5769 2
5770 17
5771 19
5772 19
5773 17
5774 4
5775 12
5776 9
5777 17
5778 1
5779 9
5780 6
5781 6
5782 17
5783 9
5784 0
5785 12
5786 22
5787 6
5788 17
5789 9
5790 19
5791 9
5792 10
5793 9
5794 19
5795 4
5796 13
5797 17
5798 17
5799 12
5800 17
5801 4
5802 19
5803 4
5804 16
5805 19
5806 12
5807 4
5808 6
5809 19
5810 17
5811 17
5812 17
5813 19
5814 6
5815 4
5816 17
5817 12
5818 7
5819 1
5820 4
5821 17
5822 4
5823 13
5824 23
5825 10
5826 12
5827 17
5828 12
5829 12
5830 9
5831 1
5832 9
5833 4
5834 2
5835 4
5836 4
5837 16
5838 17
5839 12
5840 0
5841 23
5842 6
5843 19
5844 6
5845 12
5846 1
5847 17
5848 6
5849 4
5850 5
5851 12
5852 12
5853 12
5854 12
5855 6
5856 17
5857 0
5858 9
5859 9
5860 9
5861 4
5862 6
5863 4
5864 6
5865 9
5866 13
5867 6
5868 4
5869 17
5870 2
5871 12
5872 4
5873 9
5874 4
5875 4
5876 1
5877 19
5878 2
5879 17
5880 1
5881 18
5882 4
5883 17
5884 17
5885 6
5886 4
5887 10
5888 17
5889 12
5890 4
5891 17
5892 17
5893 6
5894 17
5895 12
5896 6
5897 19
5898 2
5899 9
5900 1
5901 9
5902 17
5903 6
5904 20
5905 1
5906 6
5907 10
5908 6
5909 13
5910 12
5911 6
5912 6
5913 4
5914 2
5915 13
5916 9
5917 6
5918 4
5919 6
5920 9
5921 2
5922 9
5923 4
5924 17
5925 6
5926 12
5927 19
5928 9
5929 13
5930 12
5931 4
5932 4
5933 4
5934 6
5935 2
5936 22
5937 12
5938 9
5939 23
5940 2
5941 6
5942 4
5943 17
5944 12
5945 4
5946 17
5947 12
5948 9
5949 9
5950 12
5951 19
5952 9
5953 20
5954 12
5955 6
5956 12
5957 13
5958 4
5959 2
5960 10
5961 12
5962 19
5963 3
5964 12
5965 4
5966 9
5967 17
5968 6
5969 6
5970 17
5971 12
5972 19
5973 9
5974 4
5975 12
5976 2
5977 9
5978 19
5979 4
5980 4
5981 12
5982 12
5983 9
5984 6
5985 4
5986 12
5987 19
5988 9
5989 19
5990 1
5991 1
5992 10
5993 4
5994 12
5995 12
5996 1
5997 19
5998 6
5999 2
6000 12
6001 12
6002 13
6003 9
6004 6
6005 6
6006 17
6007 4
6008 9
6009 4
6010 6
6011 17
6012 2
6013 17
6014 17
6015 17
6016 4
6017 6
6018 12
6019 13
6020 9
6021 4
6022 1
6023 3
6024 12
6025 4
6026 9
6027 12
6028 4
6029 12
6030 2
6031 13
6032 1
6033 9
6034 2
6035 6
6036 17
6037 9
6038 19
6039 6
6040 12
6041 12
6042 9
6043 17
6044 17
6045 12
6046 12
6047 12
6048 17
6049 19
6050 12
6051 12
6052 17
6053 12
6054 12
6055 12
6056 9
6057 21
6058 2
6059 12
6060 1
6061 12
6062 2
6063 13
6064 13
6065 4
6066 12
6067 4
6068 9
6069 6
6070 4
6071 12
6072 9
6073 9
6074 6
6075 17
6076 4
6077 19
6078 11
6079 19
6080 6
6081 17
6082 4
6083 9
6084 1
6085 19
6086 12
6087 4
6088 4
6089 10
6090 19
6091 3
6092 8
6093 3
6094 9
6095 12
6096 12
6097 4
6098 8
6099 2
6100 2
6101 8
6102 13
6103 13
6104 9
6105 0
6106 19
6107 9
6108 17
6109 9
6110 17
6111 3
6112 1
6113 1
6114 12
6115 9
6116 3
6117 4
6118 9
6119 6
6120 4
6121 19
6122 12
6123 4
6124 4
6125 17
6126 17
6127 6
6128 12
6129 17
6130 12
6131 2
6132 17
6133 13
6134 2
6135 12
6136 12
6137 8
6138 13
6139 0
6140 6
6141 12
6142 9
6143 13
6144 11
6145 12
6146 6
6147 12
6148 10
6149 2
6150 17
6151 4
6152 2
6153 9
6154 4
6155 19
6156 6
6157 1
6158 19
6159 1
6160 4
6161 7
6162 12
6163 10
6164 12
6165 17
6166 4
6167 13
6168 4
6169 6
6170 3
6171 19
6172 1
6173 6
6174 17
6175 9
6176 13
6177 6
6178 4
6179 2
6180 12
6181 0
6182 2
6183 1
6184 19
6185 13
6186 1
6187 12
6188 8
6189 4
6190 4
6191 9
6192 17
6193 19
6194 2
6195 6
6196 12
6197 9
6198 4
6199 16
6200 6
6201 2
6202 9
6203 10
6204 3
6205 9
6206 17
6207 17
6208 12
6209 17
6210 13
6211 13
6212 21
6213 6
6214 0
6215 17
6216 6
6217 19
6218 13
6219 13
6220 6
6221 12
6222 4
6223 19
6224 12
6225 17
6226 1
6227 3
6228 6
6229 12
6230 2
6231 2
6232 4
6233 7
6234 13
6235 19
6236 12
6237 4
6238 4
6239 9
6240 6
6241 4
6242 2
6243 10
6244 10
6245 1
6246 2
6247 22
6248 9
6249 19
6250 2
6251 3
6252 2
6253 17
6254 2
6255 4
6256 17
6257 6
6258 6
6259 6
6260 17
6261 22
6262 18
6263 12
6264 12
6265 19
6266 6
6267 0
6268 1
6269 6
6270 12
6271 4
6272 17
6273 4
6274 6
6275 4
6276 19
6277 2
6278 12
6279 6
6280 9
6281 12
6282 6
6283 0
6284 17
6285 2
6286 12
6287 17
6288 12
6289 13
6290 14
6291 12
6292 17
6293 2
6294 13
6295 19
6296 2
6297 1
6298 13
6299 19
6300 13
6301 9
6302 7
6303 6
6304 9
6305 18
6306 0
6307 19
6308 17
6309 20
6310 7
6311 12
6312 12
6313 12
6314 19
6315 9
6316 23
6317 19
6318 6
6319 2
6320 4
6321 2
6322 13
6323 11
6324 6
6325 10
6326 10
6327 2
6328 12
6329 12
6330 3
6331 4
6332 2
6333 9
6334 9
6335 2
6336 12
6337 9
6338 9
6339 6
6340 18
6341 12
6342 23
6343 17
6344 10
6345 12
6346 16
6347 23
6348 15
6349 9
6350 19
6351 5
6352 18
6353 6
6354 1
6355 2
6356 17
6357 4
6358 12
6359 6
6360 13
6361 16
6362 19
6363 4
6364 17
6365 12
6366 19
6367 16
6368 17
6369 17
6370 6
6371 17
6372 13
6373 4
6374 6
6375 13
6376 13
6377 17
6378 5
6379 6
6380 2
6381 9
6382 13
6383 19
6384 25
6385 4
6386 6
6387 12
6388 10
6389 6
6390 2
6391 3
6392 4
6393 17
6394 9
6395 12
6396 17
6397 2
6398 12
6399 6
6400 6
6401 12
6402 17
6403 14
6404 12
6405 9
6406 12
6407 7
6408 2
6409 17
6410 18
6411 5
6412 2
6413 12
6414 1
6415 0
6416 2
6417 19
6418 10
6419 2
6420 6
6421 23
6422 6
6423 17
6424 22
6425 12
6426 2
6427 0
6428 13
6429 4
6430 6
6431 13
6432 9
6433 2
6434 12
6435 12
6436 9
6437 6
6438 8
6439 12
6440 12
6441 23
6442 9
6443 4
6444 19
6445 19
6446 2
6447 6
6448 2
6449 19
6450 9
6451 18
6452 10
6453 10
6454 3
6455 19
6456 9
6457 2
6458 7
6459 13
6460 1
6461 2
6462 2
6463 5
6464 1
6465 18
6466 4
6467 9
6468 12
6469 6
6470 6
6471 1
6472 17
6473 17
6474 9
6475 6
6476 11
6477 6
6478 4
6479 19
6480 9
6481 9
6482 8
6483 1
6484 12
6485 12
6486 17
6487 17
6488 12
6489 19
6490 1
6491 13
6492 6
6493 10
6494 19
6495 9
6496 4
6497 9
6498 18
6499 17
6500 13
6501 9
6502 1
6503 21
6504 3
6505 9
6506 6
6507 13
6508 14
6509 9
6510 12
6511 9
6512 12
6513 2
6514 12
6515 1
6516 2
6517 1
6518 23
6519 12
6520 6
6521 8
6522 13
6523 19
6524 17
6525 19
6526 2
6527 2
6528 7
6529 3
6530 9
6531 9
6532 19
6533 12
6534 17
6535 16
6536 13
6537 18
6538 19
6539 9
6540 9
6541 13
6542 9
6543 6
6544 1
6545 19
6546 12
6547 1
6548 9
6549 1
6550 13
6551 12
6552 9
6553 18
6554 23
6555 17
6556 4
6557 9
6558 6
6559 0
6560 6
6561 6
6562 19
6563 13
6564 13
6565 13
6566 19
6567 1
6568 9
6569 4
6570 12
6571 1
6572 4
6573 13
6574 19
6575 19
6576 5
6577 7
6578 17
6579 6
6580 12
6581 2
6582 1
6583 23
6584 23
6585 6
6586 4
6587 12
6588 2
6589 9
6590 9
6591 11
6592 4
6593 12
6594 1
6595 9
6596 6
6597 19
6598 19
6599 12
6600 1
6601 9
6602 10
6603 12
6604 19
6605 17
6606 6
6607 9
6608 1
6609 9
6610 8
6611 12
6612 19
6613 16
6614 5
6615 9
6616 9
6617 19
6618 8
6619 9
6620 1
6621 12
6622 15
6623 23
6624 1
6625 19
6626 9
6627 4
6628 11
6629 9
6630 4
6631 2
6632 12
6633 6
6634 7
6635 10
6636 9
6637 1
6638 1
6639 7
6640 13
6641 1
6642 23
6643 6
6644 1
6645 1
6646 21
6647 23
6648 6
6649 12
6650 4
6651 12
6652 17
6653 2
6654 6
6655 12
6656 18
6657 13
6658 2
6659 12
6660 1
6661 5
6662 9
6663 4
6664 4
6665 12
6666 16
6667 5
6668 13
6669 9
6670 5
6671 19
6672 4
6673 7
6674 17
6675 19
6676 2
6677 4
6678 2
6679 9
6680 13
6681 4
6682 17
6683 1
6684 9
6685 23
6686 1
6687 1
6688 9
6689 9
6690 12
6691 9
6692 4
6693 11
6694 6
6695 17
6696 17
6697 23
6698 6
6699 9
6700 12
6701 19
6702 0
6703 17
6704 8
6705 1
6706 6
6707 6
6708 19
6709 4
6710 19
6711 12
6712 4
6713 12
6714 23
6715 6
6716 2
6717 19
6718 9
6719 16
6720 17
6721 12
6722 9
6723 12
6724 9
6725 3
6726 2
6727 1
6728 4
6729 9
6730 12
6731 1
6732 17
6733 1
6734 18
6735 6
6736 5
6737 4
6738 19
6739 9
6740 17
6741 19
6742 4
6743 17
6744 12
6745 19
6746 4
6747 1
6748 18
6749 19
6750 16
6751 1
6752 9
6753 10
6754 6
6755 8
6756 6
6757 19
6758 13
6759 12
6760 9
6761 17
6762 19
6763 13
6764 12
6765 9
6766 2
6767 1
6768 9
6769 19
6770 12
6771 6
6772 17
6773 13
6774 21
6775 12
6776 19
6777 19
6778 19
6779 4
6780 12
6781 12
6782 17
6783 9
6784 2
6785 4
6786 19
6787 12
6788 10
6789 6
6790 4
6791 12
6792 2
6793 17
6794 1
6795 4
6796 17
6797 13
6798 1
6799 6
6800 1
6801 1
6802 2
6803 9
6804 1
6805 17
6806 16
6807 9
6808 1
6809 3
6810 6
6811 13
6812 22
6813 19
6814 3
6815 20
6816 4
6817 6
6818 13
6819 2
6820 13
6821 13
6822 6
6823 17
6824 1
6825 12
6826 7
6827 12
6828 4
6829 12
6830 1
6831 1
6832 22
6833 12
6834 1
6835 2
6836 6
6837 3
6838 12
6839 9
6840 1
6841 4
6842 19
6843 9
6844 17
6845 13
6846 17
6847 12
6848 12
6849 1
6850 17
6851 17
6852 12
6853 6
6854 16
6855 12
6856 19
6857 1
6858 12
6859 6
6860 17
6861 12
6862 17
6863 10
6864 19
6865 4
6866 12
6867 13
6868 1
6869 23
6870 12
6871 0
6872 6
6873 17
6874 12
6875 17
6876 5
6877 12
6878 6
6879 6
6880 1
6881 12
6882 12
6883 4
6884 9
6885 1
6886 9
6887 12
6888 4
6889 5
6890 12
6891 12
6892 4
6893 4
6894 16
6895 2
6896 9
6897 19
6898 13
6899 18
6900 17
6901 2
6902 12
6903 6
6904 9
6905 1
6906 23
6907 2
6908 1
6909 12
6910 19
6911 12
6912 7
6913 12
6914 9
6915 19
6916 19
6917 12
6918 16
6919 19
6920 4
6921 7
6922 13
6923 2
6924 2
6925 4
6926 6
6927 13
6928 4
6929 12
6930 2
6931 6
6932 17
6933 19
6934 12
6935 12
6936 4
6937 4
6938 9
6939 12
6940 12
6941 1
6942 9
6943 6
6944 12
6945 1
6946 4
6947 6
6948 12
6949 8
6950 4
6951 12
6952 6
6953 4
6954 4
6955 1
6956 12
6957 2
6958 13
6959 10
6960 19
6961 22
6962 17
6963 12
6964 18
6965 14
6966 13
6967 5
6968 12
6969 12
6970 6
6971 1
6972 17
6973 9
6974 8
6975 12
6976 13
6977 4
6978 17
6979 12
6980 2
6981 20
6982 3
6983 12
6984 12
6985 17
6986 6
6987 4
6988 3
6989 7
6990 1
6991 1
6992 13
6993 10
6994 2
6995 4
6996 6
6997 4
6998 12
6999 6
7000 10
7001 23
7002 1
7003 15
7004 17
7005 12
7006 23
7007 1
7008 17
7009 10
7010 12
7011 6
7012 2
7013 6
7014 4
7015 2
7016 9
7017 12
7018 6
7019 23
7020 1
7021 9
7022 10
7023 9
7024 12
7025 23
7026 7
7027 12
7028 12
7029 19
7030 4
7031 4
7032 5
7033 12
7034 12
7035 9
7036 12
7037 12
7038 6
7039 2
7040 6
7041 4
7042 4
7043 12
7044 6
7045 17
7046 6
7047 6
7048 5
7049 12
7050 4
7051 17
7052 19
7053 7
7054 9
7055 9
7056 22
7057 1
7058 1
7059 12
7060 9
7061 4
7062 1
7063 9
7064 12
7065 5
7066 4
7067 6
7068 19
7069 12
7070 12
7071 1
7072 12
7073 11
7074 6
7075 3
7076 12
7077 12
7078 6
7079 6
7080 6
7081 16
7082 5
7083 1
7084 9
7085 12
7086 4
7087 6
7088 1
7089 19
7090 6
7091 6
7092 9
7093 9
7094 1
7095 4
7096 2
7097 8
7098 6
7099 12
7100 0
7101 13
7102 25
7103 19
7104 12
7105 9
7106 13
7107 2
7108 19
7109 22
7110 1
7111 1
7112 1
7113 1
7114 17
7115 16
7116 1
7117 12
7118 19
7119 19
7120 9
7121 6
7122 23
7123 13
7124 12
7125 12
7126 12
7127 9
7128 16
7129 12
7130 17
7131 12
7132 7
7133 12
7134 13
7135 12
7136 4
7137 19
7138 9
7139 9
7140 2
7141 13
7142 4
7143 4
7144 12
7145 13
7146 9
7147 13
7148 17
7149 9
7150 2
7151 19
7152 7
7153 4
7154 12
7155 12
7156 12
7157 11
7158 2
7159 9
7160 9
7161 4
7162 1
7163 6
7164 12
7165 13
7166 13
7167 7
7168 19
7169 0
7170 4
7171 3
7172 4
7173 2
7174 19
7175 12
7176 12
7177 1
7178 0
7179 6
7180 1
7181 8
7182 9
7183 4
7184 12
7185 4
7186 17
7187 4
7188 17
7189 17
7190 4
7191 4
7192 1
7193 9
7194 9
7195 17
7196 0
7197 13
7198 9
7199 4
7200 1
7201 17
7202 24
7203 9
7204 9
7205 4
7206 8
7207 4
7208 2
7209 7
7210 5
7211 5
7212 7
7213 12
7214 4
7215 4
7216 12
7217 1
7218 3
7219 12
7220 17
7221 6
7222 9
7223 4
7224 4
7225 12
7226 1
7227 9
7228 19
7229 4
7230 9
7231 12
7232 19
7233 9
7234 4
7235 4
7236 12
7237 9
7238 9
7239 4
7240 17
7241 9
7242 4
7243 1
7244 1
7245 19
7246 17
7247 4
7248 12
7249 1
7250 0
7251 1
7252 12
7253 12
7254 23
7255 8
7256 10
7257 12
7258 6
7259 17
7260 11
7261 9
7262 2
7263 19
7264 17
7265 1
7266 9
7267 4
7268 12
7269 6
7270 13
7271 7
7272 9
7273 17
7274 4
7275 1
7276 6
7277 12
7278 9
7279 19
7280 17
7281 10
7282 6
7283 9
7284 9
7285 9
7286 12
7287 12
7288 1
7289 13
7290 9
7291 17
7292 9
7293 17
7294 12
7295 12
7296 4
7297 17
7298 9
7299 6
7300 12
7301 19
7302 9
7303 12
7304 2
7305 4
7306 13
7307 1
7308 9
7309 9
7310 6
7311 2
7312 13
7313 1
7314 9
7315 17
7316 4
7317 17
7318 9
7319 2
7320 2
7321 9
7322 4
7323 2
7324 12
7325 4
7326 17
7327 17
7328 12
7329 2
7330 13
7331 12
7332 9
7333 13
7334 1
7335 4
7336 12
7337 12
7338 4
7339 17
7340 13
7341 12
7342 17
7343 19
7344 9
7345 12
7346 12
7347 6
7348 19
7349 10
7350 9
7351 17
7352 12
7353 12
7354 13
7355 6
7356 17
7357 12
7358 12
7359 19
7360 2
7361 4
7362 12
7363 5
7364 7
7365 4
7366 4
7367 12
7368 4
7369 6
7370 17
7371 2
7372 12
7373 9
7374 12
7375 4
7376 16
7377 25
7378 17
7379 1
7380 6
7381 11
7382 0
7383 17
7384 19
7385 0
7386 15
7387 13
7388 2
7389 22
7390 6
7391 13
7392 13
7393 12
7394 2
7395 12
7396 9
7397 18
7398 11
7399 9
7400 19
7401 6
7402 2
7403 22
7404 2
7405 2
7406 13
7407 1
7408 16
7409 19
7410 9
7411 13
7412 9
7413 9
7414 13
7415 12
7416 1
7417 12
7418 13
7419 12
7420 7
7421 12
7422 12
7423 4
7424 1
7425 12
7426 1
7427 6
7428 1
7429 9
7430 19
7431 6
7432 4
7433 4
7434 13
7435 10
7436 12
7437 12
7438 12
7439 20
7440 4
7441 17
7442 5
7443 2
7444 9
7445 12
7446 6
7447 9
7448 4
7449 19
7450 9
7451 13
7452 12
7453 18
7454 4
7455 4
7456 10
7457 1
7458 12
7459 13
7460 9
7461 4
7462 9
7463 4
7464 19
7465 3
7466 9
7467 4
7468 12
7469 12
7470 17
7471 4
7472 4
7473 0
7474 4
7475 4
7476 2
7477 12
7478 6
7479 4
7480 4
7481 4
7482 1
7483 19
7484 19
7485 12
7486 9
7487 9
7488 9
7489 23
7490 1
7491 4
7492 9
7493 12
7494 3
7495 1
7496 4
7497 15
7498 1
7499 9
7500 17
7501 2
7502 10
7503 12
7504 4
7505 12
7506 4
7507 6
7508 12
7509 6
7510 4
7511 19
7512 12
7513 9
7514 12
7515 12
7516 4
7517 4
7518 16
7519 4
7520 1
7521 2
7522 6
7523 6
7524 11
7525 6
7526 12
7527 13
7528 9
7529 4
7530 4
7531 12
7532 4
7533 18
7534 12
7535 4
7536 1
7537 6
7538 0
7539 9
7540 17
7541 1
7542 9
7543 17
7544 12
7545 3
7546 13
7547 12
7548 2
7549 4
7550 14
7551 1
7552 12
7553 2
7554 12
7555 17
7556 9
7557 4
7558 2
7559 13
7560 12
7561 3
7562 12
7563 9
7564 9
7565 6
7566 12
7567 17
7568 13
7569 1
7570 11
7571 10
7572 9
7573 2
7574 13
7575 0
7576 1
7577 10
7578 13
7579 17
7580 13
7581 4
7582 13
7583 4
7584 4
7585 4
7586 4
7587 6
7588 2
7589 12
7590 11
7591 12
7592 12
7593 1
7594 10
7595 12
7596 17
7597 6
7598 17
7599 12
7600 17
7601 1
7602 4
7603 17
7604 6
7605 9
7606 19
7607 19
7608 2
7609 1
7610 4
7611 17
7612 1
7613 19
7614 1
7615 1
7616 4
7617 4
7618 25
7619 4
7620 9
7621 9
7622 12
7623 12
7624 0
7625 1
7626 0
7627 4
7628 13
7629 13
7630 12
7631 9
7632 6
7633 6
7634 12
7635 19
7636 12
7637 9
7638 12
7639 9
7640 17
7641 12
7642 13
7643 4
7644 1
7645 19
7646 6
7647 4
7648 12
7649 13
7650 9
7651 17
7652 19
7653 1
7654 1
7655 12
7656 12
7657 19
7658 12
7659 6
7660 4
7661 17
7662 19
7663 1
7664 2
7665 4
7666 1
7667 12
7668 12
7669 9
7670 6
7671 3
7672 12
7673 17
7674 1
7675 18
7676 6
7677 9
7678 1
7679 17
7680 12
7681 6
7682 1
7683 7
7684 4
7685 17
7686 4
7687 9
7688 19
7689 23
7690 4
7691 9
7692 12
7693 3
7694 12
7695 23
7696 4
7697 6
7698 4
7699 4
7700 6
7701 17
7702 9
7703 12
7704 9
7705 4
7706 12
7707 12
7708 13
7709 9
7710 12
7711 1
7712 12
7713 12
7714 4
7715 12
7716 24
7717 19
7718 1
7719 4
7720 4
7721 8
7722 2
7723 1
7724 23
7725 3
7726 6
7727 17
7728 12
7729 17
7730 17
7731 2
7732 12
7733 9
7734 9
7735 4
7736 6
7737 9
7738 17
7739 12
7740 9
7741 6
7742 19
7743 12
7744 12
7745 13
7746 1
7747 4
7748 12
7749 9
7750 12
7751 4
7752 19
7753 6
7754 3
7755 6
7756 9
7757 2
7758 9
7759 12
7760 4
7761 19
7762 4
7763 1
7764 19
7765 12
7766 4
7767 12
7768 6
7769 12
7770 19
7771 4
7772 4
7773 9
7774 7
7775 19
7776 12
7777 12
7778 12
7779 1
7780 12
7781 4
7782 6
7783 12
7784 9
7785 1
7786 6
7787 4
7788 17
7789 9
7790 13
7791 12
7792 3
7793 4
7794 0
7795 12
7796 9
7797 6
7798 16
7799 11
7800 9
7801 6
7802 2
7803 17
7804 16
7805 2
7806 4
7807 9
7808 12
7809 19
7810 12
7811 9
7812 6
7813 17
7814 12
7815 17
7816 4
7817 3
7818 12
7819 4
7820 17
7821 0
7822 4
7823 3
7824 9
7825 22
7826 6
7827 4
7828 2
7829 9
7830 6
7831 19
7832 4
7833 19
7834 2
7835 2
7836 13
7837 4
7838 13
7839 4
7840 12
7841 12
7842 17
7843 18
7844 1
7845 1
7846 8
7847 9
7848 17
7849 3
7850 24
7851 17
7852 6
7853 12
7854 11
7855 6
7856 6
7857 19
7858 4
7859 6
7860 3
7861 17
7862 12
7863 4
7864 6
7865 19
7866 12
7867 17
7868 6
7869 4
7870 6
7871 2
7872 12
7873 19
7874 4
7875 4
7876 9
7877 13
7878 6
7879 6
7880 12
7881 6
7882 4
7883 9
7884 9
7885 4
7886 9
7887 13
7888 1
7889 9
7890 18
7891 6
7892 6
7893 19
7894 6
7895 12
7896 4
7897 12
7898 6
7899 4
7900 1
7901 6
7902 4
7903 6
7904 17
7905 4
7906 3
7907 19
7908 6
7909 17
7910 17
7911 22
7912 17
7913 13
7914 17
7915 12
7916 12
7917 17
7918 9
7919 19
7920 13
7921 19
7922 4
7923 18
7924 12
7925 17
7926 9
7927 9
7928 12
7929 19
7930 17
7931 12
7932 9
7933 12
7934 6
7935 12
7936 6
7937 12
7938 6
7939 4
7940 2
7941 17
7942 1
7943 3
7944 17
7945 1
7946 9
7947 7
7948 9
7949 19
7950 12
7951 6
7952 6
7953 9
7954 1
7955 9
7956 17
7957 3
7958 13
7959 9
7960 3
7961 1
7962 4
7963 12
7964 12
7965 1
7966 13
7967 12
7968 9
7969 12
7970 9
7971 1
7972 9
7973 9
7974 9
7975 4
7976 1
7977 1
7978 12
7979 4
7980 17
7981 12
7982 18
7983 17
7984 4
7985 9
7986 2
7987 9
7988 9
7989 12
7990 3
7991 12
7992 4
7993 2
7994 1
7995 4
7996 4
7997 1
7998 17
7999 23
8000 7
8001 9
8002 17
8003 9
8004 2
8005 6
8006 12
8007 12
8008 13
8009 10
8010 17
8011 17
8012 12
8013 10
8014 19
8015 4
8016 2
8017 17
8018 8
8019 13
8020 9
8021 9
8022 4
8023 22
8024 6
8025 12
8026 12
8027 12
8028 6
8029 12
8030 17
8031 9
8032 17
8033 17
8034 9
8035 6
8036 9
8037 9
8038 6
8039 6
8040 4
8041 17
8042 2
8043 19
8044 17
8045 4
8046 9
8047 1
8048 17
8049 1
8050 3
8051 12
8052 7
8053 17
8054 19
8055 1
8056 19
8057 4
8058 17
8059 4
8060 6
8061 6
8062 4
8063 2
8064 13
8065 2
8066 9
8067 4
8068 4
8069 1
8070 19
8071 9
8072 6
8073 6
8074 12
8075 17
8076 17
8077 7
8078 2
8079 2
8080 6
8081 7
8082 6
8083 17
8084 17
8085 6
8086 4
8087 7
8088 4
8089 1
8090 19
8091 17
8092 9
8093 12
8094 4
8095 6
8096 17
8097 12
8098 16
8099 10
8100 13
8101 4
8102 6
8103 17
8104 6
8105 12
8106 19
8107 2
8108 4
8109 9
8110 4
8111 17
8112 10
8113 12
8114 19
8115 17
8116 2
8117 9
8118 9
8119 4
8120 13
8121 12
8122 2
8123 4
8124 4
8125 6
8126 4
8127 13
8128 2
8129 4
8130 19
8131 17
8132 16
8133 9
8134 19
8135 1
8136 9
8137 17
8138 6
8139 4
8140 12
8141 17
8142 7
8143 17
8144 17
8145 6
8146 17
8147 12
8148 19
8149 9
8150 1
8151 3
8152 4
8153 6
8154 17
8155 17
8156 4
8157 13
8158 12
8159 23
8160 26
8161 9
8162 13
8163 17
8164 12
8165 4
8166 2
8167 17
8168 6
8169 2
8170 4
8171 8
8172 9
8173 1
8174 6
8175 10
8176 6
8177 2
8178 4
8179 1
8180 6
8181 18
8182 4
8183 6
8184 9
8185 9
8186 19
8187 17
8188 4
8189 10
8190 12
8191 9
8192 4
8193 19
8194 0
8195 17
8196 1
8197 4
8198 3
8199 9
8200 6
8201 9
8202 10
8203 18
8204 13
8205 1
8206 19
8207 17
8208 12
8209 2
8210 4
8211 20
8212 13
8213 13
8214 12
8215 9
8216 9
8217 12
8218 17
8219 2
8220 1
8221 12
8222 16
8223 6
8224 13
8225 22
8226 2
8227 10
8228 9
8229 12
8230 1
8231 10
8232 18
8233 10
8234 19
8235 1
8236 2
8237 13
8238 12
8239 17
8240 12
8241 13
8242 6
8243 19
8244 2
8245 23
8246 4
8247 6
8248 13
8249 2
8250 19
8251 13
8252 6
8253 19
8254 19
8255 10
8256 6
8257 7
8258 4
8259 12
8260 9
8261 6
8262 4
8263 6
8264 17
8265 4
8266 12
8267 19
8268 17
8269 6
8270 4
8271 2
8272 2
8273 12
8274 19
8275 17
8276 1
8277 17
8278 12
8279 4
8280 12
8281 9
8282 12
8283 2
8284 17
8285 9
8286 13
8287 13
8288 18
8289 4
8290 19
8291 14
8292 4
8293 11
8294 1
8295 6
8296 20
8297 2
8298 17
8299 17
8300 4
8301 9
8302 9
8303 6
8304 6
8305 13
8306 10
8307 2
8308 12
8309 13
8310 2
8311 17
8312 17
8313 10
8314 3
8315 6
8316 19
8317 6
8318 6
8319 19
8320 17
8321 17
8322 17
8323 17
8324 13
8325 1
8326 12
8327 19
8328 8
8329 0
8330 5
8331 12
8332 17
8333 19
8334 12
8335 6
8336 4
8337 13
8338 9
8339 12
8340 19
8341 19
8342 4
8343 19
8344 4
8345 19
8346 17
8347 12
8348 17
8349 16
8350 4
8351 9
8352 19
8353 2
8354 3
8355 17
8356 9
8357 4
8358 2
8359 1
8360 12
8361 17
8362 4
8363 2
8364 19
8365 10
8366 20
8367 7
8368 6
8369 6
8370 13
8371 12
8372 2
8373 17
8374 9
8375 19
8376 2
8377 4
8378 4
8379 1
8380 23
8381 6
8382 1
8383 7
8384 4
8385 16
8386 19
8387 16
8388 1
8389 6
8390 9
8391 10
8392 19
8393 19
8394 4
8395 13
8396 4
8397 4
8398 12
8399 9
8400 12
8401 18
8402 4
8403 2
8404 4
8405 16
8406 13
8407 9
8408 6
8409 5
8410 4
8411 18
8412 9
8413 12
8414 13
8415 7
8416 19
8417 4
8418 19
8419 12
8420 1
8421 18
8422 6
8423 9
8424 1
8425 0
8426 2
8427 2
8428 17
8429 10
8430 4
8431 9
8432 14
8433 12
8434 16
8435 13
8436 4
8437 6
8438 6
8439 4
8440 6
8441 13
8442 12
8443 17
8444 9
8445 12
8446 9
8447 19
8448 6
8449 3
8450 19
8451 17
8452 19
8453 6
8454 12
8455 18
8456 12
8457 2
8458 12
8459 1
8460 4
8461 13
8462 12
8463 19
8464 12
8465 4
8466 13
8467 13
8468 2
8469 4
8470 4
8471 4
8472 8
8473 9
8474 12
8475 19
8476 19
8477 4
8478 17
8479 13
8480 4
8481 17
8482 2
8483 17
8484 13
8485 12
8486 17
8487 17
8488 9
8489 10
8490 4
8491 12
8492 2
8493 12
8494 4
8495 0
8496 4
8497 1
8498 12
8499 11
8500 6
8501 16
8502 2
8503 3
8504 2
8505 17
8506 4
8507 9
8508 6
8509 1
8510 19
8511 1
8512 2
8513 2
8514 22
8515 6
8516 2
8517 2
8518 2
8519 13
8520 3
8521 17
8522 3
8523 19
8524 19
8525 16
8526 10
8527 9
8528 19
8529 4
8530 17
8531 9
8532 17
8533 2
8534 22
8535 9
8536 17
8537 4
8538 2
8539 12
8540 17
8541 2
8542 4
8543 12
8544 8
8545 6
8546 19
8547 6
8548 9
8549 3
8550 19
8551 6
8552 13
8553 12
8554 2
8555 4
8556 17
8557 9
8558 12
8559 4
8560 13
8561 1
8562 18
8563 16
8564 1
8565 13
8566 6
8567 7
8568 6
8569 6
8570 2
8571 4
8572 18
8573 12
8574 17
8575 2
8576 12
8577 1
8578 5
8579 23
8580 6
8581 0
8582 12
8583 8
8584 4
8585 4
8586 8
8587 11
8588 6
8589 6
8590 2
8591 6
8592 2
8593 6
8594 9
8595 11
8596 2
8597 17
8598 1
8599 19
8600 19
8601 16
8602 9
8603 6
8604 17
8605 12
8606 0
8607 9
8608 2
8609 1
8610 19
8611 13
8612 2
8613 6
8614 9
8615 4
8616 19
8617 1
8618 12
8619 9
8620 2
8621 12
8622 11
8623 4
8624 17
8625 17
8626 9
8627 6
8628 4
8629 17
8630 9
8631 0
8632 13
8633 6
8634 6
8635 1
8636 1
8637 1
8638 1
8639 24
8640 15
8641 15
8642 4
8643 4
8644 9
8645 17
8646 7
8647 17
8648 9
8649 6
8650 17
8651 2
8652 2
8653 5
8654 18
8655 14
8656 2
8657 17
8658 4
8659 2
8660 19
8661 9
8662 4
8663 10
8664 24
8665 4
8666 17
8667 6
8668 4
8669 6
8670 6
8671 3
8672 1
8673 13
8674 16
8675 22
8676 8
8677 20
8678 10
8679 10
8680 17
8681 4
8682 3
8683 9
8684 4
8685 17
8686 10
8687 17
8688 2
8689 6
8690 9
8691 1
8692 12
8693 13
8694 9
8695 13
8696 12
8697 19
8698 23
8699 1
8700 24
8701 6
8702 18
8703 26
8704 19
8705 19
8706 1
8707 13
8708 18
8709 9
8710 7
8711 2
8712 4
8713 17
8714 12
8715 4
8716 13
8717 23
8718 4
8719 6
8720 12
8721 1
8722 4
8723 1
8724 19
8725 4
8726 12
8727 1
8728 4
8729 4
8730 4
8731 19
8732 17
8733 17
8734 19
8735 4
8736 2
8737 1
8738 4
8739 4
8740 19
8741 18
8742 19
8743 12
8744 19
8745 4
8746 9
8747 9
8748 13
8749 12
8750 4
8751 1
8752 9
8753 12
8754 13
8755 1
8756 9
8757 9
8758 9
8759 9
8760 4
8761 17
8762 4
8763 19
8764 17
8765 6
8766 9
8767 6
8768 12
8769 12
8770 9
8771 9
8772 12
8773 12
8774 13
8775 19
8776 6
8777 4
8778 19
8779 9
8780 0
8781 19
8782 19
8783 9
8784 12
8785 9
8786 17
8787 23
8788 19
8789 9
8790 6
8791 3
8792 3
8793 1
8794 17
8795 13
8796 2
8797 4
8798 12
8799 4
8800 4
8801 19
8802 2
8803 14
8804 4
8805 4
8806 6
8807 9
8808 19
8809 4
8810 17
8811 22
8812 4
8813 15
8814 2
8815 1
8816 1
8817 2
8818 4
8819 13
8820 6
8821 12
8822 9
8823 10
8824 4
8825 19
8826 4
8827 17
8828 19
8829 1
8830 9
8831 1
8832 16
8833 4
8834 12
8835 1
8836 4
8837 6
8838 6
8839 19
8840 4
8841 6
8842 7
8843 12
8844 12
8845 4
8846 9
8847 4
8848 4
8849 9
8850 2
8851 16
8852 1
8853 4
8854 9
8855 1
8856 17
8857 9
8858 12
8859 4
8860 4
8861 9
8862 2
8863 9
8864 23
8865 17
8866 17
8867 4
8868 17
8869 4
8870 6
8871 17
8872 1
8873 1
8874 15
8875 12
8876 4
8877 12
8878 12
8879 17
8880 12
8881 12
8882 1
8883 4
8884 9
8885 1
8886 19
8887 17
8888 17
8889 6
8890 9
8891 22
8892 9
8893 8
8894 5
8895 10
8896 4
8897 12
8898 1
8899 12
8900 12
8901 2
8902 12
8903 17
8904 6
8905 12
8906 1
8907 6
8908 0
8909 4
8910 4
8911 12
8912 0
8913 9
8914 1
8915 4
8916 2
8917 12
8918 19
8919 4
8920 12
8921 19
8922 9
8923 6
8924 12
8925 1
8926 17
8927 17
8928 4
8929 2
8930 19
8931 6
8932 12
8933 17
8934 19
8935 13
8936 17
8937 1
8938 12
8939 12
8940 12
8941 4
8942 2
8943 4
8944 12
8945 2
8946 19
8947 12
8948 9
8949 21
8950 13
8951 16
8952 17
8953 7
8954 4
8955 6
8956 7
8957 6
8958 9
8959 13
8960 9
8961 12
8962 19
8963 12
8964 4
8965 19
8966 12
8967 9
8968 17
8969 1
8970 9
8971 1
8972 23
8973 12
8974 13
8975 13
8976 2
8977 9
8978 9
8979 9
8980 4
8981 12
8982 17
8983 19
8984 19
8985 12
8986 23
8987 17
8988 4
8989 4
8990 17
8991 17
8992 12
8993 0
8994 12
8995 1
8996 4
8997 12
8998 7
8999 19
9000 13
9001 0
9002 12
9003 10
9004 13
9005 4
9006 12
9007 12
9008 4
9009 12
9010 1
9011 19
9012 12
9013 12
9014 12
9015 12
9016 12
9017 9
9018 1
9019 6
9020 18
9021 9
9022 4
9023 8
9024 12
9025 18
9026 4
9027 17
9028 19
9029 9
9030 9
9031 12
9032 7
9033 9
9034 12
9035 12
9036 4
9037 9
9038 4
9039 6
9040 12
9041 23
9042 12
9043 4
9044 1
9045 1
9046 12
9047 2
9048 6
9049 9
9050 9
9051 26
9052 9
9053 9
9054 12
9055 12
9056 4
9057 12
9058 19
9059 13
9060 2
9061 10
9062 9
9063 9
9064 17
9065 2
9066 4
9067 12
9068 4
9069 22
9070 12
9071 9
9072 16
9073 4
9074 7
9075 12
9076 6
9077 12
9078 10
9079 4
9080 13
9081 6
9082 4
9083 16
9084 4
9085 1
9086 13
9087 8
9088 13
9089 4
9090 13
9091 17
9092 12
9093 9
9094 1
9095 2
9096 17
9097 12
9098 13
9099 2
9100 2
9101 1
9102 12
9103 2
9104 6
9105 9
9106 11
9107 17
9108 13
9109 4
9110 9
9111 19
9112 1
9113 1
9114 4
9115 17
9116 13
9117 4
9118 19
9119 9
9120 9
9121 2
9122 13
9123 8
9124 4
9125 9
9126 2
9127 8
9128 4
9129 6
9130 9
9131 1
9132 12
9133 2
9134 4
9135 1
9136 6
9137 2
9138 6
9139 6
9140 4
9141 12
9142 4
9143 9
9144 17
9145 12
9146 19
9147 17
9148 9
9149 17
9150 4
9151 1
9152 9
9153 4
9154 12
9155 12
9156 12
9157 17
9158 17
9159 17
9160 12
9161 1
9162 12
9163 6
9164 12
9165 4
9166 4
9167 9
9168 1
9169 12
9170 6
9171 9
9172 4
9173 17
9174 12
9175 1
9176 12
9177 2
9178 12
9179 12
9180 17
9181 4
9182 12
9183 1
9184 12
9185 12
9186 13
9187 17
9188 6
9189 12
9190 6
9191 12
9192 12
9193 25
9194 13
9195 9
9196 12
9197 17
9198 8
9199 17
9200 12
9201 2
9202 1
9203 9
9204 4
9205 19
9206 12
9207 12
9208 10
9209 1
9210 17
9211 1
9212 13
9213 2
9214 6
9215 10
9216 9
9217 7
9218 9
9219 12
9220 4
9221 12
9222 23
9223 13
9224 12
9225 12
9226 11
9227 9
9228 4
9229 17
9230 17
9231 19
9232 13
9233 7
9234 9
9235 12
9236 12
9237 18
9238 4
9239 6
9240 12
9241 9
9242 0
9243 4
9244 6
9245 4
9246 0
9247 12
9248 12
9249 12
9250 12
9251 20
9252 12
9253 13
9254 6
9255 12
9256 13
9257 13
9258 2
9259 9
9260 9
9261 17
9262 17
9263 4
9264 19
9265 4
9266 7
9267 17
9268 13
9269 12
9270 13
9271 2
9272 23
9273 5
9274 6
9275 2
9276 12
9277 13
9278 6
9279 2
9280 12
9281 1
9282 1
9283 12
9284 1
9285 15
9286 9
9287 7
9288 12
9289 12
9290 17
9291 17
9292 19
9293 1
9294 4
9295 13
9296 26
9297 1
9298 4
9299 4
9300 4
9301 2
9302 12
9303 19
9304 19
9305 2
9306 3
9307 0
9308 9
9309 19
9310 6
9311 19
9312 0
9313 1
9314 6
9315 6
9316 9
9317 19
9318 9
9319 9
9320 4
9321 17
9322 17
9323 3
9324 1
9325 22
9326 10
9327 1
9328 4
9329 12
9330 6
9331 9
9332 9
9333 4
9334 19
9335 12
9336 17
9337 4
9338 9
9339 19
9340 4
9341 9
9342 19
9343 4
9344 12
9345 2
9346 13
9347 13
9348 16
9349 13
9350 1
9351 17
9352 4
9353 4
9354 1
9355 12
9356 12
9357 17
9358 13
9359 17
9360 4
9361 6
9362 4
9363 4
9364 12
9365 0
9366 20
9367 4
9368 19
9369 17
9370 19
9371 12
9372 19
9373 4
9374 2
9375 10
9376 9
9377 10
9378 1
9379 2
9380 12
9381 4
9382 4
9383 1
9384 12
9385 4
9386 4
9387 2
9388 12
9389 12
9390 23
9391 4
9392 9
9393 13
9394 13
9395 9
9396 23
9397 4
9398 0
9399 12
9400 12
9401 2
9402 4
9403 13
9404 12
9405 17
9406 4
9407 19
9408 4
9409 12
9410 6
9411 2
9412 4
9413 9
9414 10
9415 1
9416 2
9417 13
9418 12
9419 12
9420 26
9421 13
9422 4
9423 12
9424 10
9425 4
9426 1
9427 5
9428 2
9429 9
9430 17
9431 1
9432 9
9433 6
9434 19
9435 12
9436 9
9437 14
9438 17
9439 7
9440 12
9441 10
9442 19
9443 9
9444 12
9445 9
9446 12
9447 2
9448 12
9449 12
9450 23
9451 18
9452 4
9453 18
9454 23
9455 12
9456 18
9457 4
9458 4
9459 9
9460 3
9461 4
9462 13
9463 8
9464 1
9465 6
9466 12
9467 12
9468 13
9469 24
9470 4
9471 19
9472 13
9473 13
9474 12
9475 12
9476 4
9477 19
9478 12
9479 9
9480 17
9481 6
9482 4
9483 0
9484 13
9485 4
9486 9
9487 16
9488 12
9489 4
9490 19
9491 4
9492 1
9493 25
9494 4
9495 2
9496 17
9497 7
9498 22
9499 4
9500 12
9501 26
9502 1
9503 8
9504 6
9505 1
9506 4
9507 12
9508 12
9509 12
9510 4
9511 12
9512 17
9513 8
9514 10
9515 8
9516 4
9517 12
9518 12
9519 12
9520 4
9521 12
9522 4
9523 9
9524 4
9525 1
9526 17
9527 19
9528 13
9529 12
9530 4
9531 12
9532 1
9533 12
9534 4
9535 13
9536 17
9537 8
9538 6
9539 12
9540 3
9541 21
9542 4
9543 23
9544 4
9545 19
9546 12
9547 12
9548 19
9549 9
9550 12
9551 16
9552 20
9553 17
9554 23
9555 12
9556 4
9557 19
9558 6
9559 4
9560 8
9561 12
9562 19
9563 4
9564 6
9565 19
9566 9
9567 6
9568 4
9569 13
9570 6
9571 12
9572 7
9573 9
9574 9
9575 17
9576 4
9577 9
9578 12
9579 6
9580 6
9581 12
9582 3
9583 19
9584 7
9585 4
9586 22
9587 12
9588 13
9589 19
9590 9
9591 9
9592 0
9593 4
9594 19
9595 9
9596 4
9597 9
9598 2
9599 12
9600 19
9601 7
9602 4
9603 17
9604 13
9605 6
9606 4
9607 26
9608 13
9609 12
9610 19
9611 19
9612 12
9613 9
9614 12
9615 13
9616 12
9617 2
9618 19
9619 6
9620 6
9621 6
9622 6
9623 3
9624 13
9625 12
9626 17
9627 2
9628 11
9629 1
9630 4
9631 6
9632 8
9633 1
9634 2
9635 4
9636 10
9637 10
9638 17
9639 4
9640 23
9641 4
9642 19
9643 12
9644 2
9645 12
9646 17
9647 6
9648 14
9649 1
9650 4
9651 17
9652 9
9653 9
9654 19
9655 13
9656 19
9657 6
9658 10
9659 1
9660 1
9661 13
9662 4
9663 17
9664 12
9665 13
9666 9
9667 13
9668 9
9669 15
9670 9
9671 13
9672 12
9673 12
9674 12
9675 1
9676 23
9677 17
9678 6
9679 4
9680 9
9681 17
9682 12
9683 4
9684 19
9685 12
9686 5
9687 17
9688 6
9689 12
9690 12
9691 9
9692 17
9693 6
9694 6
9695 12
9696 4
9697 23
9698 9
9699 9
9700 23
9701 9
9702 13
9703 13
9704 19
9705 26
9706 12
9707 4
9708 9
9709 17
9710 12
9711 19
9712 9
9713 12
9714 9
9715 12
9716 1
9717 12
9718 3
9719 19
9720 6
9721 16
9722 12
9723 4
9724 13
9725 1
9726 13
9727 2
9728 1
9729 4
9730 17
9731 6
9732 17
9733 9
9734 6
9735 4
9736 19
9737 3
9738 19
9739 17
9740 1
9741 17
9742 6
9743 12
9744 10
9745 17
9746 12
9747 13
9748 4
9749 17
9750 17
9751 2
9752 4
9753 10
9754 17
9755 7
9756 0
9757 12
9758 9
9759 17
9760 6
9761 17
9762 12
9763 17
9764 17
9765 6
9766 3
9767 2
9768 3
9769 2
9770 4
9771 2
9772 9
9773 9
9774 12
9775 12
9776 1
9777 17
9778 9
9779 9
9780 12
9781 17
9782 7
9783 12
9784 4
9785 9
9786 16
9787 6
9788 12
9789 6
9790 9
9791 13
9792 13
9793 17
9794 12
9795 6
9796 4
9797 12
9798 4
9799 12
9800 2
9801 4
9802 3
9803 4
9804 17
9805 17
9806 6
9807 4
9808 12
9809 16
9810 17
9811 17
9812 4
9813 4
9814 12
9815 4
9816 17
9817 5
9818 6
9819 12
9820 1
9821 17
9822 6
9823 3
9824 3
9825 12
9826 4
9827 17
9828 4
9829 9
9830 4
9831 6
9832 13
9833 10
9834 16
9835 4
9836 0
9837 19
9838 9
9839 24
9840 14
9841 9
9842 9
9843 17
9844 0
9845 4
9846 12
9847 12
9848 6
9849 2
9850 19
9851 2
9852 6
9853 19
9854 3
9855 19
9856 9
9857 12
9858 4
9859 4
9860 17
9861 2
9862 3
9863 12
9864 19
9865 19
9866 12
9867 19
9868 17
9869 19
9870 4
9871 20
9872 16
9873 12
9874 17
9875 6
9876 9
9877 14
9878 7
9879 12
9880 17
9881 19
9882 12
9883 9
9884 22
9885 4
9886 2
9887 9
9888 9
9889 17
9890 16
9891 6
9892 12
9893 4
9894 12
9895 12
9896 19
9897 13
9898 8
9899 17
9900 19
9901 6
9902 4
9903 4
9904 12
9905 6
9906 17
9907 9
9908 12
9909 17
9910 6
9911 6
9912 9
9913 8
9914 6
9915 3
9916 12
9917 12
9918 17
9919 4
9920 19
9921 23
9922 4
9923 2
9924 16
9925 19
9926 6
9927 3
9928 16
9929 13
9930 6
9931 6
9932 4
9933 9
9934 12
9935 13
9936 17
9937 2
9938 19
9939 16
9940 4
9941 8
9942 2
9943 19
9944 4
9945 1
9946 6
9947 13
9948 17
9949 1
9950 2
9951 2
9952 19
9953 13
9954 2
9955 18
9956 6
9957 15
9958 7
9959 9
9960 4
9961 2
9962 4
9963 0
9964 12
9965 16
9966 20
9967 13
9968 4
9969 2
9970 9
9971 4
9972 17
9973 2
9974 12
9975 9
9976 9
9977 12
9978 19
9979 17
9980 2
9981 8
9982 9
9983 12
9984 4
9985 12
9986 4
9987 6
9988 17
9989 19
9990 17
9991 12
9992 4
9993 2
9994 12
9995 12
9996 2
9997 13
9998 19
9999 12
