1 0
1449 0
1598 0
2277 0
3680 0
4172 0
4498 0
4789 0
6235 1
6532 2
9692 3
2 4
105 4
181 4
822 5
3834 4
4713 4
5413 4
5572 4
5857 4
9857 6
9979 7
3 8
726 8
1188 8
2120 8
2666 8
2696 8
3531 8
3625 8
5338 9
8104 10
8385 11
4 12
161 13
1447 12
2241 12
3426 12
3470 12
4520 12
4742 12
5451 12
8112 14
8565 15
5 16
1769 17
2434 16
5323 16
5967 16
5975 16
5997 16
6451 16
6515 16
7196 18
9963 19
6 20
462 20
1832 20
1865 20
2354 20
3231 20
3590 20
3610 20
6026 21
7956 22
9053 23
7 24
186 24
4002 24
4721 24
5430 24
5619 24
5766 24
6133 24
7509 25
9447 26
9741 19
8 27
62 27
722 28
2253 29
3213 27
3643 27
4312 27
4427 27
4942 27
5045 27
6076 30
9 31
991 31
1168 31
1225 31
1271 31
2292 31
3552 31
3677 31
4303 32
7435 33
9808 7
10 34
1025 34
1753 34
1795 34
1902 34
2246 34
2450 34
2458 34
7024 35
8160 36
8645 37
11 38
516 39
2171 38
2654 38
3138 38
3823 38
4296 38
4378 40
5539 38
5610 38
9545 41
12 42
1156 43
5484 42
6212 6
6250 42
6313 42
6398 42
6413 42
6416 42
6520 42
9271 44
13 45
461 45
495 45
1200 46
1369 45
1949 45
2344 45
2807 45
3653 45
5434 47
7320 48
14 49
1619 49
1994 49
2405 49
2467 49
2473 50
3146 49
3376 49
4043 49
9753 51
9780 19
15 16
55 16
178 16
180 52
959 16
1716 16
1821 16
2204 16
3137 16
4901 53
9961 54
16 55
478 55
551 55
1806 56
1840 55
2438 55
2757 55
3964 55
4182 55
6941 57
9812 58
17 59
135 60
3030 0
7816 59
7907 59
8432 59
8585 59
8646 59
8715 59
9109 59
9129 59
18 30
415 61
737 30
1465 30
1730 30
3335 30
3606 30
4208 30
4748 30
7531 62
9707 63
19 64
1332 64
1609 64
1756 64
2284 65
2387 64
3077 64
3226 64
4622 64
5681 66
6114 48
20 67
4030 68
5321 67
5347 69
6128 67
6397 70
6563 67
6635 67
6897 67
6942 67
7476 67
21 71
4364 71
4558 71
4763 71
5145 72
5755 71
5920 73
5955 71
6279 71
6442 71
7434 25
22 74
1455 74
2173 74
2853 74
3806 74
3837 75
4263 74
4329 74
4548 74
4946 76
7563 77
23 78
1482 78
2263 78
2308 78
2957 78
3000 78
3306 78
3324 78
4853 43
6145 79
9403 80
24 81
1586 81
3447 81
3778 81
3870 81
3896 81
4333 81
4404 81
8050 82
8207 83
8518 84
25 61
552 61
816 61
846 61
1171 61
3085 61
3468 61
4152 61
5110 85
7430 86
9062 87
26 88
1119 88
2364 88
3169 88
3269 88
4169 88
4256 88
4433 88
6965 89
8172 14
8427 90
27 91
1863 91
2495 91
2732 91
3466 91
3478 91
3578 91
3901 91
6758 92
6918 93
28 94
3005 94
3019 94
3076 95
3259 96
3386 94
3839 94
4065 94
4525 94
4728 94
5982 97
29 98
399 98
420 98
1760 98
2131 99
2368 98
2404 98
2706 98
3556 98
6224 100
8313 101
30 102
34 102
2271 102
3842 102
3930 102
4196 102
4626 103
4757 102
5015 102
5620 101
9066 104
31 105
1377 105
2299 105
2551 105
2662 105
3215 105
3364 105
4718 105
6850 19
8713 106
9630 86
32 62
3360 107
6745 62
7068 108
7247 109
7522 62
7926 62
8047 62
8080 62
8177 62
9886 21
33 110
476 110
1011 110
2041 110
2674 110
3390 110
3419 110
3463 110
6388 111
8986 112
9878 106
2578 102
3142 102
5083 113
7728 114
8026 115
35 116
957 116
1185 116
1439 116
1813 116
1850 116
3733 117
5025 116
5133 116
7120 118
7536 41
36 119
1217 119
1479 119
2707 119
2939 119
3060 119
3089 119
3303 119
3622 119
5414 120
9161 76
37 121
1882 34
6230 121
6609 121
6762 121
6846 121
7172 121
7305 121
7382 121
7737 122
8813 123
38 49
1787 12
2917 49
5781 93
9261 3
39 34
47 34
378 34
881 124
1992 34
2239 120
2398 34
2925 34
3034 34
3638 34
8812 106
40 125
2283 125
2562 125
2611 125
3059 125
3279 125
4055 125
4092 125
4347 43
7813 3
41 126
663 126
2873 126
3741 126
3752 127
4220 126
4453 79
4670 126
4986 126
5144 126
9984 41
42 96
585 96
2104 96
3354 96
3459 96
4808 96
5167 96
6712 128
7438 129
9982 33
43 8
235 8
6134 130
7439 131
8574 132
44 133
190 133
234 133
1066 133
1870 133
1894 133
2264 134
3141 133
3441 133
7592 62
8465 25
45 135
1811 135
2114 135
2525 135
3970 135
4112 135
4203 135
4230 135
5188 136
5561 137
7041 19
46 138
1585 138
1932 138
2414 138
2692 138
2838 138
3062 138
3116 138
4389 139
7814 46
9507 79
232 34
3835 90
8228 140
48 141
230 142
322 141
1081 141
1140 143
1373 141
1929 141
2372 141
2481 141
5923 144
9268 79
49 145
1507 145
2998 145
4332 145
4563 145
4711 145
4751 145
5099 145
7561 146
8441 109
8467 17
50 53
157 53
613 53
1240 53
1441 53
2309 53
5168 53
5236 147
8074 148
9638 149
51 150
63 150
448 150
720 150
1164 150
1420 150
2594 150
4712 150
6054 144
8338 151
8528 152
52 153
1559 153
2268 154
2317 153
5072 153
5154 153
5491 153
6075 153
6222 153
7734 155
8358 156
53 157
365 157
724 157
2083 157
2365 157
2382 157
2411 157
2561 157
8152 158
8984 159
9295 151
54 160
2474 160
4731 160
5119 160
5815 160
5863 160
5942 160
6059 160
8399 148
9026 161
9341 90
685 16
1246 16
2426 162
6139 163
56 164
1562 165
1973 164
3750 164
3803 164
4149 164
4695 164
5219 164
5329 164
6125 166
57 167
418 167
1231 167
1276 167
1835 167
2900 167
3601 167
4072 167
8972 6
9817 79
58 168
587 168
855 168
1063 168
1834 168
2800 168
3225 168
3440 168
6119 169
7431 144
59 170
1191 170
2201 170
2225 170
3572 170
3808 170
4007 170
4287 170
4331 171
6902 172
8097 173
60 174
501 175
3703 176
5275 177
6050 174
6167 174
6582 174
6686 174
6788 174
7098 174
7169 174
61 178
1262 178
3043 178
3979 178
4005 178
4081 178
4202 178
4223 178
9523 179
9926 130
701 27
766 180
1647 27
1982 27
5364 181
8514 182
385 150
3352 150
3636 183
5635 113
64 184
1263 184
1486 184
1593 184
2652 184
2772 184
3684 184
4004 184
4077 173
4080 185
4205 186
65 187
98 103
3967 188
3993 187
4764 187
5655 187
5896 187
5908 187
6180 187
6217 187
7192 179
66 189
285 189
1947 189
1962 189
2445 189
3439 189
3624 189
3857 189
5258 190
7306 161
7750 191
67 192
1307 192
2325 192
2392 192
2703 192
4980 192
5187 192
5189 192
9004 21
9360 193
9457 194
68 195
1399 196
3918 195
4133 195
4581 195
4658 195
5206 195
5494 195
5543 195
7699 183
9167 79
69 197
1075 198
4586 199
6684 197
6997 200
7843 197
8006 197
8135 197
8323 197
8506 197
8599 197
70 201
2950 201
3219 193
3757 202
4271 201
4393 201
4765 201
5046 201
5084 201
5152 201
8587 173
71 203
2153 203
3396 203
3985 204
4307 203
4416 203
4592 75
4701 203
4738 203
4803 203
8414 205
72 124
809 124
1679 124
1758 124
1862 124
2092 206
2419 207
2767 124
3221 124
9254 76
73 208
4057 68
4508 208
6064 208
6384 208
6634 208
6665 208
6807 208
6896 208
7258 111
9783 80
74 209
4297 209
4530 209
4549 209
4566 209
4661 209
5211 209
5772 209
6538 7
7507 76
9603 58
75 210
312 210
1079 210
1378 210
1518 211
2219 210
2300 210
2937 210
3117 210
7381 79
9398 212
76 104
4158 5
5333 151
9330 104
9376 104
9635 194
9696 104
9710 104
9850 104
9900 104
9997 104
77 213
331 213
1770 213
1798 214
3052 213
3987 213
4052 213
4093 213
4221 213
7713 112
8489 215
78 216
1049 216
2614 216
2794 216
3075 216
3220 216
3685 216
4017 216
4507 217
5705 218
7951 41
79 28
431 28
1393 28
2057 28
2312 28
2319 28
2504 28
3292 28
3477 28
9356 106
9438 219
80 130
4645 220
5695 208
8517 194
9377 130
9412 130
9649 130
9691 130
9730 130
9951 130
81 221
419 221
2096 221
2641 221
3246 222
3867 221
4375 221
4961 221
5186 221
5802 223
6420 129
82 13
102 13
377 13
1091 13
1142 13
2008 13
2855 224
3827 13
6671 166
6733 225
83 226
3954 226
4106 227
5474 226
5712 226
5859 226
5899 226
5943 226
6140 226
6172 228
8862 111
84 229
179 229
593 229
1411 229
2146 229
2359 229
2507 229
3287 230
3290 118
3755 229
9743 212
85 231
1697 232
1881 231
2177 231
2675 231
3035 231
3178 231
3227 231
3583 231
4934 159
5264 233
86 65
1786 65
1979 65
2157 65
2726 65
2923 65
3501 65
7741 234
9974 151
87 56
879 235
1555 56
1565 56
2020 56
3040 56
3523 56
3694 56
6072 66
9206 205
88 236
5794 237
6428 236
6806 236
7076 236
7096 238
7329 236
7491 236
7498 236
7708 236
9612 86
89 239
4357 239
4603 239
5259 239
5482 239
5652 239
5798 239
5905 239
7214 44
8683 47
9468 240
90 115
890 241
2603 237
5824 69
7893 115
7932 115
8523 115
8606 115
8861 115
8889 115
8998 115
91 242
1774 243
2965 244
3497 242
4676 242
4818 242
5300 242
5675 242
5693 242
6153 242
7425 182
92 245
1239 245
1359 245
2747 245
2946 245
3111 245
3736 245
4044 245
5559 246
7339 39
7658 118
93 247
1023 248
1488 247
2314 247
2766 249
2823 247
3055 247
3623 247
3805 247
4475 247
4936 250
94 6
4970 251
5286 252
8918 191
9029 6
9655 6
9816 6
9840 6
9873 6
9918 6
9989 6
95 145
709 145
728 145
1281 145
2640 145
3058 145
3310 253
4039 145
4066 145
5221 178
5254 223
96 254
3311 254
4191 254
4413 254
4604 254
4638 254
4981 254
4984 254
6999 57
7653 255
9494 86
97 256
1827 168
2683 257
3236 256
3700 256
4483 256
4979 256
5277 256
5281 256
5295 256
6627 137
3228 103
3799 103
4496 103
4787 258
4894 103
5047 103
5509 103
9830 51
99 165
253 165
1182 165
1857 165
1957 165
2763 165
3044 165
3222 165
6061 9
6278 54
6391 259
100 195
1222 195
1524 195
2390 195
2661 195
3944 195
3980 195
4784 195
5153 85
7665 51
8592 90
101 186
1491 186
2714 186
3347 186
3589 186
3807 186
3951 186
8677 260
8783 7
9874 151
1206 13
3256 13
4409 261
4442 243
103 262
1663 262
1759 262
2385 50
2830 262
3140 263
3193 262
3265 262
3809 262
8274 84
9079 191
104 260
5387 264
6857 260
7571 260
7794 260
8474 260
8505 260
8758 260
8836 260
9965 44
843 4
956 4
2711 241
6266 265
8024 266
106 201
137 267
357 201
5844 97
9860 44
107 268
2118 119
3371 268
6576 268
6796 268
7114 268
7395 268
7405 268
7464 268
8440 79
9644 58
108 60
333 60
1074 60
1746 60
2885 60
3343 60
3460 60
5694 269
8554 270
9537 84
109 271
546 271
2624 271
3760 271
3787 271
4240 271
4542 271
4616 271
5685 90
5779 202
110 272
747 272
1525 272
1652 272
2585 272
3872 272
4643 272
5156 272
6262 273
111 44
6565 111
6620 274
8042 44
8428 44
9609 44
9622 193
9769 44
9807 44
9846 44
9988 44
112 275
6717 275
8068 275
8198 275
8410 275
8453 275
8810 275
8881 275
9039 130
9282 87
113 133
1390 133
1424 276
1700 235
1721 133
2286 133
2310 133
2470 133
2938 133
3073 133
7200 277
114 278
935 278
964 278
1528 278
2111 278
2212 278
2224 278
2559 278
7207 41
7943 279
9505 151
115 280
175 280
1590 280
2031 280
2667 280
3455 280
4875 243
5082 280
5108 280
6874 281
9661 156
116 282
557 282
2061 282
2147 282
2536 282
3345 282
3452 282
3457 282
3973 282
9774 86
9804 151
117 283
528 283
923 283
1028 283
2011 283
2719 283
2782 283
3699 283
6961 266
7367 106
9758 90
118 51
3021 284
3167 213
8660 51
9114 51
9211 51
9228 51
9541 51
9583 240
9823 51
9932 51
119 199
405 199
1172 199
1944 199
2174 199
3505 199
4528 199
5396 80
120 169
4174 73
4373 169
4414 208
5029 285
5665 169
5865 169
6005 169
6260 169
121 286
438 286
665 286
2229 287
2393 286
2790 286
3126 233
3453 286
3667 286
4776 286
8798 288
122 244
727 244
2112 244
2475 244
3892 244
4395 95
4628 244
4642 244
4696 244
5853 289
9255 281
123 290
2346 290
2686 290
3086 290
3300 290
3614 290
3795 290
3956 290
8756 250
8863 149
9521 51
124 291
924 291
1244 291
1872 291
2819 291
2968 291
3082 291
3688 291
5420 197
7053 219
9574 58
125 262
3129 262
4556 262
4640 262
4758 262
5361 262
6070 262
6127 262
7225 292
8287 293
9272 281
126 294
141 295
1514 294
3473 294
3995 294
4054 294
5014 294
5054 294
5122 294
8807 296
9375 297
127 298
1354 298
1808 298
2867 298
2949 298
3394 156
3587 298
3596 298
3696 298
4356 2
6618 299
128 300
6524 183
7649 300
7685 300
8285 300
8392 300
8694 300
8724 300
8760 300
8871 301
129 302
2527 302
3207 302
3856 303
4443 304
4893 302
5307 302
5391 302
5607 302
5690 302
9879 179
130 100
2490 100
2883 190
3948 100
4859 100
5458 100
5524 100
5811 100
7864 224
9416 21
131 305
1996 305
2074 305
2119 305
3405 305
3543 305
3942 305
4247 305
8009 131
8769 306
132 307
7642 307
7662 307
7836 307
7898 307
7982 307
8027 307
8045 307
8700 173
9326 41
133 40
566 40
951 40
1676 40
2489 40
3682 40
3897 40
4553 40
7443 128
9556 293
134 308
2394 249
5633 144
5849 308
5971 308
6932 308
7022 308
7363 308
7593 308
7630 308
9392 301
2557 309
2645 60
2878 60
4472 212
136 149
6561 149
7678 149
9421 149
9611 149
9829 149
9865 149
9883 149
284 267
1351 267
2440 267
3633 267
3884 267
4431 267
4554 267
8343 63
8483 310
138 311
276 311
1547 311
3289 311
3650 311
5041 311
5065 311
5174 114
5761 311
9534 296
9775 84
139 108
6892 108
7012 131
7993 108
8008 108
8147 108
8161 108
8317 158
8322 101
8396 108
8670 108
140 11
1684 11
2051 11
5117 11
8761 15
9467 11
9708 11
9719 11
9786 11
2230 295
3355 295
3832 295
4435 295
4649 192
4886 295
5563 295
5808 295
142 122
4069 312
6292 148
6970 237
7269 122
8077 122
8196 122
8252 122
8263 122
8378 122
143 5
577 5
1952 313
2471 5
2558 5
3575 5
3762 5
3869 5
3963 5
6490 179
144 60
374 60
734 60
1042 60
1053 60
1543 60
3166 60
3595 60
6066 238
6229 132
9790 151
145 314
3594 315
4928 314
5918 316
6253 314
7088 314
7273 314
7599 314
7824 314
7925 314
9251 270
146 278
1561 278
1837 278
2322 278
2513 278
2618 278
3018 278
3544 278
3745 316
3782 268
4015 317
147 318
3091 318
4124 318
4862 23
5129 318
5212 318
5371 318
5584 318
6130 318
7759 108
9731 248
148 174
2209 54
6560 174
8839 182
8927 83
149 20
3090 319
3851 20
4584 20
4794 20
5231 20
5367 20
5624 20
5840 20
6963 277
9639 250
150 320
3301 320
6029 320
6189 225
6431 320
6591 320
6597 320
6945 320
7074 320
9554 90
151 80
5702 80
7663 6
8903 80
8971 151
9414 80
9448 80
9525 80
9835 80
9905 80
152 166
3632 321
6175 166
6444 166
6776 166
7372 166
7403 166
9158 33
153 322
1043 322
1073 322
2255 322
2741 204
2810 322
2984 322
3200 322
3238 323
3408 322
3630 324
154 132
5358 325
7097 115
7873 132
8393 132
8850 132
8930 132
9174 132
9386 132
9439 132
155 77
3784 118
7783 77
7834 205
7846 77
8301 77
8525 77
8605 77
8668 77
8727 77
9935 54
156 181
2851 175
4692 190
7254 181
7504 181
7633 181
7805 181
7832 181
7936 181
8876 90
602 53
3484 53
6321 225
7064 279
9491 219
158 263
535 263
1496 263
1958 263
2542 326
2615 263
2927 153
3115 263
4261 263
9528 250
159 283
716 269
2602 283
2610 283
2649 283
3045 283
3108 283
3316 283
3410 283
5175 327
6270 80
160 323
628 323
1926 323
2583 323
2820 323
2877 323
2964 323
3294 323
8449 193
9717 151
2334 13
6866 328
7160 277
162 175
2014 175
2811 175
4388 175
4588 175
5570 175
5946 175
7758 329
7777 83
163 74
1675 74
1966 330
9746 11
164 331
3450 331
4330 331
4967 331
5299 331
5514 331
5590 331
5686 331
9572 193
9615 41
9712 44
165 328
6346 328
6816 332
7645 328
7687 328
8182 328
8223 328
8288 328
8421 14
166 333
172 333
805 333
2203 333
2632 333
2708 333
3491 333
4754 333
6300 334
8703 248
167 335
686 335
1829 335
2091 335
2627 335
3177 335
3283 335
3690 335
6110 253
7567 155
168 10
7396 10
7917 10
7923 10
8037 10
8059 10
8174 10
8178 58
9633 148
169 134
323 134
631 134
1112 336
1147 134
1718 134
2323 134
2360 134
3599 134
8650 48
9791 63
170 337
2079 337
2355 337
2934 337
3147 337
3149 337
4120 337
4204 337
8376 106
9933 58
171 338
1680 338
2076 338
2646 338
2701 338
3039 338
3313 338
4724 338
9010 80
812 333
1611 333
4535 339
7129 340
9123 128
173 231
2296 231
2639 231
3036 231
3152 231
4363 231
4593 231
5075 231
9604 90
9759 130
174 341
698 341
1247 341
1419 341
1467 341
1551 341
2842 341
2943 342
3559 341
3659 341
8004 343
791 280
2612 280
3323 344
4380 345
8423 19
176 344
825 344
2164 344
3098 344
3520 344
4635 344
5009 344
8071 346
9475 194
9902 87
177 283
1911 283
6265 275
9135 329
1196 29
2370 260
9400 25
740 229
1149 229
8349 246
1237 52
1346 52
1981 52
2425 52
2637 52
4059 52
5460 52
6468 347
8567 191
1888 4
1999 4
3194 348
3878 259
182 136
6589 136
6619 136
6750 136
6880 136
7061 136
7132 136
7327 136
8269 21
8571 21
183 125
1209 125
2381 86
4246 125
9104 25
184 349
3840 349
4254 349
4399 349
5095 349
5171 349
5503 349
5783 349
5887 349
7377 350
8985 306
185 351
1436 351
2974 351
3514 352
3526 351
4011 351
4135 351
4252 351
4352 351
7118 35
1892 24
6746 230
7986 215
187 353
460 353
666 353
1754 353
1927 353
1928 353
1942 353
3416 139
4288 353
4386 353
8663 33
188 354
349 354
806 354
1298 354
1350 354
1830 354
1974 354
3113 354
6285 155
6465 90
9238 106
189 355
2423 356
4051 355
4199 355
4366 355
4585 355
4933 355
5016 355
5035 355
8266 161
9397 76
245 54
662 133
1205 133
8411 161
191 291
598 291
1229 291
1386 291
2178 291
2187 291
3208 291
4212 291
7180 123
9629 54
9682 21
192 357
626 357
1323 358
2199 357
3161 357
3456 357
3759 357
4810 155
4846 357
5127 357
9617 51
193 359
1890 359
3777 359
4110 359
4250 359
4284 359
4741 359
4793 359
4929 360
5150 61
8430 297
194 348
4085 348
4552 348
5022 348
5395 348
5782 348
5909 348
5949 137
6202 348
6424 51
195 317
651 361
751 317
1047 171
2168 317
3001 317
4018 317
4159 317
4195 317
4664 317
196 362
470 363
1367 362
1736 362
3434 362
3727 362
3791 362
4339 362
4415 76
7566 62
8128 173
197 258
1879 258
1930 258
2784 258
2929 258
4006 258
4042 355
4990 364
5417 258
9084 343
198 352
1096 352
2529 128
2935 352
4137 352
4681 352
4863 352
5055 352
7276 202
199 365
520 365
571 365
1794 365
2293 365
2522 365
2749 365
3662 365
8829 296
8979 347
200 272
866 272
1917 272
7935 57
9575 63
201 190
1802 190
3438 190
4617 190
5191 190
5234 190
5578 190
8744 293
8913 130
9215 132
202 138
1124 193
5067 363
6169 217
203 366
1784 366
2243 366
2413 366
2613 366
2892 366
3190 366
3427 366
6489 90
8655 155
9374 23
204 231
605 231
2093 367
6247 368
205 182
486 369
810 323
7506 182
8124 182
8598 182
9015 182
9042 182
9046 182
206 241
379 241
1318 241
1362 98
1674 241
2113 241
2369 241
5707 79
9958 41
207 261
672 370
1859 261
2234 261
3479 261
3675 261
4843 261
5024 261
8446 51
8938 106
208 371
963 371
1851 371
1993 371
3187 315
3529 371
3717 371
3781 371
3847 371
8542 158
9614 41
209 12
1249 12
1511 341
2534 20
2663 117
210 291
2035 291
6221 372
9275 373
9488 248
211 214
1752 214
2698 214
2909 214
5066 214
5112 374
5131 214
5253 214
5558 214
212 357
851 357
1102 357
4463 375
6186 200
213 376
3998 376
4429 376
4691 376
5230 376
5571 376
5777 376
6048 376
6108 377
7204 137
8384 378
214 50
445 165
1067 50
1683 50
1931 50
2137 50
2305 50
3281 50
9827 90
215 379
543 379
3716 379
3730 379
3986 379
4391 379
4470 379
4686 379
5891 10
8304 158
8853 212
216 380
1364 297
1515 380
1614 380
1644 380
2335 380
3003 380
3307 380
3462 380
9122 293
217 381
988 381
1403 381
1814 381
4310 381
4482 381
4523 381
4780 382
5406 381
9568 205
218 50
1383 50
8529 86
219 383
1071 383
1451 383
2926 383
3042 383
3709 383
4128 383
4239 383
7184 384
9431 21
220 19
7937 114
8017 347
8148 334
8662 19
9734 19
9736 19
9903 19
9948 19
221 385
1257 385
4313 385
4365 385
4488 385
4580 385
5000 385
5148 385
6626 259
7739 310
7994 130
222 374
748 386
6028 374
6157 374
6856 374
7174 374
7175 374
7344 374
7600 374
9159 255
223 387
1416 387
3511 387
4342 387
4601 387
4924 387
5116 388
5184 387
5199 387
224 389
2176 389
2942 389
3407 389
4121 389
4512 390
4541 389
4543 389
4675 389
9296 148
225 200
4536 227
6595 200
7015 200
7469 200
7612 200
7782 200
8087 200
9501 148
9716 90
226 95
3836 95
3900 95
4935 95
5285 19
5409 95
5573 95
5696 391
8826 250
227 392
4659 392
4844 392
4966 392
5222 392
5735 392
5813 392
6078 392
7208 35
7562 343
228 227
2276 227
2808 227
3101 227
3490 227
3627 227
7627 289
8989 51
229 85
4134 68
6098 85
6316 85
6338 85
6358 85
6375 85
6382 85
6393 85
6423 393
6720 308
1057 142
1605 142
2999 142
3728 142
4975 142
5115 142
5141 142
9093 129
9201 148
231 159
1956 379
4685 316
7608 159
8022 373
8028 159
8436 159
8659 159
8779 159
9040 159
4401 67
6394 84
9479 343
233 394
270 394
1780 395
2115 394
2526 394
3436 394
3961 394
4656 394
4665 394
7591 161
3099 315
9973 6
7341 396
8141 248
8990 240
236 274
4912 274
6018 274
6158 274
6636 274
6707 274
6760 274
8119 397
8753 63
9895 149
237 141
260 72
406 141
487 141
1184 141
1959 141
3011 141
3357 141
3433 141
7275 202
238 300
3702 225
6219 6
7854 253
8031 300
239 348
3558 348
4175 348
5531 262
5608 66
5974 398
240 201
893 399
3272 176
6697 400
241 302
977 302
1456 390
4624 336
6894 47
242 401
5893 401
7442 181
7617 90
7647 401
8309 401
8350 401
8412 401
8437 401
8751 401
243 145
2655 145
6943 62
6958 396
8562 179
244 269
5034 325
5527 269
5639 269
6414 269
6649 269
6975 7
7283 269
7429 269
7528 269
8657 54
8762 106
8937 54
8954 54
9443 54
9462 54
9763 54
9854 54
246 402
1129 402
1701 402
2679 148
2694 402
3382 402
3391 402
4406 402
4436 402
7916 270
9845 151
247 403
440 403
1915 403
2267 403
3811 403
4796 403
4926 403
5111 403
5751 217
248 404
1429 404
2047 55
5799 404
5966 404
6621 404
6903 404
7116 404
7523 404
7779 405
9888 54
249 406
514 406
750 406
1775 406
2010 406
3084 406
3631 406
4213 406
5901 377
7922 80
9344 54
250 345
1504 345
1934 345
3580 345
4411 345
4545 345
4841 345
5060 345
5344 127
9124 246
251 407
413 407
1175 407
1310 407
2331 408
2748 407
3393 407
3639 407
3990 407
5623 409
9779 33
252 5
7095 77
8486 146
2134 165
7620 3
8146 19
9904 179
254 410
5939 410
5972 410
6427 410
6602 410
6607 410
6757 410
6793 410
6911 90
8945 411
9908 21
255 412
925 229
1174 412
1397 412
1512 412
1876 412
2704 309
4160 412
4167 412
4168 412
6660 83
256 157
1183 157
1329 157
1426 157
2260 157
3123 157
3333 157
3819 157
9667 384
257 271
1856 315
3088 271
3367 271
8010 319
8593 11
9715 19
258 413
2417 414
2680 413
2997 413
3247 413
3401 413
3591 413
4266 413
4376 413
259 282
648 282
1628 282
1743 282
2002 282
2687 282
2803 282
2828 282
4361 171
6303 415
6466 416
2303 72
2508 417
2673 72
2844 72
4323 72
4755 72
4858 72
261 418
823 418
1371 418
2027 418
2207 418
2383 418
3181 418
3486 418
4026 419
5933 398
7999 420
262 165
1099 165
1392 165
1408 278
1556 165
1916 165
3602 165
6953 48
7410 421
263 119
645 119
778 119
1790 119
2236 119
2358 119
5518 422
9237 86
264 423
534 423
2589 14
4155 423
4484 423
4577 423
4587 423
4916 423
5087 423
6855 310
9371 112
265 101
6407 275
7830 101
8021 101
8334 101
8569 36
8586 101
8710 101
9110 101
266 262
850 262
1522 262
4883 424
7985 76
9291 293
267 282
6731 36
7450 44
9436 86
268 385
873 385
7284 255
9637 3
269 279
6835 279
7035 234
7248 279
7279 279
7368 279
7370 279
7710 279
7748 21
9318 343
989 394
2038 394
2272 394
5566 425
7730 84
271 251
1595 251
6206 251
6827 251
7071 251
7637 251
7651 251
7797 251
9245 373
9969 19
272 426
398 426
565 426
570 251
1347 426
2342 426
3122 426
3691 426
4062 426
6912 101
7123 39
273 113
5359 113
5758 113
5838 113
6124 113
6276 113
6703 113
9981 90
274 382
1258 382
2556 382
3224 298
4184 382
4289 382
5003 382
5158 382
9601 296
9653 7
275 323
2194 90
6559 62
2106 190
2948 311
4770 311
6082 172
277 354
335 354
630 354
1573 354
1672 382
2316 354
2849 354
3100 354
3413 354
6509 204
9008 310
278 284
2324 284
2731 284
2955 427
3861 284
3943 284
4090 284
4397 284
4490 252
9977 11
279 195
532 195
1905 195
3327 195
280 428
3286 371
3418 428
3430 428
4368 428
4510 428
4633 428
4663 428
4930 429
5416 428
9322 248
281 32
537 32
599 32
680 32
1579 32
2753 32
2992 32
8498 289
282 134
538 134
617 134
1198 134
2100 134
2669 134
2880 134
3541 329
6914 83
7643 23
283 309
813 309
1273 309
2095 309
2200 309
2455 309
2846 108
3637 309
5377 430
9842 151
1588 267
1922 267
9721 51
1033 189
2136 116
2362 189
2802 189
286 222
2154 222
2361 222
2945 222
3547 222
3845 222
4674 222
9383 240
9922 293
287 3
1727 263
7171 106
9166 89
9319 3
9348 3
9550 3
9678 3
9681 3
288 323
758 323
1187 323
1548 323
1799 323
2161 323
2982 323
3772 26
4931 220
8806 86
289 319
5577 206
5869 57
7106 319
7784 319
7789 319
7850 319
7980 319
8102 319
290 36
1666 36
2550 431
6053 392
7195 3
8195 36
8545 36
8584 36
8676 36
8841 36
291 407
2004 407
2541 322
292 432
3936 432
4234 432
4733 432
4860 432
4997 432
5109 432
5165 432
7860 106
7973 393
293 54
3017 433
3689 400
6474 54
7540 54
8299 54
8627 173
9224 54
9552 54
9697 54
294 149
654 434
8873 149
9373 149
9662 149
9711 194
9898 149
295 435
5238 435
5687 435
5737 436
5753 435
5784 435
5804 435
5806 435
8320 58
296 154
814 154
1918 154
3097 154
3399 154
3899 154
4019 154
4314 154
8886 19
9323 373
297 437
1254 437
3678 358
4944 437
4995 437
5202 437
5594 437
6135 437
6220 437
6400 437
9299 11
298 360
1314 438
4165 360
4671 360
4687 360
5464 360
5547 360
5904 360
8732 111
9651 86
299 10
704 28
1842 407
7261 10
7277 10
7573 10
7634 10
8371 82
300 207
412 207
607 207
746 207
2461 207
3027 207
3660 207
5335 202
5407 97
8403 87
301 341
755 341
1326 341
1886 341
2799 341
2814 341
9083 246
302 411
5789 411
6663 411
7597 35
7609 411
7778 9
8443 411
8639 411
8674 411
8687 161
303 370
314 370
2155 370
2242 370
2378 370
2591 370
2834 370
3485 370
4089 439
5765 421
304 124
1055 124
1558 124
1893 124
2890 124
2899 124
3066 124
3096 373
3481 124
7595 224
305 232
505 232
1038 232
1358 232
2221 232
2528 232
3548 232
4034 232
6159 19
7657 46
306 322
553 322
860 322
970 322
1282 322
2693 322
3244 322
3585 322
6742 59
8289 151
307 209
1277 209
1535 209
6988 112
7047 253
8038 397
308 440
838 440
1576 440
2336 218
2429 440
2678 440
3927 440
4476 440
4722 440
4913 441
9513 41
309 431
1699 431
2121 431
2987 431
3214 431
3359 431
3645 431
3658 431
7240 80
8891 58
310 184
1468 184
3339 75
3566 184
7807 140
9304 89
311 210
526 210
3155 210
6197 161
8915 296
9652 58
3708 61
7242 172
313 75
1560 75
3006 75
4334 75
4629 75
5220 75
7324 23
9764 6
9028 301
9209 130
9579 23
315 442
326 162
646 442
1266 442
1950 442
2081 443
3065 442
3344 442
3554 442
4219 442
316 419
513 419
1789 419
2013 419
2788 419
3480 419
3482 444
3521 419
5643 108
6364 230
317 249
642 249
1193 365
1317 249
1498 249
2046 249
2702 249
3567 249
4185 214
7310 10
318 440
2733 440
8328 173
319 406
2600 406
3600 406
8293 156
9551 90
320 292
1340 319
4132 313
5868 292
7013 292
7093 292
7420 292
7529 292
7532 87
7743 292
321 149
6593 289
8549 148
9866 193
9975 149
950 141
1450 141
2345 141
9337 378
967 134
1418 134
3934 445
6181 43
9577 106
324 50
661 50
1410 50
2231 50
2395 50
2420 50
2770 50
3431 380
9573 79
325 369
2740 369
3860 369
4139 369
4614 369
4827 369
4962 369
5207 369
6971 17
9329 25
3013 162
4270 106
4280 162
4746 162
5775 162
5945 162
6390 162
6459 162
7640 109
327 2
2023 2
3263 2
5398 2
5995 2
6088 2
6785 2
7062 6
8142 108
9516 54
328 387
4267 387
5180 387
5388 446
8200 41
8375 191
329 336
359 336
872 336
1219 336
2487 336
3925 336
6237 159
6786 447
7073 297
330 448
4146 448
4795 448
5090 448
5311 448
5349 448
5522 448
5582 448
9343 343
6132 202
6432 80
8925 347
332 318
393 318
638 66
4466 318
5042 318
8398 89
2352 368
4505 410
9349 112
334 388
1150 370
3616 388
4524 388
4533 388
5487 388
5657 388
5769 388
5875 388
6639 159
7133 449
569 354
1977 354
2496 276
6512 151
7696 25
336 180
423 180
1252 180
2006 180
2163 180
2301 180
2905 327
3185 180
3796 180
4720 81
7969 48
337 213
2288 213
2590 390
8874 224
338 151
5160 329
5428 151
8083 151
8121 86
8922 373
9020 151
9131 151
9177 151
9227 151
9332 151
339 450
395 269
5244 450
5961 450
5968 450
6033 450
6062 450
6102 41
6232 450
6438 450
8063 346
340 214
1485 214
1866 214
1874 214
2162 214
3078 451
3374 214
9023 51
341 341
1627 281
342 452
5447 452
5534 452
6666 453
7070 260
7072 452
7084 452
7135 452
7500 452
7659 452
9051 148
343 454
2290 454
2958 454
5354 454
5448 454
5588 454
5828 454
6195 454
7161 279
8737 148
344 162
1529 178
2144 289
5094 162
5292 162
345 24
1374 24
3508 106
4162 24
9794 296
346 25
5058 455
9214 25
9303 25
9444 25
9460 25
9480 25
9500 25
9559 25
347 414
1108 414
1242 414
1289 414
1330 414
1458 414
3028 21
3557 414
4217 456
6057 197
348 423
608 423
1295 423
2349 438
451 354
803 354
7931 131
350 457
1078 457
4654 173
4847 457
5079 457
5507 457
5771 457
6107 457
6314 457
7040 57
7551 123
351 458
641 458
865 458
902 458
1939 458
2399 458
2906 458
3812 458
7519 299
9967 293
352 198
432 198
2223 198
3553 198
3908 198
4771 198
4821 198
5104 198
5239 109
6779 459
8750 47
353 298
910 298
1214 298
1762 298
3704 298
4371 298
4492 298
4526 298
6657 293
354 45
370 355
8245 149
355 263
769 460
1027 263
9044 343
356 84
5480 101
8433 84
9061 84
9532 194
9660 84
9924 106
9934 84
9999 84
6603 109
7905 260
9404 19
358 313
3817 313
3909 313
4274 313
4396 313
4527 313
4621 313
5357 313
6890 115
7684 255
1069 336
1773 336
360 461
4839 461
4998 461
5276 461
5397 461
5596 461
5672 461
5913 461
9147 240
9901 76
361 113
6256 113
6301 179
8993 306
9864 79
362 141
2191 141
5331 462
9310 84
9621 3
363 380
582 380
1523 380
1659 380
2247 380
3049 380
3705 380
4225 463
6185 193
364 362
539 362
760 362
1315 362
7441 37
7859 296
9050 373
1724 157
5858 182
7539 156
9595 296
366 330
472 330
1657 330
1668 330
3403 330
3605 330
3621 118
4571 330
9750 6
9784 255
367 124
3886 124
7300 411
7524 130
368 252
3285 252
3414 252
4667 252
5134 252
5161 252
5540 252
5821 464
6339 399
369 385
2978 385
7265 44
371 465
1891 465
2067 465
2190 465
2195 465
2625 465
3133 465
3317 465
3326 465
9155 79
372 424
1781 424
3444 424
4412 424
4578 424
4589 424
4899 424
8057 343
8842 21
9239 80
373 294
1554 294
4491 294
5313 294
7150 395
8726 44
9288 250
1052 60
2128 60
4485 37
5879 7
7318 224
375 466
1337 194
3838 466
4024 466
4715 466
4743 441
5027 466
5062 466
5192 466
5228 466
6761 421
376 28
885 28
3217 42
4379 393
5472 398
8602 149
9540 51
5274 42
5384 17
5985 193
2097 241
2759 241
6514 285
7165 225
9257 152
380 467
490 467
531 467
2353 467
2439 467
2795 467
3023 467
3275 467
6992 112
8556 173
381 262
2228 262
3753 262
4993 99
9199 250
9891 33
382 123
6921 123
7309 123
7601 123
8056 123
8075 123
8487 106
8929 123
383 183
6838 183
6865 183
6888 183
7028 183
7100 183
7884 183
9434 296
384 403
3199 403
4130 403
4734 304
5185 436
9871 86
1568 150
8111 270
386 292
1428 229
3534 425
3800 408
4021 292
7151 292
387 299
1953 299
6699 234
7311 299
7559 299
7792 131
7867 299
7892 299
7902 299
388 207
990 207
1110 207
1279 207
2424 466
2512 207
2595 207
2764 207
3810 207
9994 86
389 447
3770 447
6025 447
6121 224
6296 447
6324 447
6361 447
7177 447
390 176
3366 176
3801 176
4992 176
5093 176
5483 176
9063 130
391 408
632 408
856 408
1715 408
2460 408
3112 408
5478 99
7844 449
392 61
3794 61
3871 61
4761 61
5071 61
5461 356
5520 468
7478 238
2579 318
6449 329
394 469
7550 469
7700 469
7857 469
7900 469
7963 373
8062 11
8231 469
8905 469
8949 469
4306 460
4937 269
6738 269
6819 269
6979 269
8503 58
396 164
2563 164
3197 164
3209 259
4703 149
7197 66
397 211
2491 211
2493 214
2865 211
3866 211
4216 211
4298 211
4304 211
7790 384
414 426
690 426
5602 215
7189 86
745 98
1651 411
1897 429
9799 86
400 232
586 232
2269 232
2389 232
2570 232
2659 232
3110 232
3563 232
6858 325
6884 332
401 65
1077 65
1398 192
402 407
783 407
1024 163
1035 407
2769 407
2961 407
2995 407
3349 407
4348 158
403 470
1085 470
1545 470
2297 470
3406 470
3588 470
3657 455
3850 470
4421 470
404 471
2227 471
2397 471
3946 471
4450 471
4467 471
4473 471
4572 471
4877 1
8711 26
2244 199
2500 199
3383 199
6580 384
6614 92
2791 455
5345 106
407 27
6698 264
9169 26
408 428
1495 428
1642 428
2218 428
3174 428
3203 428
3962 428
4700 428
5921 447
409 472
1046 472
1388 472
1607 472
2347 472
3131 472
4494 472
4646 472
9645 250
410 264
4880 473
5044 264
6659 264
6828 264
6957 264
7083 264
8079 306
411 207
644 207
5137 356
6960 129
7666 15
752 191
2259 207
4978 464
591 38
5198 265
9547 156
2517 61
3935 61
9361 378
9641 334
416 160
2648 160
4547 474
7944 21
417 475
3318 181
6112 475
6334 475
6411 475
6543 475
6630 475
6775 475
9714 33
9962 334
2815 167
3173 167
3746 474
9749 194
3322 221
4569 221
6455 152
8553 182
421 342
1533 348
2087 342
2524 342
4192 342
4518 342
4782 342
5135 342
8696 182
422 439
509 207
1336 439
2188 439
2222 439
2499 306
4529 439
4767 439
4902 439
6275 90
1541 249
1694 180
2198 180
6787 179
6799 106
424 351
955 351
958 476
1664 351
3164 351
9754 44
425 99
4802 374
4838 99
5495 99
5585 99
5731 99
5803 99
426 414
450 414
3145 243
5302 391
6823 217
427 321
3991 321
4359 321
4367 321
4550 321
5290 321
5560 321
6516 230
7763 79
7823 395
428 284
3429 243
3532 284
5048 405
7950 288
429 311
2546 477
3945 311
7034 289
430 73
4049 73
5452 73
5535 478
5757 73
6012 73
6137 73
6508 73
6989 37
9437 3
1501 198
4305 198
9822 86
433 401
7105 401
7722 401
8213 401
434 249
1493 249
1824 249
1986 200
2543 249
2709 249
3061 249
6467 405
6617 15
435 235
596 235
1044 235
1357 235
1731 235
2140 235
2893 235
3293 377
3830 235
8046 139
9980 179
436 14
6481 137
8076 479
8088 146
8162 14
8202 14
8272 14
8431 14
437 480
2129 480
2281 480
3711 480
4113 480
4210 480
4927 480
4994 480
6328 114
9490 11
9771 248
1032 286
2742 286
2843 286
7066 453
439 481
849 481
1166 481
1629 481
1719 481
2402 243
3007 481
3240 481
3597 481
4814 482
705 482
9729 80
441 363
711 202
2482 249
2831 363
3663 363
4423 363
4618 363
4801 363
8942 106
442 475
2631 40
6111 475
9930 106
443 271
2202 382
7173 200
444 71
4773 483
5288 71
9072 288
1446 104
2237 165
2568 165
446 78
999 78
5030 473
6331 217
447 320
939 455
1625 65
5616 320
5673 320
6011 320
7862 200
2257 185
6533 395
9735 179
449 484
622 484
1353 484
1961 338
2593 484
3024 484
3038 484
3855 484
4381 484
6754 279
2103 112
7520 346
7148 109
8805 21
452 249
2109 57
2986 249
7313 250
9181 193
453 450
1889 326
5653 450
7938 47
454 282
507 282
5401 120
5770 485
7514 152
455 486
504 486
735 486
2380 486
2571 446
2587 474
3258 486
4792 486
5138 486
5143 486
7977 41
456 338
1738 338
7348 225
8640 87
457 83
2497 415
2544 232
5790 73
8597 83
8878 83
8912 83
8935 83
9121 83
9192 83
458 487
650 487
2468 327
2826 487
2833 487
2916 487
3157 487
3254 487
4131 487
5900 395
9740 19
459 56
1203 56
7733 80
9584 296
985 353
1005 353
1148 353
7780 334
1082 45
8665 58
8742 47
9021 296
1189 20
3789 456
463 436
785 436
3356 436
4650 436
5994 436
6034 436
7179 273
464 488
584 488
669 488
1570 488
2258 144
2952 488
3739 488
4265 488
4516 488
6462 409
465 478
2660 478
4295 478
6191 478
7674 478
7697 87
7717 478
7803 478
7901 478
8638 37
466 279
2643 243
7029 279
9797 19
467 333
8900 129
9293 156
468 157
976 157
3063 285
5716 266
7091 397
469 25
7552 328
9420 25
3773 363
4509 363
9260 293
471 71
3121 71
3417 177
8548 140
9589 90
2592 434
3057 330
3162 330
8002 266
473 375
4947 375
5680 375
6249 375
6288 375
6469 375
6899 375
7281 375
8992 21
474 285
3916 285
4360 285
4439 285
6081 285
6478 285
8631 173
475 293
3186 28
6183 293
7457 48
9019 293
9183 293
9665 293
9706 293
9952 293
547 81
1873 110
5151 110
477 166
1909 489
7011 166
7153 90
1925 55
2835 55
4842 200
479 220
2410 220
2980 220
4336 220
5147 220
5537 220
7924 101
480 286
4046 286
4666 286
4952 286
5312 286
5481 286
5532 286
5565 286
7946 37
481 161
6047 269
8089 90
8206 161
8332 161
8404 378
8535 161
8728 161
8840 161
482 148
2441 334
3179 324
4345 193
8294 148
8997 148
9535 148
9553 148
9892 148
9978 148
483 171
1740 171
1839 171
2256 171
2633 171
4576 171
5628 396
7020 443
484 302
1471 302
485 471
2951 471
5958 435
8722 297
1459 369
2019 301
4699 369
5837 10
3253 69
9230 41
488 187
2028 187
2318 187
4737 187
5727 438
8988 6
489 410
3380 79
5667 410
6714 236
688 467
1361 423
4539 490
7272 299
491 491
1438 491
1803 491
1836 491
1978 491
2921 491
4390 491
4669 491
7712 104
9463 193
9765 19
492 429
676 429
2078 336
2985 429
3761 429
4358 429
5269 429
5517 128
6024 36
493 295
707 295
1620 289
1765 295
4829 233
494 492
1097 492
1610 492
2084 492
3268 492
3278 492
3562 492
4009 492
7317 22
8090 246
5548 493
9594 76
496 417
1526 417
1531 417
3015 417
3815 270
4141 417
4349 417
4434 417
9647 7
497 119
817 119
7661 118
9298 140
498 118
7764 118
8154 118
8156 118
8229 118
8234 118
9262 281
499 380
1146 380
9944 76
500 445
1571 445
2375 445
2771 445
4227 445
5097 445
5440 445
5568 494
9011 23
9073 212
1409 175
2492 175
5190 175
9529 212
9913 130
502 180
775 180
1434 495
1490 180
2400 180
2469 180
2897 180
2959 180
3271 180
503 97
3536 97
4243 97
5339 97
5379 97
6200 97
6579 39
7440 306
1608 486
1776 486
2549 434
8775 173
9613 194
3504 343
5245 496
506 497
2421 497
3881 497
4855 497
5177 217
5429 497
5649 497
5916 497
6625 497
8699 310
9936 19
508 369
5114 494
597 207
1241 190
510 365
1767 365
2043 365
2270 365
2734 365
2801 365
2850 365
2972 101
8566 25
511 339
1130 339
2502 339
2913 339
3471 410
4308 339
4515 339
4672 339
8544 250
8888 250
512 361
1192 361
1750 361
2005 361
3829 361
4122 361
4153 361
6203 41
6325 132
545 419
7101 469
4887 422
515 43
2055 312
4478 43
5002 43
5611 43
5760 43
5795 43
6836 43
3500 22
3780 39
6404 39
6622 39
7496 39
7652 39
7894 39
517 465
1534 465
8249 158
9342 11
518 458
826 458
1443 458
1622 458
2032 458
2989 458
3107 458
3139 458
4180 159
8801 86
519 106
6797 136
7389 140
7990 106
9761 106
891 365
1681 365
1943 365
8477 146
521 30
2407 30
3522 30
3792 30
5068 30
5636 30
6218 30
8117 393
8749 156
8967 194
522 429
1012 429
2797 429
3644 429
5059 309
8471 86
523 59
5914 137
7212 59
8896 59
524 193
5890 498
9027 193
9045 193
9266 193
9278 193
9517 193
525 316
3016 316
5422 65
5754 22
6389 316
6429 316
6470 316
6691 316
2822 134
527 368
2071 499
6851 368
6944 368
7347 368
7374 368
7598 368
7616 368
7887 368
9068 79
9487 86
6164 19
8243 104
529 147
1985 147
2816 147
4147 147
4481 147
4744 147
5557 147
6193 59
530 48
7987 48
8151 48
8546 48
8576 48
8684 48
8870 246
868 467
5936 46
9317 193
713 12
5832 70
533 499
3338 499
3432 499
4087 499
4343 499
4583 499
4781 499
4915 499
9359 44
6924 128
9258 58
536 322
656 32
830 500
1208 32
2327 32
9469 80
1341 134
6853 253
7787 156
6529 501
6633 325
540 341
2338 51
3309 502
8209 420
541 432
6122 230
7373 14
9007 301
542 241
695 241
952 241
1061 241
2279 241
2287 241
2435 241
3654 241
9912 11
2761 379
3570 477
544 38
3402 38
5038 503
5692 277
6141 268
647 419
1211 419
1538 375
4173 243
3369 292
1173 299
1745 81
2738 81
2859 81
2996 81
4157 81
4474 81
4907 81
5360 81
548 143
928 143
2539 143
2882 143
5056 143
5723 143
5768 41
5861 143
8171 7
549 203
1120 203
4150 203
550 504
1180 504
1448 504
2464 504
2914 504
3010 504
3104 453
3517 504
3912 504
4326 505
7538 77
8373 393
1153 61
2920 61
3576 140
8636 6
8882 393
1783 322
2710 322
3779 178
6374 416
554 288
1709 288
8848 288
8980 288
9076 288
9098 288
555 506
779 506
1379 506
2510 506
2607 506
3609 506
3828 233
4036 506
4582 506
5125 462
7623 84
556 263
572 263
1517 143
1566 263
1800 263
2433 263
2651 263
3176 263
4709 324
7688 41
8360 82
558 507
962 507
1275 303
1920 507
2384 507
2564 507
2821 507
3128 507
3443 507
6821 446
7352 41
559 286
3722 286
4501 30
5107 286
7104 411
560 220
3476 220
3748 223
4560 220
6756 416
8849 7
561 405
1848 335
6004 405
6166 405
7000 405
7482 405
7602 405
7964 212
562 417
1432 417
2861 33
3223 508
9476 293
563 490
1542 490
2215 490
2514 490
3168 490
3969 490
4079 490
8347 310
564 509
1060 509
1741 509
3524 509
4279 509
4660 509
4774 509
4885 509
5822 447
9423 205
9498 248
1415 426
4029 40
7371 172
8786 148
567 218
5332 218
5740 218
5885 218
5912 218
5954 218
6201 218
8768 21
568 131
5708 510
6628 131
6820 131
8337 131
8600 131
6949 281
8307 270
5697 251
6147 251
6909 251
8132 347
8550 37
9276 306
9689 106
9955 179
953 263
1126 263
573 109
8591 109
9350 109
9503 255
9522 109
9576 109
9605 109
9648 109
9677 109
9744 90
574 113
5894 25
5941 113
575 159
2332 489
5626 159
6900 159
7682 159
9474 250
576 432
2446 432
2781 432
9351 248
578 288
5630 498
5797 115
7671 469
8053 288
8240 288
579 412
3458 412
7124 111
7323 223
8273 86
580 383
2453 383
5163 268
9102 104
581 339
1245 339
4176 33
6297 36
8497 281
2408 457
4278 75
9848 130
583 40
8374 41
1376 488
2845 488
6228 368
7280 511
8734 296
2001 96
2682 96
4166 96
6966 130
8702 420
1122 195
9327 26
1269 168
3879 512
6506 384
8632 41
588 403
7669 130
8875 7
8898 246
589 37
8060 37
8204 37
8355 37
8697 37
8956 270
590 323
1616 323
5762 398
6298 139
7865 421
592 472
1582 472
4932 57
7513 513
8277 80
5881 474
9284 47
594 30
731 30
4797 344
595 177
2307 177
5036 177
5272 177
5424 177
5468 177
5944 177
6020 177
6769 121
2124 460
2217 462
3802 235
6215 251
2457 226
8300 21
9489 3
1300 291
6503 443
8909 84
1575 32
4222 204
6544 6
600 339
1713 339
1945 485
5576 332
601 514
1686 514
4140 515
4164 514
5589 514
6041 514
6214 514
6653 514
6852 514
8035 378
1702 53
2329 232
3608 53
603 493
2026 493
2576 459
2963 46
3420 493
3788 493
3924 493
4302 493
5492 493
604 390
3105 390
3130 501
3198 390
3965 390
4094 390
4502 516
7512 35
5223 468
7332 193
606 399
4697 399
5670 399
6037 399
6073 399
6309 399
6458 399
8361 86
8408 23
9405 240
2619 423
2991 427
3542 512
609 426
640 426
725 426
1106 426
1286 426
1487 426
1965 426
7580 421
8239 248
610 19
3483 204
5871 19
8450 19
8748 19
9393 19
9567 19
611 16
1632 16
5470 16
612 229
659 229
1312 229
2029 229
2832 447
3188 229
3250 229
5845 430
8227 224
8641 393
8767 179
614 0
700 0
8867 128
9766 54
615 127
3094 127
5854 127
6074 127
6097 127
6317 127
6546 127
9090 129
9428 194
616 315
2295 315
2406 315
3270 315
3314 315
6849 273
5629 516
6031 1
7845 421
618 384
4910 172
8680 384
9378 384
9461 384
9578 384
9610 384
9628 384
9788 334
619 229
1924 229
9336 11
620 47
6001 14
6690 270
8136 47
8364 47
8939 47
9151 47
9185 47
9362 47
9526 47
621 517
2401 517
2412 517
2818 517
3230 517
3377 517
3661 253
3843 517
3919 517
8389 191
1976 484
2785 164
9146 329
623 68
2182 68
2773 68
3079 441
3507 68
3527 68
3742 68
5903 68
6994 155
624 289
6299 48
6792 289
7762 289
7910 289
8354 289
8658 289
625 99
4136 107
6986 66
9218 44
2862 357
8261 17
9694 248
627 493
2285 493
4253 452
9009 130
7168 149
8013 155
9125 140
629 144
1989 508
6154 144
7121 144
7447 144
7726 123
7735 144
9225 152
3751 460
8831 19
9675 54
1299 408
1546 408
2476 117
8681 215
9626 44
633 380
6881 144
634 278
637 278
7201 80
9385 51
635 518
1322 518
1955 518
2275 518
2617 139
3170 518
3793 518
4370 518
4420 518
9524 373
636 256
3519 256
4050 256
7044 212
2685 136
7264 373
9940 151
6480 66
7004 66
7250 66
7378 66
7470 66
639 127
3720 310
4652 127
5142 127
8970 41
1553 426
1578 426
6009 452
1370 458
1613 458
7719 90
1670 174
3604 377
643 483
2796 483
3127 483
3274 483
3295 483
3296 483
4248 114
4344 483
2311 300
3465 123
8908 205
6985 395
7899 334
9132 3
2165 442
3767 442
9307 104
9700 7
9250 87
1095 315
8854 420
649 298
2941 298
5664 498
7475 22
9727 90
699 487
1899 487
7346 306
9588 80
1123 361
1444 361
652 89
7560 89
8774 89
9235 89
9363 89
9370 89
9432 89
9826 6
653 329
1131 195
4561 188
8720 329
8723 329
8725 329
8910 329
8996 329
691 434
915 434
944 434
1960 434
3710 434
4023 434
655 237
903 420
3262 237
5631 237
6822 375
6939 237
7292 237
7334 237
7725 237
9347 301
683 519
657 96
5545 498
8622 106
658 94
841 94
1017 520
9530 148
4281 194
6947 58
660 507
1083 507
7543 172
1072 50
2024 50
8131 158
4383 181
9870 106
2940 126
3095 126
7369 123
7577 301
664 521
1822 521
2886 444
4056 521
4193 521
4268 521
4619 521
4917 521
5080 521
5960 392
8096 240
9459 148
7087 90
8563 11
667 519
906 519
1389 519
1972 519
2605 519
2933 519
4074 519
4109 519
6935 273
9520 156
668 522
1732 522
1820 522
2444 522
2635 522
3102 522
3282 522
3361 522
5350 356
9096 297
9089 41
670 190
1867 190
2304 190
3237 190
3593 190
4351 190
4768 190
8521 212
671 523
2443 523
3114 523
3400 523
3475 523
3804 523
4060 523
4209 523
7681 130
8109 255
8282 87
8932 80
673 380
5812 70
9357 21
674 151
3719 485
8830 151
9178 151
9333 7
9368 151
9676 151
9705 151
9772 151
675 287
2040 287
3160 287
3385 287
3449 287
3922 287
3952 287
677 460
1179 460
1327 460
1626 460
2606 460
3109 460
3495 460
3642 460
4063 214
678 250
4012 219
8924 250
9035 250
9094 23
9693 250
9851 250
9881 293
679 306
4531 391
6347 500
8379 306
8469 306
8800 306
9160 306
8397 420
681 324
1232 29
1844 324
3029 324
3764 324
4118 324
682 102
2597 204
3189 79
861 519
971 519
7001 433
9942 54
684 445
3582 445
4417 42
9399 255
2977 335
8346 33
8799 194
687 151
5668 236
6870 151
8621 151
9115 151
9302 151
9919 296
9923 151
689 450
5314 450
7961 23
9634 44
1877 434
692 75
4620 75
6782 288
8457 139
693 309
978 309
2895 309
9920 106
694 438
3974 438
4237 438
4597 438
4849 438
5262 438
5679 438
5700 438
763 241
1660 241
7537 289
9387 151
696 434
4273 313
697 517
1964 517
4996 86
8415 301
788 341
8094 420
6497 148
8524 334
8717 420
9680 19
702 44
4608 255
7793 23
8883 44
9180 44
703 243
1791 243
4828 243
4921 243
5193 452
5265 243
5846 243
8914 334
1293 111
1577 28
1764 28
2847 28
3056 28
3346 28
2039 482
2082 482
3266 482
4479 482
5586 482
5587 482
7063 57
706 334
3299 334
7263 416
9086 334
9097 334
9819 334
9956 334
9968 334
1324 295
3652 295
3868 197
708 524
1394 524
2065 524
2333 524
3763 524
3939 524
4327 524
4816 524
7772 152
9134 248
9805 90
3046 358
710 242
1717 242
4896 242
8608 224
1349 435
6504 202
6535 202
6710 202
6716 202
6781 202
712 525
1442 525
3041 525
3248 525
3297 525
3538 525
3854 525
4532 525
9229 156
714 169
986 106
4745 169
5402 169
715 19
7875 19
8257 54
8959 15
9198 19
9324 248
9818 19
9946 19
7812 152
717 71
6833 259
718 388
1935 388
3913 388
7077 459
8086 146
719 186
6735 350
9391 21
721 438
2498 438
1742 28
5715 223
9013 240
723 427
3712 427
3976 427
4245 427
4325 427
4739 427
4991 427
8402 139
1574 157
6396 122
6837 415
6373 111
7706 334
9379 21
2898 244
3938 244
6255 464
8138 421
3873 457
729 471
4003 459
6570 70
7992 54
730 521
1678 521
3277 521
4900 422
7952 149
8064 155
1654 30
6254 526
9949 90
732 178
3723 178
5091 178
5173 178
5298 178
5536 178
8126 23
8199 420
733 120
3530 120
3561 120
4605 120
5741 120
5864 120
8991 80
5004 86
1592 486
2060 486
736 477
794 477
1826 171
1828 477
2278 477
2629 477
3119 63
3156 477
3267 477
3641 477
7202 59
8181 215
738 87
8290 87
8926 11
9396 87
9570 297
9751 76
9773 87
9884 87
739 366
1309 366
8184 469
9801 21
741 196
1356 196
3337 196
3510 196
3693 196
3766 196
4035 196
7872 156
8633 79
742 509
1898 509
3569 509
3820 68
4403 509
743 367
1510 367
2033 367
2133 367
2374 214
3320 367
3846 367
4648 367
5499 90
9632 151
744 443
2205 437
6326 443
6687 443
6879 443
7290 443
7333 443
4249 228
9196 193
5336 454
4462 21
5756 374
9841 106
2494 386
2565 386
2888 386
3640 405
3887 386
4091 386
4116 386
4127 386
749 365
9085 378
9402 90
2760 317
3425 317
3598 520
8016 479
9685 156
7056 35
7774 191
8034 191
9186 191
9202 191
9219 191
753 185
1272 185
1280 212
1287 185
1569 185
2427 185
3454 185
9607 193
754 180
2022 222
4232 500
8254 159
5512 346
7771 234
8688 90
756 386
1080 386
2852 386
7085 453
8821 79
757 160
2715 160
4010 160
6216 329
4350 437
4573 103
5659 463
759 527
1483 527
2181 527
2735 527
2857 527
2896 527
3824 527
3984 527
7448 528
8617 87
7660 310
761 92
4231 92
5007 92
5229 92
6357 92
6862 92
7955 310
762 257
4290 257
4503 257
4918 257
5306 257
5369 257
5595 257
1228 489
9024 33
764 405
4662 405
5279 405
7673 405
8611 77
9925 179
765 214
2668 214
4076 401
767 312
1138 312
3216 312
3735 312
4032 312
4061 312
4925 194
6904 288
768 167
836 70
877 167
1186 167
1703 167
1833 167
1967 167
2451 167
2912 167
8342 397
9728 193
770 493
1339 345
1907 493
4811 420
771 217
7433 217
7462 217
7487 217
8139 106
9789 255
772 258
937 258
1048 258
1796 122
7060 149
773 496
2547 496
2979 496
3415 496
4285 496
4939 496
5209 496
5240 496
774 237
1634 529
3825 237
6345 237
6801 237
7983 334
9998 41
6677 273
7103 41
776 209
1157 81
2479 35
3302 209
4083 261
777 133
2697 133
6670 234
8236 340
6006 301
6584 69
7644 6
3628 506
9511 219
780 465
1461 465
2531 465
2824 465
3747 465
3920 465
3978 465
4736 465
6456 225
7808 172
7886 224
781 233
2149 233
3362 233
4760 233
8644 51
8755 26
782 286
7499 173
9197 21
9411 23
784 44
6841 89
8610 44
9103 44
9388 44
9757 255
5376 436
786 75
1101 90
3862 75
4016 75
4115 75
4142 75
4201 75
4613 75
787 440
7178 179
7545 104
2486 341
789 188
1532 188
2962 188
3196 188
3513 188
3905 188
5600 208
790 93
2837 93
5601 93
6056 93
6646 93
6920 93
1003 280
2656 280
792 492
933 492
9281 106
9300 152
793 371
2869 371
3342 193
7628 37
8413 215
1020 477
2465 477
795 476
931 476
1509 421
2003 476
2876 476
3087 476
3397 476
3833 476
4705 476
7162 494
796 196
1170 196
5682 373
8773 41
797 265
4602 265
5123 265
5271 265
5467 503
5488 265
5752 265
798 424
1969 424
2452 424
8771 275
9546 151
799 390
2545 390
2960 518
3151 390
5800 87
800 97
6412 47
7624 307
8306 104
801 437
854 437
2521 437
3446 437
3451 437
3499 437
7541 179
802 103
9038 293
9844 41
4071 243
5739 510
804 147
2367 313
4596 147
5139 147
8193 130
9384 90
9441 158
9646 106
5088 129
9395 179
807 468
4777 468
5433 468
6171 468
6302 468
6437 468
6457 468
6492 468
7502 346
808 314
4707 314
5049 314
6032 314
6113 314
7589 131
6569 479
8386 219
811 178
1581 178
5674 152
4756 112
9204 58
4299 501
1735 154
8473 293
9964 104
815 304
3184 304
3201 304
4111 304
5372 304
5410 304
8070 469
8508 205
9320 193
818 101
7971 101
8452 101
9140 86
819 421
7222 421
7293 421
7564 421
8698 350
9687 58
820 186
840 186
4499 39
821 530
1134 530
1831 530
2102 530
2208 154
3467 530
3617 530
3715 530
4689 530
4976 292
6610 217
2291 418
6637 111
9417 152
824 190
2117 190
8618 22
9599 7
920 458
1815 458
9119 6
9718 63
827 505
1201 505
1726 505
2179 505
3435 508
3863 505
4241 505
4392 505
6889 82
828 531
1344 531
4324 531
4464 531
4940 531
5256 531
5496 531
5780 531
8286 219
9566 11
829 96
1466 96
1602 96
1689 96
1913 96
2620 96
2765 96
2774 96
8451 155
4537 425
4881 500
4955 500
5425 500
6383 500
6661 500
6753 500
831 29
1089 203
1391 29
3249 29
3319 29
4101 29
4749 29
832 515
1304 515
1983 515
3629 515
3889 515
4546 515
4719 515
5996 475
6289 236
8759 155
833 409
5028 409
5411 409
5734 409
6030 409
6038 409
6093 137
834 503
2532 503
2778 503
3195 39
3358 503
3679 503
3698 503
835 147
1413 477
5835 70
5880 70
6344 70
6367 70
6800 137
837 106
1843 38
2931 503
7942 266
839 508
2196 508
4068 508
4125 508
4177 508
4879 508
4903 508
7515 325
8712 179
5284 158
7182 35
1009 439
1380 414
8163 479
842 287
1921 287
8604 205
4025 327
4311 113
844 165
7237 347
8143 397
845 285
1617 498
4190 218
4909 285
5523 285
9171 248
847 119
932 119
6523 308
8315 155
848 304
3937 304
4001 304
4188 304
9495 240
1104 481
8484 148
8784 104
8003 179
9449 80
852 220
1259 220
853 145
882 202
1355 145
1499 145
5638 238
1382 429
1990 437
2166 437
9259 80
2206 168
5541 455
857 211
1710 211
8082 11
858 505
3264 485
3849 505
7882 54
859 531
1421 531
2713 531
3037 531
8580 378
1132 436
9683 106
6759 479
7786 393
9433 301
862 444
2248 444
3387 444
4405 444
4610 444
4960 444
5217 444
5353 444
6115 498
863 319
7010 319
7418 151
7486 319
7960 319
864 64
905 201
1065 64
1884 64
2608 64
8275 511
9012 130
5053 266
7690 459
9314 33
1178 272
8175 158
867 444
1733 444
1860 444
2064 444
3332 444
3422 444
4683 444
4726 444
8818 90
9971 334
4698 308
7853 59
8709 41
869 497
2357 497
5340 497
5609 532
5743 497
870 223
5423 474
6016 223
6613 223
6669 223
6679 223
6808 223
7744 225
871 359
3673 359
9345 194
8319 350
3381 337
8416 250
874 533
900 533
2330 176
3537 533
3718 533
3960 533
3972 533
4471 533
5225 533
875 239
4148 239
5261 239
5925 239
7650 511
8069 373
876 6
8058 420
8706 6
9082 6
9875 86
1107 74
1695 167
8541 84
878 243
1544 243
3858 243
3999 243
2538 235
4438 44
880 30
4047 30
8032 3
9305 156
4941 202
6015 202
9625 58
883 167
9586 58
884 309
1190 309
1729 309
2343 309
2903 309
9048 106
2868 520
3545 174
6118 259
886 532
5511 532
6476 532
6477 433
6551 532
6656 532
7140 347
7586 532
7753 532
7799 532
887 508
2226 520
3968 398
9175 152
888 266
6925 266
6962 6
7190 266
7668 266
7998 266
8145 266
8267 266
889 90
6138 101
6695 90
8464 90
8551 90
8933 90
9290 90
9792 90
9990 90
5500 197
6319 259
9145 179
892 72
947 72
1015 72
2254 72
4807 399
8860 343
9668 84
894 477
998 477
1587 477
2048 477
3977 477
6168 230
7768 159
895 25
3903 84
5218 54
7897 35
896 435
2350 441
4938 435
5050 479
5330 435
897 185
1739 185
898 532
1176 436
4920 526
6105 532
6749 532
7767 532
899 214
1412 214
4832 478
9796 21
4714 533
6274 346
7918 58
901 106
5742 86
8216 106
8417 82
9726 106
6588 378
3163 276
3732 395
8215 420
8298 420
904 231
2442 231
8134 155
4387 65
5701 204
907 367
3512 367
5445 489
7137 513
9168 86
908 117
2737 117
3257 117
4156 117
4402 117
5441 54
909 517
1204 309
1540 298
6910 279
911 523
2601 523
2622 523
4630 463
8276 22
912 525
1734 525
2848 525
6624 37
913 515
1195 436
1366 515
3273 515
4338 515
9234 21
914 35
6511 35
8023 35
8043 35
9456 293
1474 449
8345 44
916 148
3844 444
7554 148
9833 148
9855 148
9893 148
9921 148
917 91
2068 91
2238 91
2379 340
7159 463
918 307
1603 490
7594 307
7720 129
919 443
4895 443
5834 443
5957 273
2901 337
4286 238
9880 6
921 464
4320 464
5166 464
5836 58
6207 464
6284 464
6641 464
6729 464
8941 301
922 94
6573 6
9445 297
8127 151
9813 193
9593 151
926 463
1564 343
5012 95
5427 41
6079 463
6204 463
6499 463
7145 463
7287 463
7501 463
927 361
6445 238
1638 143
2596 143
4114 303
9292 296
929 532
7414 101
7534 532
930 313
5181 115
2152 476
4891 415
9101 21
9802 87
2798 492
9778 148
934 195
1197 195
1133 142
1270 278
936 41
3535 326
6869 33
7392 41
9041 41
9265 41
9381 41
9688 41
9762 41
6934 36
938 15
7316 396
7736 15
7930 15
8520 15
8772 15
2116 455
3009 455
3713 455
4668 455
5026 455
940 506
949 506
7544 80
9367 23
941 230
3428 416
6096 230
6773 230
6886 230
7089 230
7235 230
9493 293
942 138
8763 350
943 428
2630 428
2879 428
9582 41
5334 346
945 468
5841 468
8150 240
946 401
3539 123
7387 401
8248 132
3334 47
9286 140
948 265
4454 265
4959 265
8977 79
1519 61
5722 526
7325 421
7384 151
4864 358
5235 15
7109 350
954 502
1755 502
2480 502
3081 502
3373 502
3701 502
4022 502
5076 502
6530 46
7547 11
2052 4
8833 334
9995 151
1365 501
2871 116
3351 116
7094 44
9220 130
2101 476
7849 19
8950 246
9839 193
960 302
9236 219
961 455
1303 455
3064 455
3280 455
9247 21
1363 529
4788 451
7827 90
965 454
2836 326
5214 454
9078 343
966 483
2523 483
4898 300
8458 347
7315 396
8961 111
968 424
6832 173
7267 296
9966 148
969 387
1453 387
6146 404
7424 109
8951 224
2488 393
6366 404
9600 130
972 330
7210 51
9947 334
973 2
5953 200
5963 2
6136 2
6556 2
974 436
1583 436
5089 140
5915 433
9340 63
975 75
1050 75
2456 215
3786 90
5965 63
6847 293
1497 22
8365 411
979 453
4945 400
6210 453
6280 453
6575 453
6727 453
7468 453
980 303
1076 9
1711 303
3893 303
3975 303
4161 303
4504 303
4897 303
5257 303
981 225
4834 66
6652 225
7568 225
7607 225
7896 225
8785 205
9426 80
982 181
5810 443
6084 181
983 377
1841 512
4419 439
5351 377
6568 377
6891 377
7125 377
7183 377
7299 377
7603 377
984 127
2145 109
3724 228
5721 106
9906 106
9960 106
987 137
5677 137
6667 137
7238 137
9664 19
2463 381
3865 381
5774 131
8504 297
6937 7
7729 9
9684 11
7278 25
1177 31
1823 292
2252 31
992 169
5032 118
6927 511
993 124
7572 15
994 442
6629 332
7676 253
8485 58
995 470
1306 470
1722 470
6194 264
6706 516
9064 3
996 257
3664 257
5326 257
9043 76
997 372
2193 192
5463 372
5634 372
5776 372
6161 372
6165 372
6243 372
7039 89
1062 477
2537 477
4591 161
2990 95
8595 250
1000 309
1463 309
1853 309
3876 452
8561 149
1001 20
3592 20
3902 20
5078 425
9943 106
1002 319
6840 251
7342 319
7446 57
3577 512
7427 248
9927 151
1004 122
5897 420
6496 112
6531 122
7078 122
7337 122
3025 364
3941 246
1006 100
4717 100
8976 148
1007 178
3672 331
4040 178
9642 44
1008 36
6040 208
7584 36
9939 11
3469 439
6252 173
1010 159
6236 22
1656 110
8787 23
6973 398
1013 412
1213 460
1014 414
1311 414
1537 414
1861 414
2261 414
2553 414
2689 414
3603 414
7919 151
1016 93
2403 93
1563 520
3997 520
4316 158
4704 520
5096 520
1018 88
2088 88
1019 127
8817 334
1021 151
6802 151
8211 7
9143 151
9152 378
9509 151
1022 97
1422 97
3074 97
8957 350
9562 6
9328 248
9380 248
9506 248
9623 79
9672 248
1749 155
6485 163
6578 163
6645 163
6651 163
6752 163
6883 163
7921 350
9358 250
1530 34
3375 342
1026 307
2484 256
6526 277
8919 19
6566 82
1029 117
1492 117
4600 81
1030 401
7142 401
7386 401
7970 396
1031 331
1301 331
4625 534
5552 331
6318 166
7625 51
1034 459
4564 129
5294 459
5648 459
7626 459
7715 459
7765 459
7804 459
9136 87
9172 84
1094 407
1838 407
4815 320
1036 283
1768 283
6323 15
8394 334
1037 16
5216 274
9824 58
5746 320
6471 9
1039 418
8387 132
8955 270
9279 41
1040 124
5725 183
1041 120
4382 120
4694 120
5805 378
4575 51
7081 501
8418 384
1045 202
9673 63
1864 472
6401 479
6736 260
1384 258
7497 129
9184 109
3067 216
3150 216
6353 240
8982 54
9597 11
9156 41
1051 228
1154 311
2863 228
4759 228
4848 228
5438 228
6090 228
7636 89
7984 83
6330 306
1054 245
1115 37
1858 245
3549 245
3706 299
8420 83
1342 76
7664 158
1056 298
7802 63
7874 300
3353 142
6678 433
7525 420
8390 111
1058 409
5450 409
5642 409
5833 409
1059 359
1637 359
5888 277
8110 90
8629 47
9081 270
9890 33
8642 158
8590 21
1064 214
4319 455
6272 446
6408 86
5475 17
1068 445
1655 445
4567 425
4708 115
7590 373
1070 524
2699 524
2723 524
3966 524
5352 44
8733 90
2567 383
8214 193
9690 130
6494 532
7249 411
8730 41
6940 44
1665 198
6848 453
7417 300
6908 9
6977 9
7259 9
7569 9
7815 9
1933 65
3618 65
1516 457
7075 90
7769 90
9306 87
1728 376
2813 105
9549 148
8169 511
9985 41
9442 19
1084 447
2672 447
5260 447
6439 447
6794 447
7615 131
9435 41
5546 206
1086 117
6740 528
8472 109
1087 276
2045 276
2233 276
2894 276
3392 276
6791 90
9164 149
1088 99
4983 204
5195 236
1090 88
9485 104
9748 151
9542 250
1092 190
9484 106
1093 530
1869 530
5807 111
6392 416
9560 23
9216 54
1653 352
3852 352
8868 41
9704 44
5604 528
1098 349
3988 349
4292 349
4459 217
4574 349
1100 428
3940 223
4426 428
6239 18
1797 143
1997 321
8463 90
9709 90
8904 194
1103 179
9034 179
2282 481
1105 305
1407 401
1975 305
9724 80
5051 526
7385 378
8176 104
9928 33
1109 107
1817 107
2167 107
3395 107
3461 107
4255 107
6877 11
7939 112
9598 255
8572 193
9544 205
1111 206
2650 206
3656 206
4871 206
5157 206
6378 57
8305 373
1113 16
6612 398
8280 155
1114 90
8468 26
9558 63
9937 90
9950 90
7220 397
8247 37
1116 488
9897 86
1117 250
7629 250
9548 86
1118 153
3697 153
5400 153
1477 70
1671 71
2294 122
1121 130
7861 15
8822 130
9606 130
9720 130
7820 151
2988 115
5709 526
7215 62
9571 193
9663 193
9929 193
9959 90
1125 115
5530 115
7226 36
8039 115
9273 378
1127 470
4031 95
9983 79
1128 279
1202 453
5717 279
8318 275
1215 402
2944 402
8509 240
4856 479
3144 2
2786 142
9052 156
8803 173
1135 531
2840 194
6268 364
8944 255
1136 105
5625 415
8601 6
1137 262
3069 262
3560 376
4189 206
5437 422
1334 312
3635 312
4214 312
1139 172
4293 204
5990 172
7230 172
7330 172
7426 172
7818 172
8482 82
9366 158
3841 143
3880 143
8777 11
1141 305
8995 378
4138 212
5689 86
1143 367
7282 260
1144 215
6683 215
7747 215
8407 215
8825 215
8828 215
8943 334
1145 1
2321 456
5380 1
5383 1
5562 1
6251 1
2274 183
3953 461
3304 115
5684 7
7788 306
6956 106
9352 194
6126 36
1151 527
1988 527
3048 527
8685 59
1152 36
5118 118
7613 82
6540 114
3648 347
9695 212
1155 21
7517 90
9018 21
9111 246
9502 21
5446 43
9176 130
2746 81
4804 81
1158 67
4215 510
6517 67
6554 67
1159 238
4480 238
6654 238
6765 238
8589 6
1160 529
2184 529
2609 529
2789 529
3411 107
3669 529
3692 529
3774 529
3821 529
6805 22
8814 293
1161 82
4048 391
5243 77
5856 510
7477 82
8218 82
8292 82
8424 82
1162 75
3579 75
4123 528
1163 84
7508 84
9252 84
9452 84
9992 84
5749 449
7974 275
9157 205
1165 230
1970 301
5759 230
3384 425
5745 197
1167 196
9514 6
1816 228
1169 276
1210 276
9087 76
1914 511
2075 199
7375 57
9069 63
4632 325
6406 236
9701 54
9713 179
6355 90
8507 63
9165 158
6065 146
6196 208
7619 76
1650 504
2366 504
3182 504
6435 373
1181 156
5469 191
7031 79
9592 156
9674 156
4448 159
8953 384
6557 513
8530 7
9297 23
2983 116
1292 25
6310 86
4226 73
6340 246
9739 23
7432 416
6995 17
8493 84
5669 340
8693 296
1238 170
1284 170
4096 226
1194 502
4103 502
4194 502
4710 373
5057 513
7909 173
1597 29
2306 29
9564 90
1199 325
4631 44
6923 325
7007 325
7244 325
7791 325
8020 325
1693 444
6179 46
6767 46
7404 77
7866 46
8067 46
1250 505
4513 453
7746 350
3626 489
6234 396
8072 41
1207 378
8793 378
8884 378
9091 378
9777 79
7494 411
7852 26
1212 382
1612 382
3242 456
7847 328
1235 402
7535 270
8844 158
1216 462
3671 281
3721 462
4264 462
5241 462
5250 462
5465 462
5086 121
6495 248
1218 51
8459 23
9859 51
4144 226
1220 169
3093 378
3284 228
4197 169
8101 296
1221 110
4337 110
4812 110
4865 110
5073 110
5124 110
5169 110
6583 415
9970 21
2580 356
1223 190
2560 273
1224 160
3848 329
8460 384
9263 23
1489 247
9781 58
9991 104
1226 110
3890 110
4500 251
8795 54
1227 389
2466 389
4418 389
1910 457
4070 489
4424 489
4538 489
4813 292
5303 404
5704 489
1618 291
7365 384
1230 340
6502 332
7090 340
7829 397
7840 340
7995 340
8220 340
8511 340
5273 301
8846 132
9080 129
6399 219
9477 63
1233 68
3882 68
7364 240
1234 495
2148 469
2520 495
2535 495
2604 495
3328 495
3525 495
4260 495
4346 495
6063 346
1236 41
8879 41
9531 41
9858 41
3506 52
3676 52
3687 52
6045 182
1260 170
5382 400
8612 193
5637 51
8782 58
2214 294
2856 190
3363 459
5251 375
6721 148
1243 257
2915 257
9057 86
2409 99
5205 39
6701 397
9565 193
8819 347
4437 326
9301 109
9590 84
1248 188
1744 188
7221 420
1825 480
7776 384
1251 395
7163 395
7297 395
7409 395
7756 395
7876 395
6709 6
1253 534
1601 534
3070 534
4104 534
4235 534
4653 534
4840 534
5519 534
5678 534
8125 240
8100 275
8242 80
1255 532
3738 433
1256 491
2160 491
3816 491
4680 491
7380 76
9410 152
8303 161
8406 479
1261 233
2658 233
2736 233
3437 233
5618 449
5408 494
4735 441
8653 21
1264 81
2506 30
4394 81
1265 422
3775 422
3822 373
3907 422
4729 422
5197 422
5404 422
8965 86
9737 293
1267 270
7454 11
7941 37
8962 270
9017 270
9047 270
9113 270
1268 501
3729 166
4559 501
5362 501
5724 501
5907 501
5984 501
6658 501
6878 19
9916 86
5485 14
7117 215
1274 146
7672 146
7698 146
8007 146
8368 146
8409 146
2210 303
3955 303
4861 456
1278 378
6605 378
8194 54
8502 378
3308 274
6320 297
9105 212
9608 212
9620 212
9702 212
6327 377
1283 182
6541 401
8425 182
8539 182
8695 182
8510 109
1285 454
1901 454
9650 41
9815 194
9419 80
1288 473
4878 473
5162 473
5232 473
5341 473
5399 473
5647 473
8158 26
9472 87
6522 277
1290 332
4455 332
6170 332
6385 332
6581 332
9868 79
1291 375
4972 375
5203 90
8923 80
8055 58
2391 503
5592 17
8445 111
8496 111
8947 111
8974 111
1294 118
1812 479
3695 356
7481 118
7565 118
8540 84
1296 136
6036 136
1297 441
3205 441
4229 441
4568 405
4904 441
5170 441
5224 441
5992 430
2653 87
6915 62
8095 250
9137 33
9657 240
9787 58
1302 151
1633 350
7067 151
8137 151
8788 80
8901 350
1305 444
7356 343
8448 179
1818 247
1936 192
1308 461
5322 461
2266 277
4497 158
6917 297
1550 414
8736 301
1313 344
2105 344
2967 344
2376 438
6739 328
6370 161
1316 372
5937 372
9887 179
6208 212
1319 87
6662 87
8613 87
9077 87
9725 87
9776 87
1320 463
6486 463
6830 297
1321 495
3158 495
7335 430
3243 518
9482 130
2582 358
2647 358
3002 358
4251 358
4335 358
4752 358
4999 451
5319 460
1325 501
1400 86
3472 360
5579 501
6409 398
8781 86
4817 455
4835 2
7914 25
9194 6
1328 532
7307 253
8495 158
9976 151
1331 479
7453 479
7680 479
8123 479
8262 479
1747 297
4890 44
1333 501
5001 69
8478 80
1335 480
2169 480
3647 439
3118 299
9723 194
1338 92
5215 92
6521 92
7548 215
2712 80
4198 345
4723 345
7112 401
8476 63
5194 316
9242 3
8081 182
9092 76
9738 76
9747 76
9843 76
9856 76
1343 162
4919 162
5405 162
7030 393
2108 71
7236 253
1345 39
6882 39
7868 58
2216 52
2688 52
3734 346
5506 297
8391 334
9065 393
1348 242
2251 242
5390 494
2098 161
1896 267
8843 33
9810 130
1352 103
8527 76
2080 484
2902 484
1414 145
6371 121
5098 163
5574 151
8802 152
4318 475
4590 449
8105 350
1360 500
5370 500
6952 293
3031 529
8470 310
8537 297
8716 297
8966 297
9406 297
9430 297
4544 391
8221 411
1368 457
2232 457
5305 457
6831 36
7358 528
9616 3
5443 179
4641 373
6748 346
3743 325
6021 415
9191 343
1372 76
2186 378
6723 25
8667 297
9471 293
1782 24
2141 24
1375 108
7635 281
7890 108
8235 343
9162 58
1998 105
1604 18
4824 453
8461 44
9241 86
1381 44
7198 44
7461 84
9060 44
9795 44
4000 534
1640 93
2086 144
6562 528
1385 468
3906 277
4013 460
1387 21
7256 340
9253 21
9451 21
6549 90
7695 86
9036 205
2089 144
4679 218
2854 33
1549 364
3573 175
1395 300
7266 182
7555 300
1396 376
1596 522
3888 376
7187 334
8920 310
8661 393
8958 86
9316 86
9732 86
1401 30
1484 30
6176 400
1402 178
3159 178
1687 381
7639 128
8789 80
1404 526
4067 526
5005 526
5830 526
6035 526
6227 526
7558 469
1405 516
6780 516
6885 516
6906 516
7227 516
7274 516
7312 516
7480 516
9390 255
1406 65
2348 65
2932 65
3312 65
4868 65
5149 65
8054 149
9139 87
9527 179
3340 427
9536 84
1513 430
8928 350
5444 9
1417 474
2758 474
2981 474
3206 274
4579 474
5883 474
6187 474
8776 205
2994 36
8092 123
3725 177
3329 97
7126 273
1423 39
3929 513
5176 39
5827 430
8333 58
8370 11
1425 454
5831 15
7811 182
8578 19
7211 82
7920 146
1427 468
4677 468
7099 266
7978 51
9561 90
6664 11
6811 404
7037 397
1430 9
2363 183
7456 9
1431 1
3797 1
5282 1
2745 417
5418 411
7505 152
1433 465
3533 465
4889 9
5884 401
8533 193
8170 112
8217 23
1435 508
4950 79
7252 151
1437 350
6421 350
7131 310
8902 350
9210 301
3546 534
9518 7
1440 2
8686 54
6744 193
8118 155
8278 347
1445 54
1779 318
8120 54
8256 54
9869 54
7841 104
8185 104
9025 104
9670 104
5614 22
5031 396
8183 289
9207 246
6188 69
8052 17
9876 90
1452 234
6863 234
7246 234
7394 234
7413 109
7574 234
7904 234
5934 3
6395 15
1454 321
3068 321
4461 321
1788 340
9659 84
1457 485
1649 485
1887 485
3120 485
3489 485
4594 485
8015 128
9643 79
5989 343
1460 259
5459 259
6688 259
4644 139
1462 178
9415 179
1464 500
3518 500
5291 500
2664 81
6240 393
9492 193
1639 96
2132 96
6916 411
9722 21
1469 46
3874 46
4557 496
4688 46
6905 46
1470 166
2017 166
3584 499
6553 139
6472 343
1472 140
5862 513
8494 140
8573 140
9285 140
9346 140
1473 68
9862 11
5656 296
6936 449
7213 449
7322 449
7731 115
7883 449
8040 449
8190 449
1475 444
3445 444
4186 444
4857 444
6271 44
1476 228
1641 228
3932 533
4259 228
5683 70
5917 70
1478 194
7915 270
1480 270
7908 270
8691 270
1481 316
4105 316
5698 316
5732 316
9364 296
6402 516
1971 247
5043 86
6100 14
1805 249
1494 483
6348 80
9767 179
8558 19
9032 152
5793 22
8312 22
8324 22
8634 22
7798 248
1500 206
2839 206
7393 200
4606 148
1502 363
3581 363
4611 340
5324 112
9945 79
1503 329
6982 18
8201 329
7751 479
1505 212
1506 44
6151 44
7891 44
1508 356
3540 356
4851 356
5373 356
7810 106
6163 421
7533 421
9067 6
6095 453
6184 219
6704 430
6737 430
7110 159
7154 430
7353 430
7546 430
7752 430
8679 205
5597 510
6763 310
9280 80
5553 246
1567 211
5178 478
8515 7
7042 7
1520 308
2313 395
5650 308
7019 308
8834 112
1521 7
9179 7
9581 7
9831 7
7740 528
4238 136
8041 378
9030 301
6873 224
1527 243
2805 243
3492 243
5606 204
8153 205
1662 47
1852 34
1572 188
8907 132
7796 297
1536 135
1809 135
2872 135
5113 200
4534 131
6046 80
9585 205
1539 65
5454 90
2705 490
3053 482
9033 219
5508 415
7911 25
6550 236
5061 260
6295 373
1751 469
4374 364
4408 364
5182 364
5200 364
5866 364
1552 190
9837 33
6410 7
9149 11
8895 104
5851 463
1557 177
3947 177
5720 86
7139 395
2183 153
2509 153
5964 77
8964 54
4570 513
6586 277
1645 520
1677 296
2841 520
6258 106
8682 343
9369 343
7775 149
5070 253
7835 469
7975 293
2751 503
5929 79
9972 148
2671 431
5688 255
8596 123
7858 255
7839 123
9058 246
1580 3
8462 132
7588 275
9896 149
1584 274
4272 274
7050 156
2015 250
7188 396
7596 478
8339 148
6039 76
9248 11
1589 482
2904 482
1591 533
2881 533
6092 277
7262 219
3261 368
8719 212
1594 410
3183 252
6104 410
5155 251
6144 251
7228 398
2503 522
9658 104
6341 10
9144 112
6223 106
1599 273
4200 191
7082 347
7336 273
7474 273
7583 273
7675 273
8447 104
1600 355
5542 455
5829 82
6826 179
6379 346
1698 490
7399 18
7408 18
7460 18
7463 18
7605 18
9909 179
1606 14
7366 14
7781 57
8048 14
8308 14
8823 151
6162 148
9311 151
9407 106
9418 301
1615 497
3232 497
5516 497
7466 275
2717 59
4598 451
9413 19
4651 156
5130 498
5431 498
5651 498
8880 58
9429 26
2415 289
6929 260
7968 289
8014 289
1621 448
2430 448
1623 301
8708 301
8983 301
1624 6
2864 1
9872 6
2328 65
8395 215
5439 277
7889 281
9138 281
9264 281
9308 281
2298 453
1630 451
4444 451
5263 451
5287 451
5886 451
7080 205
1631 410
7967 224
8714 350
4772 301
7483 215
1635 144
7127 144
9244 3
1636 110
3008 110
6417 420
7521 246
4098 348
3904 176
9117 6
2062 93
3047 93
4495 93
5037 93
6972 250
7219 368
7542 212
7232 132
1643 251
4882 396
5386 161
2110 389
8673 83
1778 520
2919 520
6415 238
1646 17
4033 93
8066 17
8226 17
8536 17
5927 415
1648 204
5819 455
6598 204
2516 485
3171 485
8382 347
9446 87
6674 411
8625 384
2975 352
5640 194
7412 156
5403 420
8745 158
7877 77
1658 356
5786 85
9440 156
3421 346
1661 6
6655 6
8114 140
8122 6
9825 6
7021 237
8466 47
8620 47
9232 47
7152 246
9478 193
9679 11
8168 11
4257 400
1667 358
3831 358
5567 89
1669 179
1763 179
8999 179
9686 179
6700 174
8899 149
8637 83
1673 261
2377 422
2623 261
3565 261
4831 510
8197 149
6245 456
9246 296
9669 296
9931 296
10000 296
5718 456
8739 51
8796 194
3551 452
1682 158
6545 397
8232 393
9289 158
9408 158
9768 7
6369 248
9938 23
1685 136
8279 479
2776 514
3291 514
5021 514
5583 514
1919 381
7585 104
8264 79
9200 26
1688 66
4762 66
1690 26
6689 340
7677 26
9187 26
9519 26
1691 100
2908 100
1692 299
5986 299
6587 83
1696 232
7656 54
8543 54
9100 255
8994 156
1704 512
2418 512
2775 512
4486 512
4956 512
5392 512
8963 63
1705 142
3370 516
3674 393
1706 466
2969 466
3776 22
6623 183
1707 172
2548 327
6955 172
7345 172
1708 466
2007 466
2511 223
7954 310
8250 288
8815 288
1712 451
2315 451
4873 451
9142 219
1714 356
3917 356
4369 342
6010 281
5796 329
8975 41
5140 416
9353 132
2966 242
1720 287
9070 76
3949 86
9849 51
1723 290
1725 290
9861 255
6876 69
2135 290
4282 224
1868 342
7826 281
6734 528
8557 128
2947 376
6599 411
8230 219
7043 82
6718 191
8808 373
8000 130
4639 473
7996 25
1737 161
4465 148
7530 179
8721 161
9059 161
3550 475
3619 37
2572 171
2569 286
3424 191
6377 297
9205 297
1748 511
7870 511
8335 511
8348 511
8353 511
7255 90
8560 155
9508 80
6101 51
9243 80
7611 469
8173 469
8295 469
6080 33
9619 193
6099 41
6770 273
9698 149
1757 513
4607 513
5979 513
6453 513
7692 340
7107 131
1761 126
2036 260
3655 126
6789 179
9885 179
9782 21
1766 106
2477 512
2616 230
4353 9
7038 106
5676 17
7185 17
7289 17
9154 152
1771 90
6150 405
9733 90
1772 304
5551 42
9834 58
5366 86
8372 128
1777 270
2642 112
5529 140
2777 90
7618 395
7146 393
9001 393
9654 21
1785 400
2533 299
4747 400
6103 400
6293 400
4027 494
6014 340
7686 340
7326 494
2326 243
6604 140
1792 33
9190 33
9193 33
9424 33
9580 33
9996 33
1793 9
7459 9
9917 151
7115 346
6983 122
8377 173
8892 148
7981 82
6809 112
7842 149
9806 19
1801 435
6693 10
1804 36
8516 41
1807 495
8609 112
6594 79
8455 378
1810 6
7940 240
8001 281
5498 248
3607 221
3404 107
3754 9
6615 35
1819 174
4985 174
6003 174
7721 82
8179 131
7338 112
2922 521
6306 459
8326 329
6350 292
3555 480
9466 51
6606 35
6008 183
7838 420
2143 530
6741 140
6768 79
4143 87
7331 11
6696 327
8852 334
4982 18
5208 264
1854 38
8678 219
2125 324
3125 324
1845 16
8297 205
1846 227
2085 227
2581 227
3372 227
6042 310
8893 212
1847 532
6771 114
6913 384
3911 86
1849 474
3348 474
4440 474
7295 430
5730 437
7288 80
3992 255
6380 89
9372 205
9591 3
1855 240
9499 240
9624 240
9836 240
9894 240
8690 80
6311 58
2721 274
9249 205
8078 277
9986 23
3026 20
9483 7
1871 275
8222 275
8635 275
8671 275
7245 57
1875 254
3143 254
8911 23
1878 80
3612 259
5860 347
7231 80
8019 80
8692 80
9785 80
9867 80
1991 421
1880 437
5081 437
5085 437
7390 350
8669 79
9453 109
4826 378
8051 22
2700 455
8555 179
1883 17
2657 182
5820 17
1885 46
5767 44
6123 46
9016 7
2910 326
3448 326
4099 326
4445 326
9914 58
2636 83
7709 83
5983 327
5710 270
1895 265
2090 265
7965 26
6359 151
5848 516
8649 123
1900 85
5814 288
8480 194
1903 475
5977 152
1904 1
4870 1
9543 19
9563 106
9163 343
1906 254
1995 254
7622 47
1908 350
6089 3
2245 489
3004 489
3233 489
1912 103
7948 173
6352 511
7257 511
8149 80
8311 194
5947 58
6676 114
6959 161
5889 85
5895 69
7856 80
1923 244
4102 270
7880 130
2889 127
9014 109
3210 156
6933 310
6205 67
6174 151
2724 345
2690 388
4187 388
5213 205
9618 240
1937 482
7761 89
1938 129
2515 464
6708 129
6984 129
7122 129
8241 129
8325 109
1940 327
6116 327
6209 327
6447 327
6804 327
1941 77
7855 77
7928 114
9031 128
7578 396
8855 86
1946 355
1948 425
4702 425
4845 425
4888 425
5013 425
1951 448
2069 448
3651 448
5457 299
1954 61
2158 518
2924 379
3515 379
2555 253
3487 510
3239 328
4449 285
6818 328
1963 296
3894 266
6694 37
7298 329
1968 397
8115 397
8383 397
8500 397
8588 397
8594 397
9666 255
9088 41
8166 347
8501 41
1980 422
3442 422
1984 485
4262 327
9811 255
5063 200
1987 118
6650 118
7549 22
6443 268
8065 41
3033 73
6861 130
2356 149
9313 7
5556 260
2000 95
2170 95
4301 452
2009 238
3235 238
4949 238
8859 6
9907 151
2012 512
3241 218
2341 7
6875 3
7224 398
2016 192
8283 89
8656 310
2018 342
7493 89
2021 82
6990 513
2729 222
2907 222
5750 114
2025 307
7610 193
4095 77
8552 191
4058 187
2030 231
2273 231
8652 76
8794 128
7157 54
6513 307
2034 156
4341 3
9128 156
9752 156
6783 328
8526 260
2037 265
4819 526
9150 6
7490 173
8481 281
5521 137
8894 310
6834 151
7959 139
2042 264
4892 151
5938 264
6152 264
6264 264
2044 427
4428 306
6283 54
6574 200
9631 193
3981 146
5365 54
7575 310
8085 90
2049 360
3022 224
3670 360
4730 360
5935 447
8321 373
2050 51
8327 51
9000 51
9800 51
9809 51
7383 340
2053 528
6436 528
7351 528
7489 528
2054 90
7484 494
7579 90
9504 90
2056 234
5816 234
6106 275
2058 118
2059 347
8666 347
8940 347
9798 41
6381 48
8534 140
8619 158
2063 400
5297 400
6173 400
2066 450
6372 215
4178 90
7271 17
7570 132
2070 33
7817 33
8987 33
9240 33
9627 179
3620 526
4655 499
2072 106
2073 238
3180 238
6023 368
7003 478
7821 310
9071 58
2437 326
2077 136
6333 136
2483 337
9233 343
7407 90
8253 33
5981 443
9889 151
8651 87
8897 152
6824 144
8011 260
8454 58
8832 240
2891 206
5736 89
2094 87
8675 87
9756 87
9832 148
3813 289
6068 328
7648 205
8233 41
9309 19
9188 240
2099 498
5128 498
5327 498
8729 23
2718 428
3135 70
4489 446
7181 528
8314 112
8778 112
8579 7
2107 300
4988 300
6500 300
6199 430
5993 57
6766 57
9596 41
5773 69
9915 23
8921 148
6930 84
8856 128
7716 152
3707 111
2122 46
6160 21
2123 443
2431 324
2126 496
2351 451
2634 496
2127 224
4682 224
7989 224
2722 319
5906 230
7234 246
2130 368
6051 416
6998 131
7023 368
9533 86
4097 99
9863 7
7766 289
9355 86
2138 161
5374 161
6454 7
2139 144
9213 158
8030 109
2142 460
2501 460
4300 460
5320 460
5555 460
9049 293
7218 54
6907 109
9425 109
9481 373
5987 469
8073 469
9458 130
5242 21
9496 255
2150 489
2151 334
8219 89
8224 334
9231 148
9993 334
6452 325
5591 411
9877 21
2156 433
2911 433
3568 433
5877 433
6440 433
5825 528
2159 42
6675 21
4400 455
5818 301
4562 85
4706 437
2598 107
3877 14
6518 131
2518 397
2172 14
5120 511
8435 219
2175 147
8981 191
6991 374
9173 151
2180 310
5355 310
5959 293
6893 41
9116 79
6094 14
2185 193
4799 528
7069 397
7606 193
8885 193
9315 193
9334 193
8582 378
2189 347
7738 140
7945 347
8439 130
2192 102
4477 420
4082 90
7400 90
9335 6
2197 450
4233 450
8624 90
8780 384
4953 375
4294 54
7742 54
7785 54
8388 54
4181 104
2211 401
2213 393
7025 384
7349 393
8804 393
8946 393
9170 393
9365 334
3389 462
3494 462
6555 90
5421 301
2220 92
3665 92
4073 92
6498 69
6592 194
8381 106
6290 172
5898 44
8296 33
7014 15
8061 80
2235 221
2993 19
2240 328
4943 76
6286 328
7270 23
7472 224
6362 288
8735 21
2249 510
5368 510
5641 510
6049 510
6964 212
9464 33
2250 516
4673 6
6815 212
5039 268
7703 246
9465 86
9222 140
5052 46
6143 459
7452 84
6898 446
2262 404
4836 404
5569 404
5842 404
2265 377
6087 377
6631 377
7048 277
7848 277
7958 277
7966 277
5378 404
8705 158
8718 373
8191 152
5646 183
7209 183
9454 19
9267 179
2280 128
6564 415
7773 159
9294 128
9957 293
5892 372
3245 462
5092 33
2289 328
5515 328
6845 328
6860 449
8532 44
9212 63
2684 461
6148 90
7108 398
5318 19
5728 453
7701 87
8743 250
2302 516
5337 90
8701 205
5924 149
9450 334
5179 113
9382 19
2320 177
4283 430
7357 248
8570 90
7017 395
5973 123
5289 48
9838 86
8456 270
5101 456
5449 456
5497 456
5733 456
6071 456
5412 101
7437 449
2928 284
2695 216
4315 514
4922 41
5296 416
6055 129
2681 340
4451 166
3350 176
3365 176
4974 144
8044 393
4866 218
2337 205
9557 205
7005 51
2339 121
2762 250
3649 347
5510 121
6810 121
7795 173
2340 340
8746 250
9910 255
2552 243
7362 90
6259 464
7806 89
7879 131
3298 441
9226 156
5691 368
5744 368
6969 368
9911 19
7822 84
5210 159
6813 181
8689 149
6484 319
7223 148
7679 173
2874 292
4075 18
8033 7
5873 112
8968 158
5074 259
6510 17
8205 260
2371 183
5204 183
7006 139
8757 378
2373 308
2586 114
6842 308
9847 179
8029 384
5249 475
9283 343
8302 193
2386 18
6643 131
7170 18
7285 18
2388 320
4179 320
6213 306
4684 172
2976 503
5348 334
6839 225
2396 364
2918 364
4407 364
5476 364
8419 378
6968 469
8144 44
5874 104
6308 86
5926 329
7933 350
5466 224
7308 19
6307 137
2416 405
5309 405
5538 405
7638 158
5928 25
2422 273
7912 219
8284 111
6419 69
4825 460
8099 149
2428 197
5023 197
6043 197
9703 106
2432 108
5301 108
8091 108
2875 16
2436 462
3204 326
5714 246
2574 473
4852 456
5910 181
5246 392
8336 334
2447 281
9112 281
2448 463
2449 179
6501 288
6795 139
7136 179
8583 179
9473 179
7819 346
2454 75
4732 111
7199 215
7863 281
2459 343
9195 343
2462 217
5394 223
5580 319
7455 266
8258 58
4493 129
3853 327
5136 327
5280 327
7026 396
2472 197
6269 197
6282 197
6332 224
7379 197
7092 63
2478 73
5455 73
6577 449
7361 35
5017 306
8603 76
2870 256
2485 46
4183 46
7045 393
4854 446
4951 393
5343 18
7871 255
2829 100
7641 115
7406 86
9217 194
6980 297
4791 415
7934 86
7947 306
8731 306
7016 37
2505 314
3191 204
5747 314
6246 314
2787 114
5852 79
6060 332
5103 223
5969 63
5325 76
4775 299
3054 464
4385 464
4905 464
7718 253
5706 208
7054 397
2519 479
6926 15
7186 69
7516 236
4565 375
4218 114
5847 128
7655 128
8362 128
9095 128
2530 225
5442 35
6305 225
9182 54
4790 377
2540 513
4837 513
5342 415
5666 513
9208 148
6728 421
3646 496
7479 494
6843 21
9515 80
2554 215
7511 205
8519 215
7217 253
7732 343
7809 253
7059 14
7581 224
6981 156
5248 84
6901 273
7415 194
6987 25
2566 399
4555 399
5855 399
8130 158
8210 384
6446 374
4884 446
5346 446
5988 446
6405 446
6682 446
7885 155
6867 346
2573 129
6343 129
6948 129
5006 473
2575 11
8116 83
9803 11
2577 392
6085 396
4422 230
5598 297
8444 63
2584 352
4989 114
6668 114
7376 260
5950 90
2588 460
6730 179
8845 212
8187 224
7972 140
3498 204
3050 123
4599 51
2599 69
6825 69
3072 329
8934 106
9099 193
5132 179
6585 300
8531 306
7046 200
8809 156
9120 293
8816 80
8837 41
7079 139
8180 139
8237 139
8316 139
8005 179
3051 413
2621 526
7495 33
2626 239
2930 239
3083 217
7471 277
2628 455
2953 455
4355 455
5183 455
5615 455
6725 33
7422 494
3898 36
6242 307
8616 6
7587 17
8747 83
9107 83
2638 400
2970 400
8936 112
8973 112
8281 219
2644 372
5328 384
4822 310
7906 373
8797 130
9941 58
8036 63
7164 478
6263 6
2665 397
2670 281
9002 281
6356 129
2676 392
2725 392
2677 321
4971 510
6527 275
6198 148
9587 148
2827 413
3229 413
6231 340
6027 26
6685 240
4275 92
8366 151
6013 395
4487 115
9569 23
2691 375
8310 23
5645 69
5729 234
8820 111
5703 279
4519 449
5227 289
4151 455
9203 152
6887 384
9512 130
7251 15
8707 19
4506 87
7304 21
8203 411
6460 84
8422 47
6571 215
2716 123
4317 364
5662 123
7723 59
8429 59
3234 428
9671 86
2720 516
3785 274
4228 392
7895 173
2727 19
2728 373
7419 152
8672 373
9325 373
7149 281
2730 21
6291 21
6922 146
2739 129
5613 129
8268 129
8340 87
7260 373
2743 163
4430 163
5931 163
2744 63
7467 63
9793 63
8916 293
9555 63
2750 250
2752 41
6273 260
8434 41
9256 41
9755 41
7156 511
2754 391
4211 391
4798 391
5247 391
5477 391
5525 391
2755 155
8192 155
2756 421
6002 421
6277 421
4398 23
8866 250
5164 51
8049 101
2768 266
7058 266
7979 266
5621 200
4623 446
3564 514
4457 510
5010 275
6692 137
9133 90
9510 90
2779 253
6719 253
2780 122
5748 122
9745 148
2783 10
4038 500
7458 10
8167 384
3172 252
9269 179
9899 23
7465 51
2792 106
2793 179
8869 384
8917 179
9539 179
6751 26
9127 89
6461 151
8405 288
8628 79
3928 347
2804 132
7350 84
8246 334
6778 296
2806 331
3106 331
2809 255
7801 306
8740 86
8107 111
3683 212
8025 347
2812 300
6803 234
6931 191
7401 288
3020 301
2817 194
5872 224
8012 149
7953 343
2825 226
4750 226
8208 240
5951 35
3686 100
7143 11
4446 69
8704 84
4086 26
9760 7
8369 306
4517 63
4954 217
7903 6
7009 128
2973 325
4410 128
6507 62
9486 54
2858 43
3864 204
9006 140
6640 41
6711 246
2860 120
7057 219
7253 80
2866 236
7518 57
5850 246
8357 79
4206 292
9106 80
7158 255
4783 461
7052 511
4690 161
9141 158
2884 217
4906 217
2887 532
7233 346
5381 23
8331 152
5817 137
7128 6
4084 433
7314 234
9339 6
9005 41
9821 79
6425 82
8538 293
5317 433
7929 54
3826 225
3503 187
6967 106
8164 63
2936 534
8858 23
8442 26
4727 376
6257 118
7527 255
2954 255
8630 255
3615 427
2956 433
5581 433
7130 173
6244 181
6155 86
8488 248
3571 67
3412 84
5870 128
6600 194
7869 350
2971 259
5393 259
6644 101
6774 197
6993 325
7473 325
6974 416
3769 329
5826 163
5952 41
3398 225
6329 478
8766 293
7008 115
5792 80
7388 19
5549 36
7683 36
8607 33
8159 384
7391 62
4170 299
9389 240
6120 378
7027 416
8259 301
3012 252
4107 252
8559 89
3014 15
7343 15
7851 15
5528 316
3996 114
8367 301
3891 212
6368 224
3790 20
5999 416
9401 21
5644 332
3032 208
3875 35
6864 205
7957 84
8864 51
9223 11
7296 329
5809 494
7193 123
5978 464
6928 106
6859 149
4008 469
5791 396
8265 33
3731 285
4309 285
6178 296
3783 54
6871 47
6387 374
3071 452
6528 452
8359 306
8575 23
8475 191
6772 47
8857 212
9394 19
3080 152
4458 264
9287 6
8400 54
5593 224
6149 310
3092 250
8255 152
7321 26
9126 373
8491 80
7888 130
7800 132
3103 140
8851 140
9022 140
5069 374
5663 18
4872 7
6616 54
8738 26
6342 41
3288 514
9321 58
3124 391
3516 391
4425 146
5932 155
3959 166
4291 501
5533 191
3132 182
3134 202
3136 106
3165 48
5911 106
4786 270
7239 288
6817 270
7051 151
6131 346
3148 463
8887 148
8664 219
6067 478
8978 54
3153 54
7831 44
3154 268
6225 268
6337 268
7033 268
8906 80
5462 194
7144 84
6673 396
7770 63
6681 48
7976 48
7991 48
3768 83
4108 87
4163 208
7102 306
8577 270
9820 19
3175 372
4595 416
9189 3
7049 109
9003 248
3192 7
5632 415
5453 39
5505 39
3202 473
6077 449
8647 104
4627 274
6519 101
6938 77
6596 449
3211 332
4923 332
3212 139
6976 479
5310 42
3218 320
6536 511
4244 139
3341 238
4965 273
7927 191
4236 218
7646 396
5375 121
3251 499
3252 146
4963 62
7155 146
7621 146
3255 70
3260 59
3994 237
4522 511
5976 411
4647 314
3276 48
7113 48
8140 193
5654 270
6713 240
8093 82
4041 514
6647 377
9422 7
8490 334
3958 325
5363 463
3305 62
6336 62
6978 416
7002 396
8380 275
3315 248
3771 259
5419 104
7749 22
4053 181
8108 396
3321 415
5998 415
3325 393
4693 131
8824 393
3330 316
3331 460
8363 47
3336 346
4911 62
8212 346
6433 23
6493 106
8098 26
3586 59
7421 37
4521 112
5040 253
4957 459
5962 459
7032 479
9075 79
7449 79
3368 86
6434 121
3378 236
3379 246
6702 149
9636 7
3423 425
3388 277
7167 511
7878 277
7667 301
5255 332
4452 347
9497 179
4362 297
4823 479
8426 111
8499 104
8948 86
7444 57
3409 398
6226 398
7119 398
9853 21
7632 248
8291 106
7229 139
6777 346
9699 33
8865 191
8890 191
6946 83
5564 416
6267 101
5490 346
9118 44
8271 11
7355 80
4540 139
7134 288
3464 469
6441 123
7241 109
9409 80
4276 360
3474 17
6996 80
3740 409
6386 368
3931 510
3488 433
5980 155
8827 205
9338 296
3493 169
6248 478
5105 41
5544 111
7745 430
3496 73
5304 399
6567 22
3502 63
6648 106
3509 101
5426 300
4322 253
6156 172
3528 122
5970 122
7018 122
8648 148
8492 128
8186 63
6919 123
7416 22
5513 288
7111 246
5159 174
6430 478
8791 54
5504 475
3765 452
9427 240
5778 108
7724 129
9852 11
6083 7
8952 255
9770 179
3574 67
4126 67
6363 469
8188 80
7714 59
4468 76
8189 3
3634 494
8615 79
7147 128
8344 219
3611 281
7397 281
3613 101
6463 80
7411 37
6505 306
6022 51
6715 494
6732 494
7176 494
6632 106
5882 76
3982 108
8547 132
7702 347
7243 255
6464 159
4064 92
3666 43
4634 43
7833 41
6211 430
3668 399
6312 181
3915 397
3681 48
6542 215
8872 219
9814 193
4328 237
9953 90
8564 156
6192 6
4354 275
3714 307
6572 307
7755 293
9130 193
3726 329
7268 21
4850 166
6129 166
9056 87
3737 456
4269 437
5658 87
8244 350
8960 219
5293 325
3744 513
7754 212
6895 494
5991 223
6558 297
3749 513
7138 149
3756 70
3758 146
6868 293
7086 156
6304 86
7206 350
4460 452
6287 83
5415 329
7670 329
4820 104
9354 26
6950 179
5622 22
7582 84
6019 266
7328 430
7036 248
7614 54
8155 250
8752 191
6951 54
6814 266
3798 139
6743 246
9470 21
4372 128
8479 106
3814 104
3818 384
9277 384
8165 179
5479 237
5502 197
5432 19
4806 349
7576 396
8614 104
3933 21
4119 372
7553 41
4948 248
9312 104
9640 79
3859 449
6483 112
8113 6
8330 130
5526 14
6479 430
3883 409
4088 409
3885 308
6755 308
8352 58
4551 41
5389 334
5196 137
3895 80
4028 296
6190 277
3910 25
5902 296
5763 250
3914 114
5661 114
6525 114
3971 325
4969 374
3921 59
3923 459
9882 293
3926 205
6611 343
5270 80
4809 212
9054 11
4145 89
5660 223
5121 246
7359 246
3950 300
4154 226
5100 149
5126 112
3957 112
5627 47
4987 398
5764 398
9987 90
5456 132
5671 343
6539 146
5020 398
3983 54
8643 420
6294 151
7962 47
3989 528
6590 219
4964 121
6403 246
5876 459
8103 219
8792 219
8969 219
9270 219
4014 511
7141 511
4020 494
5922 494
8847 296
6954 246
9074 151
6601 77
4037 410
4045 86
4117 273
9153 179
6548 181
7526 22
9656 334
7203 128
8106 240
8356 11
4078 478
6829 396
7691 301
8568 26
7319 19
6351 80
7291 77
4100 108
8270 41
5233 19
5788 77
6680 528
7302 51
4129 67
4869 163
5283 69
7693 281
8835 89
9108 89
6872 84
6315 404
6448 279
4171 139
7402 148
8401 151
6705 90
4207 115
8811 193
8770 149
5252 57
4224 193
7988 191
4242 140
7055 159
8522 79
4258 373
6365 350
9954 58
4277 85
7828 215
6537 240
6335 15
4384 374
8765 63
4321 161
5268 269
4958 26
4973 253
8438 26
7837 86
8513 44
4340 182
6726 26
8084 255
8838 297
6798 82
7757 151
4377 420
8329 420
5785 374
7689 194
5919 289
8877 23
9828 23
5019 225
9602 58
5435 3
9055 51
8018 306
5308 163
6261 163
7423 132
4432 319
6281 319
5605 44
7301 411
4441 84
6052 155
8351 63
4447 111
4637 332
4456 443
4511 443
5011 264
7711 111
4469 130
9274 130
5315 307
6473 10
7604 37
4678 446
5064 446
5787 446
5713 35
9221 240
7360 58
4514 18
6069 18
6418 301
8225 131
8626 58
5501 57
7398 288
5436 66
8157 23
6091 395
7340 219
6854 279
5237 300
6764 51
6086 7
4657 11
4914 449
7065 416
4609 334
4612 59
4615 260
8251 248
7294 334
7194 240
4778 289
4636 498
5106 498
5617 26
6117 255
6007 314
6812 314
7881 384
8790 156
6360 151
8129 173
9455 11
5575 172
5266 115
5843 112
4716 269
7445 182
7694 76
4725 7
6475 152
7166 193
6487 111
4740 86
5267 268
4753 421
9148 296
4766 415
4769 420
7760 420
4833 307
4779 66
5554 66
4785 479
5878 528
4800 42
4805 19
8623 148
8260 58
4830 89
5726 307
5385 297
6182 179
5102 80
8931 152
4867 130
7949 132
4874 314
4876 334
8764 288
4968 108
7488 3
7492 151
6488 334
6844 15
4908 76
5823 159
5172 435
9538 248
6044 296
8133 293
6349 155
7503 104
4977 297
6642 281
9037 86
5008 87
5018 23
5033 3
7557 296
5493 86
7654 350
5077 19
6058 47
6017 83
7303 106
7216 152
6422 416
8341 151
5146 86
9742 84
8654 80
5599 236
5201 293
6491 25
6233 343
5226 173
6672 146
6534 106
5278 378
7205 48
7510 182
6784 23
5316 194
9331 149
8741 41
6638 33
7825 44
5356 340
7485 11
5471 59
7436 411
7451 411
5473 151
7428 151
7705 89
6354 132
7354 58
6376 86
8512 191
5699 398
5486 104
5489 281
5719 87
5550 23
5603 234
6241 234
6747 234
5612 328
6238 255
5711 240
8581 58
7997 219
5948 152
8754 248
5738 148
5940 131
5801 76
5956 296
5839 11
5867 26
7704 7
5930 90
6000 212
6482 310
6109 132
6142 54
6177 41
6547 132
6608 109
7191 83
6322 212
7286 212
8238 296
7913 90
6426 397
6790 23
6450 130
7727 130
6552 109
7707 23
7556 140
6722 54
6724 76
7631 205
