1 0
2484 1
3003 0
3352 0
4590 0
4598 0
4669 0
4760 0
5019 0
5314 0
9838 2
2 3
3467 3
4259 3
4599 4
4780 3
4850 3
5145 3
5322 5
5541 3
5555 3
5840 3
3 6
1218 6
1993 6
2478 6
2893 6
3099 6
3135 6
3508 6
6932 7
7854 8
9365 9
4 10
236 10
1828 10
1925 10
1979 10
2080 10
2093 10
2509 10
2915 10
6873 11
9300 12
5 13
108 14
4876 13
4886 13
5147 13
5598 13
5678 13
5693 13
6077 13
6186 13
8976 15
6 16
698 16
797 16
1050 16
1237 16
1803 16
1840 16
1854 16
2789 16
7158 17
9281 18
7 19
413 19
970 19
1019 19
1099 19
1559 19
1953 19
2166 19
2369 19
2950 20
6090 21
8 22
499 22
615 22
732 22
834 22
1128 22
1681 22
1842 22
2430 22
4047 23
7212 24
9 25
897 25
1225 26
2372 25
2544 25
2596 25
2881 25
2973 25
3281 25
3624 25
9890 27
10 28
2601 29
3271 28
3378 30
5364 28
5685 28
5798 28
5847 28
6109 28
6484 28
6991 28
11 31
299 31
513 31
822 31
972 31
1458 31
1658 31
1721 31
2550 31
7657 32
8120 33
12 34
631 34
776 34
1679 34
2061 34
2302 34
2466 34
2719 34
3165 34
7160 35
7696 36
13 37
22 37
322 37
353 37
536 37
1176 37
1813 37
1990 37
2757 37
5884 38
9834 12
14 39
111 39
164 39
584 39
1166 39
1506 39
1552 39
1742 39
2682 39
7850 40
8705 41
15 42
315 42
936 42
976 42
1224 42
1608 42
1750 42
1864 42
2251 42
7678 43
9269 40
16 44
1124 44
4106 44
4258 44
4826 44
4939 44
5072 44
5304 44
5667 44
5829 11
9356 45
17 46
110 46
127 46
1010 46
2264 46
2504 46
2505 46
2569 46
2842 46
6405 47
9783 48
18 49
2116 50
3785 49
3898 51
4453 49
4604 49
4680 49
4714 49
4819 49
5315 49
5369 49
19 52
79 52
476 52
841 52
864 52
1154 52
1773 52
2646 52
2839 52
8230 53
9859 8
20 54
2111 54
2688 54
3137 54
3884 54
3905 54
3953 54
4495 54
4792 54
5928 7
9723 55
21 56
2165 56
2330 56
3600 56
3907 56
3938 56
4004 56
4321 56
4838 56
5652 57
6946 58
401 37
716 59
7184 9
23 60
617 60
1088 60
1586 60
2482 61
2567 60
3037 60
3596 60
3845 60
4274 60
5672 62
24 63
151 63
368 63
722 63
1011 63
1062 63
1732 63
2178 63
2898 63
8938 8
9670 64
25 65
75 65
150 65
291 65
696 65
1384 65
1406 65
1643 65
2831 65
7036 66
9429 67
26 68
36 68
1064 68
1282 68
1300 68
1531 68
1635 68
1641 68
2575 68
3555 69
9441 70
27 71
599 71
673 72
949 71
1689 71
1734 71
2028 71
2146 71
2148 71
2255 71
7964 58
28 73
167 73
665 73
953 73
963 73
971 73
1749 73
1756 73
1847 73
4438 74
4830 75
29 76
1887 76
2804 76
3084 76
3140 76
3820 76
3956 76
4151 76
4288 76
9059 77
9932 78
30 79
58 80
243 79
461 79
1084 79
1399 79
1678 79
1707 79
2050 79
2149 79
7785 81
31 73
103 73
373 73
487 73
885 73
1234 73
1296 73
2036 73
2071 73
2284 73
4231 82
32 83
45 83
606 83
684 83
783 83
1587 83
1693 83
1767 83
2816 83
3770 84
8585 85
33 86
445 86
689 86
724 86
1413 86
1677 86
2054 86
2112 86
2638 86
4277 87
9076 88
34 89
246 89
262 89
378 89
443 89
500 89
569 89
1455 89
2173 89
7515 27
35 90
1025 90
3757 91
3924 90
4213 92
4991 90
5352 90
5566 90
6130 90
6640 90
7094 90
918 68
2611 68
9053 70
37 93
1645 93
2106 93
2696 94
3514 93
3747 93
4154 93
4178 93
4301 93
4552 93
38 95
314 95
720 95
862 95
1205 95
1472 95
1727 95
1963 95
2045 14
2945 95
9153 96
39 97
1532 97
3616 97
3702 97
3719 97
4253 97
4575 97
4683 97
5246 97
6290 98
8184 99
40 100
2574 101
7155 100
7780 100
8033 100
8072 100
8107 100
8137 100
8240 100
8243 100
9987 102
41 103
658 103
681 103
740 103
1196 103
1357 103
1796 103
2145 103
2370 103
5760 104
9496 48
42 105
63 105
462 105
1580 105
1910 105
2957 105
3000 105
3199 105
3361 105
6192 67
9384 27
43 106
5193 106
5758 106
5887 106
6087 106
6122 106
6328 106
6749 106
6805 106
9098 9
9622 107
44 108
82 108
174 108
492 108
1273 108
1845 108
2137 108
2965 108
3059 108
4411 109
9317 110
344 83
7424 111
8728 112
46 113
2336 113
2636 113
3172 113
3351 113
3507 113
3686 113
4017 113
4236 113
6106 114
7596 115
47 116
472 116
1822 116
2129 116
2309 116
2777 117
3128 116
3312 116
3904 116
4010 116
7268 118
48 119
1647 119
2934 119
3158 119
4163 119
4241 119
4318 119
4668 119
4702 119
6426 120
9536 107
49 121
4943 121
5446 121
5460 121
5524 121
5583 121
5654 121
5859 121
5865 121
6626 100
8312 122
50 123
746 123
1093 123
3186 123
3309 123
3572 123
3868 123
4008 123
4804 123
4812 123
9513 48
51 124
5231 124
5683 124
6021 124
6396 124
6466 124
6589 124
6819 124
7061 124
8898 45
9952 45
52 125
983 125
1211 125
2300 125
2824 125
3141 125
3932 125
4024 125
4072 125
7423 126
8450 127
53 128
1861 129
2460 128
3324 128
4089 128
4146 128
4272 128
4330 128
4768 128
5043 128
8723 130
54 94
115 94
697 94
1122 94
1668 94
1833 94
2179 94
2404 94
4569 131
7402 132
55 133
662 133
1870 133
1944 134
2247 133
3108 133
3407 133
3471 133
3768 133
4090 133
9002 135
56 136
207 136
468 136
2064 136
2193 136
2243 137
2364 136
2859 136
2879 136
3411 136
6120 138
57 139
2436 139
3029 139
3154 139
4425 139
4433 139
4457 139
4503 139
4875 139
6552 140
9233 18
153 80
825 80
1082 80
1177 80
1550 80
2174 80
2532 80
2766 80
9242 66
59 141
270 141
354 141
365 141
747 141
1670 141
1671 141
1772 141
2640 141
6752 104
60 50
1509 50
1916 50
2301 50
3301 50
3338 50
3523 50
3655 50
3959 50
4230 50
4914 142
61 143
334 143
448 143
2128 143
2385 143
2560 143
2778 143
3494 143
3565 143
5744 144
6470 70
62 145
210 145
281 145
360 145
504 145
906 145
1110 145
1121 145
1525 145
1706 146
2273 145
2150 105
5332 147
7289 148
64 149
787 150
3876 149
3883 149
4031 149
4356 149
4402 149
4416 149
4475 149
4698 149
6889 151
65 152
177 152
349 152
466 152
531 152
633 152
1034 152
1899 152
2683 152
5982 142
9198 11
66 153
2024 154
3027 153
3574 153
3987 153
4923 153
4967 153
5073 153
5116 153
5550 153
67 155
519 155
664 155
706 155
1435 155
1464 155
1504 155
1720 155
2647 155
3222 156
3524 69
68 92
306 92
2389 92
3150 92
3446 92
3869 92
3917 92
4088 92
6904 107
8718 27
69 157
1359 157
1417 157
1652 157
1696 157
1791 157
2046 157
2076 157
2090 157
4027 158
4903 159
70 160
715 161
1261 160
1368 160
1516 160
1753 160
2291 160
2333 160
2968 160
6160 112
9035 47
71 162
703 162
1371 162
1519 162
1694 163
1826 162
1841 162
1982 162
2065 162
2070 162
8960 70
72 164
2635 164
2884 164
3217 164
3323 164
3328 164
3625 164
4022 164
4299 164
6244 165
8003 48
73 166
2702 166
3670 166
3871 166
3998 166
4222 166
4225 166
4226 166
4234 166
7613 30
9492 126
74 167
640 167
704 167
1332 167
1382 167
1460 167
1760 167
1949 167
2120 167
4873 168
6182 169
318 170
548 171
1119 65
76 129
91 129
948 129
1145 129
1253 129
1800 129
2030 129
2269 129
3840 75
8563 112
77 172
726 172
1178 172
1179 173
1378 172
1893 172
2265 172
2332 172
2555 172
2809 172
7624 8
78 129
279 129
347 93
370 129
371 129
1440 129
1913 129
2063 129
2109 129
2442 129
8142 115
175 52
7650 174
9709 64
80 175
881 175
1074 175
1251 175
1414 175
1522 175
1738 175
1871 175
2114 175
5060 176
8287 107
81 177
1054 178
2820 177
3376 177
4050 177
4624 177
5161 177
5208 177
5278 177
5381 177
6490 120
357 108
745 108
1388 179
8050 110
83 180
275 180
525 180
807 180
1880 180
1997 180
2491 180
2527 180
3425 180
4372 181
9144 11
84 50
101 50
920 50
1342 50
1351 50
1362 50
1429 50
2836 50
4802 12
7676 27
85 182
586 182
2278 182
2405 182
2813 182
3194 182
3282 182
3996 182
4212 182
9514 183
9957 27
86 184
297 184
539 184
2236 184
2455 184
2717 184
2951 184
3363 184
3393 184
6679 144
9065 135
87 83
305 83
641 83
781 83
805 83
1053 83
1072 83
1181 83
1981 83
6804 185
9310 186
88 187
749 188
755 19
1058 187
1200 187
1257 187
1323 187
1396 187
1543 187
1655 187
2203 187
89 189
607 189
966 189
1865 189
3605 189
3619 189
3931 189
4056 189
4209 189
4639 190
5894 8
90 191
2009 191
2321 191
2886 191
2904 191
2972 191
3134 191
3427 191
3570 191
8408 183
8739 8
396 129
4019 192
7746 193
92 84
252 194
933 195
4655 84
4971 84
5397 84
5501 84
5616 84
6229 84
6309 84
6572 84
93 196
1113 196
1311 196
1524 196
1542 196
1839 196
2257 196
3366 196
3458 196
3866 197
6226 198
94 10
206 10
1221 10
1255 10
1355 10
1465 10
1606 10
1831 10
2425 10
7209 135
95 199
1339 199
3389 199
3796 200
4145 199
4449 199
4511 82
4534 199
4663 199
4951 199
96 141
6898 201
9393 78
97 202
558 202
1389 202
1584 202
1724 202
1878 202
2249 202
3347 202
3395 202
3851 203
8536 204
98 205
138 205
480 205
1245 205
1263 205
1566 205
1940 205
1977 205
2183 205
3603 206
8651 207
99 208
118 208
358 208
1169 208
1595 208
1950 208
2164 208
2198 208
2799 208
6154 30
7348 209
100 210
522 5
2426 210
3674 210
3746 210
4025 210
4049 210
4505 210
4806 210
5037 210
9958 64
829 50
6528 211
9159 212
102 213
160 213
533 213
639 213
712 213
1003 213
1125 213
1150 213
1983 213
7471 214
2341 215
5020 216
104 34
128 34
2540 217
3201 17
105 218
307 219
1805 218
2207 218
2340 218
2474 218
2552 218
2590 218
3152 218
3639 218
8793 99
106 220
2725 221
3797 220
3872 220
3890 220
4138 220
4633 220
4637 220
5298 220
5365 220
107 222
168 222
537 222
833 222
2235 222
2608 222
2790 222
2987 222
3401 222
7085 12
9969 64
122 14
155 14
535 14
1030 14
1381 14
1626 14
1666 14
2295 14
6451 62
109 223
3557 224
5168 223
5477 223
6272 223
6478 223
6730 223
6783 223
6886 223
7054 223
8119 11
759 46
1808 46
7463 225
9648 64
333 39
5341 57
112 226
6123 226
7202 226
7226 226
7882 226
7944 226
7988 226
8067 226
8201 226
9068 135
113 227
442 227
1027 227
1243 227
1492 228
1708 227
2018 227
2101 227
2171 227
2494 227
114 229
232 229
554 229
854 229
1185 229
1480 229
2410 229
2553 229
2849 229
5261 173
5316 230
337 94
4479 31
9769 8
116 231
3053 232
4489 231
4796 233
6252 231
6326 231
6486 231
6487 231
6488 231
6545 231
6579 231
117 234
1470 235
1690 234
3036 234
3632 234
3648 234
3789 234
3920 234
3983 234
4245 234
9096 207
887 208
7079 236
8409 237
119 238
508 239
2517 238
3819 238
4162 221
4186 238
4772 238
4911 238
5283 238
5544 238
5653 238
120 240
225 240
234 240
276 240
352 240
540 240
1168 240
1212 240
1729 240
6532 38
7998 241
121 170
194 170
824 170
1792 170
2669 170
2779 170
2803 170
2841 170
4332 242
7394 243
394 14
1511 14
123 244
1483 245
2290 244
2355 244
2571 244
2581 244
2660 244
2807 244
3230 244
3607 244
9090 186
124 246
1867 247
2929 246
2975 246
3792 246
4235 246
4248 246
4429 246
4532 246
4695 246
125 248
1373 249
3834 248
4451 248
4533 248
4994 57
5066 248
5169 248
5282 248
5301 248
5362 248
126 215
981 215
1439 215
1931 215
3237 215
3622 215
3631 215
4005 215
7927 250
9729 8
1204 251
9509 107
2974 59
8717 48
129 252
2462 181
3023 252
4055 252
4603 252
4746 252
5128 252
5320 252
5464 252
6159 252
7057 253
130 205
6000 254
9895 255
131 256
634 256
1879 256
2320 256
3040 256
3874 138
4289 256
4307 256
4670 256
4723 256
9700 257
132 249
1252 249
2134 249
2743 128
2860 249
2907 249
3293 249
3485 249
3545 249
8030 258
133 196
7490 115
8746 259
134 260
5031 260
6158 260
6434 260
6438 260
6596 260
6659 260
6884 260
7121 260
135 247
136 247
159 247
624 247
1269 247
1607 247
1627 247
2398 247
6211 261
9448 47
926 188
1158 247
9688 48
137 262
4729 262
5752 262
6307 262
6593 262
6710 262
6775 262
6796 262
7116 262
9029 12
9274 263
4858 153
5875 264
139 265
256 265
505 265
994 265
1206 265
1485 265
1575 265
1884 265
2392 265
6712 204
7586 47
140 266
660 266
668 266
753 266
768 266
813 266
1233 266
1554 266
1686 266
3284 212
5399 267
141 268
699 268
1160 268
1277 268
1443 268
1589 268
2275 268
2363 268
2792 268
5133 181
9751 8
142 269
5529 269
5732 269
5941 269
5961 269
6127 269
6417 269
6469 269
6582 269
8304 212
9329 8
143 270
1932 270
2480 270
2565 270
2737 270
2832 270
2967 270
3337 270
3591 270
6187 271
8774 132
144 128
1591 128
2029 128
2060 128
2418 128
2437 128
2882 128
3484 128
7699 259
145 29
329 29
693 29
945 29
978 29
988 29
1089 29
1318 29
2597 29
8237 257
8693 115
146 227
560 227
811 227
916 227
958 227
1280 227
1312 227
1380 227
1873 227
2053 227
8451 15
147 272
743 272
769 272
1370 272
1428 272
1605 272
1827 272
2158 272
2476 272
2964 272
9815 30
148 19
166 19
258 19
815 19
1134 19
1468 19
1651 19
2131 19
2228 19
5842 225
7566 263
149 97
718 97
794 97
1006 97
1501 97
1578 97
1757 97
2313 97
2605 97
4956 163
6220 120
4745 273
9814 274
402 63
4897 275
6403 273
152 276
233 276
911 276
1091 276
1223 276
1449 277
1726 276
1969 276
2387 276
2680 276
7514 278
1259 80
2864 80
4063 279
9056 67
154 280
1795 280
2103 280
2396 280
2582 281
2602 280
2652 280
3299 280
3372 280
4080 280
8912 35
2500 282
8012 283
156 284
414 284
902 284
1415 284
2135 284
2463 284
2551 284
2805 284
2891 284
5358 285
8021 236
157 153
3112 153
4555 252
158 114
5425 114
5510 114
6168 114
6372 114
6465 114
6471 114
6481 114
6491 114
8580 41
622 213
3752 130
8128 15
161 286
391 286
954 286
975 286
1246 286
1397 286
1642 286
1672 286
1758 286
3943 287
7219 258
162 288
1855 188
8354 17
8476 288
8784 288
8865 288
8901 288
8979 288
9032 288
9177 288
9188 288
163 289
336 289
456 289
1911 289
2181 289
2443 289
3095 289
3238 289
3786 289
6057 290
6960 115
8060 209
9081 45
165 26
609 26
627 26
1231 26
1613 26
1730 26
2115 26
2254 26
2912 26
6615 85
7197 258
657 19
7791 185
9691 2
1130 73
6611 70
9264 257
956 222
7841 236
169 161
219 161
441 161
573 161
844 161
921 161
1118 161
1478 161
1619 161
9865 27
170 291
1143 291
1352 291
3105 291
3168 291
3536 291
3692 291
3745 292
3769 291
4115 291
8310 32
171 293
241 293
792 293
798 293
1238 293
2038 293
2087 293
2105 293
2155 293
4890 294
7521 236
172 295
409 295
779 295
1781 295
1830 295
2276 295
2461 295
2599 295
2626 295
5254 296
6769 297
173 298
224 298
420 298
886 298
1000 298
1787 298
1836 298
1885 298
1973 298
2032 298
9209 299
9673 299
4810 300
7361 169
176 205
455 205
563 205
821 205
928 205
1028 205
1633 205
1660 205
2960 205
6914 301
7313 226
1012 152
5900 302
178 303
780 303
1321 303
1636 303
2190 303
2612 303
3516 303
3529 303
3694 303
8752 259
179 213
380 213
700 213
915 213
939 213
1290 213
1459 213
2086 213
2097 213
9801 30
180 286
967 286
1401 286
1402 286
1441 286
1680 286
1859 286
1999 304
2141 286
2154 286
7872 305
181 68
574 68
905 68
1391 68
1424 68
2298 68
2346 68
2613 68
4936 306
9061 78
182 307
719 307
4919 307
5035 307
5054 307
5368 307
5676 307
5866 307
5934 307
6846 33
7933 305
183 308
1163 309
1328 308
1628 308
1751 308
1860 308
2310 308
3250 308
3535 308
3645 308
3974 310
184 240
398 240
5643 311
185 161
369 161
397 161
545 161
938 161
1173 161
1187 161
1422 161
2734 161
7517 48
9397 130
186 312
2259 312
2268 312
2871 312
3076 312
3370 312
3858 312
4046 312
4104 312
8726 288
9276 313
187 314
1541 50
2506 314
3187 314
3423 314
3873 314
4081 314
4712 314
4744 314
4770 314
9608 41
188 146
5466 285
6078 146
6625 146
6836 146
7092 146
7199 146
7221 146
7260 146
7492 146
9550 241
189 29
1209 29
1386 29
1513 29
1546 29
1763 29
2012 29
2838 29
5549 262
5628 315
190 298
8048 301
9227 214
191 316
327 316
869 316
1239 316
2367 316
3009 316
3269 316
3480 316
3556 316
9189 190
192 138
4983 138
5504 138
5662 138
5742 138
5956 138
6005 138
6180 138
6717 216
9539 88
193 54
3921 54
8910 110
1138 170
2694 170
4997 274
195 7
7190 317
7647 288
7838 7
8089 7
8246 7
8252 7
8526 7
8553 7
8574 7
196 96
6624 132
7633 38
8608 96
9352 96
9501 96
9652 96
9707 96
9744 96
9756 96
9757 96
197 318
4662 318
5403 318
5433 319
5472 318
5751 318
5996 318
6422 318
6437 318
6474 318
8292 102
198 320
341 320
542 320
1514 320
1527 320
2230 320
2490 320
3022 321
3225 320
3292 320
9616 110
199 322
1561 322
2043 322
2237 322
2767 322
2821 322
3042 322
3404 322
3483 322
7549 278
200 277
543 277
707 277
2084 277
2256 277
2422 277
2749 277
2848 277
2944 277
8825 9
201 323
434 323
1264 324
3496 323
4097 323
4283 323
4445 323
4529 323
4674 323
5660 323
6382 70
202 325
1308 325
1379 325
1548 325
1571 325
2078 325
2453 325
2689 325
2788 325
8380 48
203 87
1060 22
3244 87
4304 87
4676 87
5484 87
5611 87
5696 87
5860 87
6017 87
8874 326
204 268
3997 21
9961 85
205 83
670 83
771 83
946 83
1131 83
1207 83
1802 83
1902 83
2663 83
4657 159
5096 327
919 10
7821 47
8161 88
342 136
1956 136
2579 117
6612 193
208 51
863 51
2520 51
2952 51
3107 51
3511 51
3803 51
3830 51
6977 190
7150 328
209 329
248 329
517 329
868 329
1146 329
1482 329
1700 329
2189 329
2963 329
4799 330
9372 212
602 331
2360 332
211 240
642 240
816 240
1068 240
1394 240
1648 240
1891 333
1998 240
2035 240
212 22
326 22
521 22
610 22
1226 22
1740 22
1890 22
2185 22
4515 334
6586 335
213 167
330 167
955 167
1085 167
1436 167
1457 167
1762 167
1943 167
2730 167
5088 9
8013 336
214 230
4169 230
4597 230
4725 230
4843 230
5016 230
5154 230
5581 230
8796 337
8886 126
215 298
616 298
654 298
882 338
937 298
1664 298
1687 298
1952 298
2188 298
9334 81
216 339
1014 339
1152 339
1241 339
1653 339
3191 339
3192 339
3259 339
3976 339
6738 30
217 340
3161 340
3448 340
3473 340
3573 340
3667 340
4172 340
4477 340
4560 340
218 341
385 341
850 341
1192 342
1717 341
3408 341
3522 341
4157 341
4171 341
4466 341
9640 2
1463 161
5064 13
7890 343
220 344
591 344
1127 344
1288 344
1333 344
1539 344
1970 344
1975 344
2234 344
2966 344
7510 33
221 345
713 345
3844 345
4525 345
4765 345
5450 345
5526 345
5733 345
6349 345
7961 214
9686 27
222 281
922 281
1495 281
1683 281
2439 281
2765 281
2797 281
2937 281
9254 212
223 118
3421 235
4954 118
6419 118
7269 118
7286 118
7525 118
7612 118
7625 118
7637 118
9119 9
3827 36
8185 263
5634 173
9656 9
226 291
3438 291
4606 346
8282 88
227 175
259 175
730 175
772 175
1560 175
1629 175
1919 175
2037 175
2894 175
9190 30
9831 67
228 273
2721 273
4687 273
5356 273
5969 273
6204 273
6249 273
6872 273
9290 47
229 347
383 347
1675 347
2399 347
2435 347
2618 347
2989 347
3219 347
3602 347
8532 112
230 333
250 333
382 333
694 333
1043 333
1294 333
2007 333
2516 333
7670 348
8525 313
231 160
601 160
2754 349
5841 173
381 229
4934 264
5200 69
1059 276
8568 212
9504 326
5249 350
5416 351
235 352
1971 352
2690 352
3927 352
4093 352
4238 352
5011 352
5178 352
5516 352
7399 151
695 10
8855 169
237 197
4546 197
4866 197
5730 197
5740 197
5981 197
6008 197
6335 353
6338 197
6350 197
9829 78
238 158
565 354
4724 158
5076 158
5644 158
5984 158
6085 158
6443 158
6497 158
6538 158
7930 355
239 356
316 356
674 356
2019 356
2448 356
3024 356
3060 356
3255 356
3922 356
9728 27
240 54
1529 54
9048 2
1105 293
7344 115
8235 11
242 357
490 357
1275 357
1289 357
1549 358
2020 357
2258 357
2783 357
3026 357
3116 357
8241 336
1083 79
8351 2
9727 2
244 359
1279 359
1314 359
1387 359
1540 359
1545 359
2162 359
2382 359
2621 359
9161 48
9650 67
245 360
808 360
1814 360
2468 360
2675 360
2943 360
3260 360
3333 361
3412 360
3554 360
9552 326
303 89
8222 362
247 292
478 292
580 292
1748 292
2271 292
2315 292
2796 292
4191 292
7994 122
9207 81
878 329
249 26
629 26
714 26
764 26
879 26
957 26
1285 26
1547 26
2051 26
8398 67
8915 27
345 333
941 333
7169 144
7334 254
251 363
1769 363
2294 363
3039 363
3086 363
3335 363
3542 363
3579 363
4028 363
6205 364
9036 85
2729 194
4105 194
4881 194
4955 194
5890 194
5959 194
6107 194
6135 194
253 365
858 366
7958 365
8177 365
8489 365
8516 365
8748 365
9064 365
9114 365
9201 365
254 367
269 367
1725 367
1804 367
2501 367
2705 367
2780 367
2877 367
3578 367
5451 368
5767 358
255 369
4094 369
4197 369
5650 369
5907 353
6194 369
6248 369
6261 369
6424 369
6634 369
8610 43
447 265
6346 370
9111 88
257 195
663 195
1597 195
1991 195
2094 195
2123 195
2303 195
2691 195
5590 57
9291 299
5709 5
6909 111
1453 175
4293 283
9921 48
260 293
320 293
503 293
595 293
1230 293
1461 293
1790 293
1905 293
2147 293
7115 371
261 242
1194 122
2176 242
3283 242
3707 242
3969 242
4102 242
4177 242
4417 242
9797 66
263 372
1033 372
1235 372
1271 372
1452 372
1508 372
2344 372
2858 372
3357 372
6263 200
264 373
1228 374
1301 373
2048 373
2343 373
2384 373
2978 373
3472 373
3642 373
3663 373
9094 77
265 375
796 375
947 376
1307 375
1477 375
2263 375
2763 375
2984 375
3477 375
3491 375
7082 118
266 366
992 366
3385 366
4137 366
4378 366
4392 366
4629 366
5342 366
6407 254
7217 377
9554 48
267 168
727 317
7302 168
7422 168
7428 168
7506 168
7896 168
7975 168
8086 168
8181 168
268 378
2292 378
2377 378
2704 378
2716 378
2728 378
2806 378
3228 378
7147 310
8895 379
2467 367
6570 353
8987 299
8732 241
9505 255
271 380
962 380
1292 380
1338 380
1572 380
1978 380
2023 381
2044 380
2456 380
2872 380
4319 382
272 323
2535 323
2852 323
9716 77
273 325
604 101
9285 55
274 383
310 383
579 383
2138 383
2746 383
2773 383
2781 383
2835 383
3314 383
3435 148
4414 181
1489 180
2823 180
8323 8
8977 67
277 384
1493 385
4618 384
5266 384
5486 384
5617 384
5691 384
5762 384
6573 384
6742 384
278 208
587 208
621 208
855 208
987 208
1331 208
1521 208
1639 208
2956 208
6549 250
9909 126
980 129
8510 40
280 386
338 386
1335 386
1410 386
3495 386
3506 386
3805 386
3841 386
4170 386
8639 32
5523 387
282 35
7059 168
7803 53
8026 35
8781 35
9025 35
9051 35
9091 35
9117 35
9344 35
283 52
516 52
717 52
893 52
1107 52
1341 52
2402 52
2406 52
2409 52
4065 385
7331 115
284 283
5082 163
8135 283
8169 283
8527 283
8637 283
8688 283
8722 283
8817 283
285 86
546 86
1236 86
1310 289
1494 86
1530 86
1743 86
1924 86
2366 86
2830 86
9314 88
286 303
7518 112
287 384
2715 388
3345 384
5187 384
5439 384
5881 384
8168 24
288 389
1319 389
1433 389
2047 389
2122 389
2214 389
2538 389
3087 389
3614 389
9478 9
289 154
541 154
867 154
1320 154
1348 154
1467 154
1624 154
2209 390
2887 154
6115 315
290 340
895 340
3566 340
6748 2
9239 241
1886 318
8956 365
292 306
4179 150
6051 306
6184 306
6268 306
6388 306
6427 306
6433 306
6436 306
6535 306
9949 274
293 391
488 391
2001 391
2921 391
3033 216
3072 391
3482 391
3534 391
3567 391
3672 391
5270 392
294 266
295 393
498 393
803 393
1682 393
2113 393
3441 393
3519 393
3560 393
3676 393
7717 130
9998 8
296 356
431 356
2314 356
9571 88
301 184
3611 394
7248 365
298 395
2351 395
3577 395
4103 395
4108 395
4346 395
4682 395
5112 395
5411 395
5659 396
9876 77
1172 31
7641 226
300 397
1553 397
1640 397
2186 397
2282 397
2297 397
2378 397
2576 397
2580 397
8969 337
9816 85
914 184
5130 388
8284 362
302 44
2306 44
3513 44
6980 110
8808 99
9612 241
304 369
7086 259
7548 45
1161 83
5570 398
1712 92
2497 399
416 219
1479 219
1523 219
1598 219
1967 219
2059 219
2144 219
2940 219
308 400
1120 400
1825 400
2283 400
2323 400
2397 400
2407 400
2623 400
3218 400
6608 254
9972 102
309 401
748 401
961 401
1490 401
1797 402
2067 401
2121 401
2130 401
2445 401
5347 342
8442 371
1620 383
8163 122
311 336
7720 336
7768 336
7829 336
8150 336
8277 336
8373 336
8431 336
8434 336
9796 48
312 403
2318 403
3038 403
4174 403
4395 403
4822 403
4976 403
5419 403
5547 403
7453 387
9129 96
313 128
6063 404
9399 130
702 95
7852 24
1838 42
6104 198
7726 351
2075 405
317 406
1618 407
5440 225
6139 406
6224 406
6297 406
6494 406
6599 406
6629 406
6638 406
6809 406
3564 294
319 408
4012 408
4041 408
4335 408
6266 408
6598 408
6633 408
6653 408
6678 408
9220 2
9531 67
892 293
5824 409
6808 410
321 411
2272 154
2279 411
3190 411
3704 411
3737 411
3847 411
4517 411
4600 411
5028 411
6259 263
9143 88
323 256
754 256
3094 256
3295 256
4190 275
9994 8
324 167
4130 248
9171 271
325 139
1188 139
3816 139
5584 412
1047 22
3861 413
977 316
1920 316
3893 365
7844 201
328 414
395 414
585 414
1268 414
1432 414
1496 414
1610 414
1783 414
1985 414
8257 15
1733 29
4584 48
9971 102
532 167
7044 377
8792 107
331 217
2218 217
4877 217
5052 217
5213 217
5260 217
5452 335
5562 217
5854 217
5992 217
332 405
951 405
1340 405
1710 405
1900 405
2450 405
2762 405
2988 405
7770 236
5014 254
5701 396
5814 330
8509 144
335 351
5893 351
8143 351
8281 259
8626 351
8713 351
8823 351
8903 351
8975 351
9028 351
1481 289
2653 289
2924 349
9889 102
1462 386
3145 386
6871 193
9595 274
339 415
1955 415
3537 415
3949 415
4376 200
4658 415
4884 415
4928 415
5474 415
5639 415
7591 343
340 138
2851 138
3899 138
3950 138
7095 315
7875 126
1928 320
2016 320
6666 183
6091 416
343 417
386 417
424 417
909 417
1036 417
1634 417
1646 417
1965 417
2062 417
8106 412
5938 371
8085 283
6553 36
9842 126
346 418
6670 418
7287 418
7290 418
7403 418
7404 418
7433 418
7455 418
7466 418
8841 77
1112 93
3272 93
5565 419
348 420
460 420
870 420
1358 420
1661 420
2026 420
2163 420
2495 420
2709 420
8209 96
9385 77
6995 130
8017 78
350 128
651 128
1951 128
351 276
650 276
680 276
725 276
790 276
1157 276
1347 276
1372 276
2642 276
9823 77
1914 421
9791 78
8343 387
7018 2
7328 185
355 38
5053 38
6114 38
6179 38
7201 38
7229 38
7307 38
7439 38
9431 126
356 422
4431 423
4617 422
4727 422
4733 422
4764 422
4771 422
4811 422
4827 422
4831 422
8647 283
9812 47
1475 424
9546 27
359 425
1256 425
1299 425
1426 425
1565 425
1765 425
2085 425
2529 425
2764 425
9773 30
9938 102
6373 326
8715 43
361 31
4331 31
4391 31
4501 31
4542 31
4579 28
4859 31
4935 31
5092 31
362 124
464 124
1820 191
3736 21
3877 124
4095 124
6576 124
7128 124
363 345
2073 345
3239 226
4320 345
4820 345
9714 30
364 426
1958 340
4474 426
5027 426
5324 426
5593 426
5871 426
6376 135
6503 426
6648 426
6675 426
3322 190
7728 427
366 361
692 361
2471 361
2782 361
2873 361
2991 336
3132 361
4075 361
4281 361
7278 131
367 321
1602 321
3213 428
3388 321
5009 321
5063 321
5522 321
5873 321
6002 321
6254 321
8039 304
6813 348
8328 362
6200 140
8389 35
372 302
6583 302
6920 302
6956 302
7053 302
7298 302
7382 302
7572 302
9545 107
4582 307
374 358
2388 110
4003 358
4377 358
6089 358
6094 358
6131 358
6188 358
7045 358
7125 358
9726 8
375 380
530 380
973 380
989 380
1404 380
1599 380
1941 380
1954 380
1966 380
4152 429
5690 109
376 430
1354 430
1360 430
1393 430
1657 430
1877 430
1898 430
2110 430
2563 430
9679 30
377 79
685 79
840 79
1098 79
1585 79
1698 79
1764 79
1824 79
2558 79
8377 127
9424 30
8597 66
379 59
2329 59
2712 59
3014 59
3077 59
3261 59
3390 59
9758 183
1274 213
8946 379
6383 140
7077 214
1650 347
2627 347
6998 78
7083 431
384 415
2498 415
3940 415
9107 11
9624 326
2072 341
2751 341
7740 355
8750 278
2159 417
9092 257
387 432
3487 432
3733 432
3902 432
3946 432
4188 432
4388 432
4551 432
4797 432
5042 432
5785 343
388 364
3515 364
4907 364
5290 364
5591 364
5917 364
6065 364
6075 364
7372 127
9947 55
389 282
1182 6
1488 282
1556 282
2325 282
2542 282
2587 282
2925 282
3321 282
4824 398
390 433
8255 433
8307 433
8345 433
8464 433
8524 433
8634 433
8660 433
8663 433
1102 286
2883 413
8186 257
392 434
4263 434
4432 434
5067 434
5371 434
5384 434
6116 434
6152 434
6366 434
8642 183
393 435
4044 435
4461 435
4476 435
4671 435
4860 435
5086 435
5141 435
5217 435
9260 207
9122 85
3249 436
7359 4
8850 77
5436 437
9311 130
1203 240
399 97
3852 97
6347 290
400 290
1322 69
4915 290
5183 290
6196 290
6280 290
6352 290
6377 290
8415 186
2641 438
8356 30
2633 439
7908 255
403 273
3968 273
5447 273
5556 273
6791 209
8446 72
404 440
430 440
467 440
1171 441
2733 440
2969 440
3257 440
3597 440
4690 440
4863 440
405 155
2890 146
4074 328
406 442
2413 442
3188 442
3285 442
3287 442
3353 442
3447 442
3774 442
4045 443
4051 442
9579 207
407 119
1846 435
2470 119
3509 119
6733 297
408 416
4229 444
4640 416
6513 416
6851 416
6913 416
7012 416
7096 416
7445 416
7520 416
646 295
4444 101
410 44
3848 44
8906 337
9792 255
411 251
2317 251
2900 251
3626 445
3705 251
3958 251
4111 251
4273 251
4905 251
4927 251
8593 12
412 181
3880 181
4959 181
4988 181
5003 181
5173 181
5325 409
6447 446
6412 17
9850 8
1306 284
1929 284
6317 362
415 447
3211 447
3426 447
4192 447
4446 447
4957 447
4987 447
5165 99
5184 447
5214 447
709 219
8465 85
417 63
1007 63
1174 63
1365 63
1491 63
1579 63
1761 63
1961 63
2411 63
2503 63
9073 48
418 359
7767 43
9832 2
419 71
1987 438
4609 437
9250 30
421 374
620 374
645 374
934 374
1563 374
1564 374
1684 374
2770 374
2840 374
7483 40
422 448
667 448
1101 448
1557 448
1754 448
2167 448
2245 448
2431 448
2459 448
4297 101
7368 45
423 309
738 309
1001 309
1078 309
1191 309
1617 309
1972 309
2156 309
8076 48
9721 299
4264 449
9380 207
425 143
1615 143
9862 78
426 366
1705 366
2598 366
3202 366
9381 263
9672 55
427 77
2676 437
7220 77
8430 77
9479 77
9682 77
9763 77
9882 77
428 450
523 450
666 450
1039 450
1114 450
1227 451
1989 450
2760 450
2817 450
3045 450
9693 241
429 391
2031 391
5822 305
8487 250
2545 440
2639 440
9258 77
7282 147
432 20
439 20
1536 20
2205 20
2288 20
2419 20
2903 20
3364 20
433 16
965 16
1129 16
1518 16
1882 16
1960 16
1994 16
2055 16
2686 16
3533 385
1022 323
4161 323
6173 452
435 338
1283 338
1688 338
1976 338
2472 338
2905 338
2961 338
3240 338
3279 338
8861 67
436 433
5807 62
8337 433
8417 433
9582 126
437 2
7759 88
8605 2
8879 2
9047 2
9383 2
9447 2
9580 12
9708 2
9872 2
9918 2
438 453
489 453
742 453
910 453
1303 453
1431 453
1711 453
1714 453
2102 453
8847 271
791 20
2812 20
9629 45
440 60
1070 60
1759 60
9163 130
5437 21
5846 454
515 227
1659 369
6227 455
6325 4
444 456
1344 456
1844 456
1937 456
2316 456
2736 456
2946 456
3101 456
3588 456
6841 131
1097 86
9973 48
446 437
3735 437
3741 449
3813 437
3918 437
4117 437
5078 437
5084 437
9674 241
3947 457
8342 190
7802 216
449 458
2655 459
2706 458
4357 458
4527 458
5883 458
5927 458
6141 458
6153 458
6275 458
450 460
2548 460
2785 460
3212 460
3246 460
3379 460
3729 460
4142 460
4143 460
6398 214
9309 207
451 461
635 461
729 461
1133 461
1165 461
1248 461
1272 461
2140 461
2324 461
452 461
5121 439
453 175
7484 255
454 178
2222 178
2671 178
2695 178
3576 178
3678 178
4016 178
4066 178
8459 462
795 205
3004 258
8395 259
7227 67
457 463
1267 373
1801 463
2931 463
3125 463
3558 463
4468 463
4665 463
5044 463
5194 382
5635 463
458 137
2423 137
2867 188
4531 137
4711 137
5307 137
5492 137
5706 137
5915 137
6062 137
459 188
485 188
619 188
2337 188
2850 188
3049 188
4593 87
8952 110
1037 420
6763 111
9103 241
4865 104
5637 351
814 105
7971 132
8762 263
463 464
3185 464
3229 137
3399 464
3799 464
4079 464
4385 464
4462 464
4504 464
4568 464
5543 441
6216 124
6947 465
465 166
5916 38
6370 243
5564 258
2483 440
2776 440
3162 77
8103 343
6095 159
7879 40
469 154
860 154
1002 154
1090 154
1448 154
1498 154
2285 154
2889 154
6760 74
8687 135
470 154
2759 466
471 233
2308 233
3327 233
3748 233
4464 233
4883 233
5534 233
5619 233
9760 8
1175 116
1222 116
2305 116
6421 337
473 467
4900 121
7166 467
7435 467
7555 467
7991 467
8100 467
8421 467
8581 467
8613 467
474 468
710 468
899 468
1215 468
1555 468
1715 468
2133 469
2224 468
2525 468
3273 468
475 261
4763 261
5100 261
6023 261
6169 261
6171 261
6327 470
6460 261
6755 261
8439 305
9376 326
9572 78
477 58
7377 58
7440 58
7718 58
7765 58
7893 58
8096 58
8097 58
8904 135
1908 292
3262 292
7776 15
479 447
1446 447
2345 447
4940 388
5255 447
6890 471
4913 159
481 179
4602 179
5136 179
5137 179
5380 179
5455 179
5813 179
5820 179
5945 179
8878 70
8982 96
482 472
3290 472
3381 472
3814 472
4406 472
4608 472
4642 472
4833 472
4879 472
5336 306
8479 17
483 322
4950 1
7237 74
484 381
656 381
1291 106
2240 381
2277 381
2573 381
3044 381
3170 381
3696 381
9809 12
1662 188
486 441
5309 441
5360 441
5989 441
6240 441
6445 441
6628 441
6677 441
9671 66
6296 174
9165 77
741 453
4487 206
7284 85
721 357
883 357
8338 110
491 106
5265 27
5334 106
5948 106
7365 168
7452 216
493 324
1486 324
2052 324
2464 324
2537 324
2557 324
3144 324
3203 324
5971 467
8920 110
494 233
3155 233
7084 131
495 394
4759 394
5223 443
5430 394
5535 394
5642 394
6197 394
6289 394
6334 394
6367 394
7660 275
496 59
575 59
782 59
877 59
1193 59
1336 59
1510 59
1537 59
1785 59
3499 473
497 474
762 474
1104 474
1162 474
1718 474
1770 474
2006 474
2170 474
2394 474
8731 212
1366 393
1881 393
1709 22
7576 304
8951 45
501 436
3235 436
4048 436
4266 436
4596 436
4630 436
4726 436
4732 436
4795 436
6384 109
502 475
2875 475
2919 475
3001 475
3493 475
3912 475
3964 475
4133 475
4204 475
5531 306
7763 12
3668 159
9659 126
7161 151
9214 257
7413 77
7658 115
506 56
3041 56
9825 8
507 332
2999 332
3025 332
3048 332
3209 332
3428 332
3640 332
4147 332
6320 212
1400 239
2260 239
2496 239
3224 239
3562 239
3800 239
3817 239
4043 239
9060 85
509 126
6811 126
7080 126
8460 337
8864 126
9270 126
9621 126
9678 126
9858 77
9900 126
9956 126
510 454
4978 454
5050 454
5344 454
5376 454
5623 454
5949 454
6042 454
8435 85
511 476
1581 476
1604 476
1907 476
1909 476
2160 476
2261 476
2458 476
3265 476
4282 33
7959 33
512 283
5122 377
6155 477
8291 283
8542 283
514 454
1383 454
3731 454
6541 351
1892 52
9033 130
4526 478
6660 368
518 426
4731 426
5256 426
5856 426
6402 43
6489 426
7519 8
9262 462
520 479
1198 479
1614 479
1752 479
1957 479
2326 479
2349 479
3497 479
3669 479
8447 259
8868 183
4390 159
6052 241
4513 5
6374 5
6551 5
6857 5
7000 5
7114 5
7165 5
1126 450
1220 450
9645 85
524 361
737 361
2619 361
4502 480
7323 72
2027 338
526 406
5967 406
6298 406
9004 45
9930 85
527 459
2056 459
2231 459
2267 459
3032 459
3371 459
4132 459
4257 459
6413 74
528 235
1377 235
1755 235
2304 235
2444 235
3056 235
3111 235
9886 326
529 164
2077 164
4755 148
1087 380
8985 48
7259 471
9072 317
5998 446
1183 98
534 21
5594 21
5802 21
6020 21
6125 21
6391 21
6409 21
9928 30
8570 207
9712 45
927 222
6790 96
538 75
4076 75
4351 75
4360 75
4621 75
4737 75
4938 75
5770 462
6844 255
7786 250
2697 444
8837 126
8329 204
9126 236
7793 343
623 277
4180 424
8468 190
544 451
1815 451
2266 451
2615 451
2668 451
3021 451
3097 451
3118 451
3465 451
9085 257
3418 438
7837 72
547 454
1562 454
8565 45
1442 171
2250 171
2512 171
3658 171
3915 171
4581 171
4626 171
4710 171
5129 481
549 270
1768 270
7925 64
550 179
1367 362
3258 179
6917 439
551 81
7230 81
8528 81
9080 81
9243 81
9349 81
9390 81
9459 81
552 319
849 61
3341 482
4573 319
5138 319
6537 319
6891 319
6973 319
7314 319
7336 319
7370 319
553 341
2664 341
8452 66
7942 18
555 192
3169 192
3460 192
3492 192
3653 192
3908 192
3961 192
4291 192
8992 2
556 6
830 6
9141 126
9819 45
557 273
2630 273
7812 259
9820 110
1016 202
1184 202
6400 305
559 473
708 473
1309 473
2547 473
2570 473
2577 473
2902 473
3431 473
7244 243
8267 64
832 483
6286 318
561 431
3030 431
5428 431
6610 431
6620 431
6686 431
7009 431
7163 431
9770 27
562 350
4175 350
4622 350
5473 350
6302 350
6303 350
6613 193
6667 350
6806 350
2414 382
7353 27
564 14
744 14
1153 14
1872 14
2033 14
2917 14
2930 14
4181 64
1023 354
1637 354
2095 354
3673 354
3765 354
3826 354
3991 354
4206 354
566 332
865 332
8167 53
567 484
1507 484
2004 484
2451 484
2979 484
3028 484
3344 484
3595 484
4119 484
7427 297
568 402
959 402
2970 402
3147 402
3396 402
3730 402
3806 402
3856 402
8199 127
9561 78
7550 433
9402 259
570 485
4208 485
4664 485
4910 485
5107 485
5202 485
5539 485
5568 301
5722 485
5735 485
571 394
4557 394
7816 326
8673 257
572 452
3581 452
5737 452
6253 452
6554 452
7011 452
7736 452
7781 452
7884 452
7913 452
8727 304
6853 336
9574 88
1654 68
2091 486
9775 462
1015 59
6521 96
576 82
3015 82
3450 82
3601 82
3951 82
4452 82
4697 82
4784 82
7601 174
9988 64
577 487
1356 487
1630 487
1788 487
1876 487
2248 487
2327 487
2649 487
3621 487
578 258
7072 258
7241 258
7778 258
7877 258
7965 258
8058 258
8202 258
8270 127
1466 383
8020 24
2365 192
581 411
4101 411
8083 237
9084 135
582 245
1017 245
2226 245
3216 245
3662 245
3679 245
3957 245
4276 245
583 335
4173 335
4839 335
5736 396
5828 335
5921 335
5943 335
5954 335
6190 335
6870 335
7273 305
9172 126
1159 414
9605 9
9644 30
932 182
1395 182
2628 182
5573 342
9680 299
647 208
8633 169
588 488
2508 488
2698 488
4308 488
4352 488
4480 488
5079 488
5191 488
5288 488
589 103
9261 313
590 233
2908 233
5227 379
7610 274
2239 489
4255 3
592 308
1497 308
3618 91
7363 99
593 232
672 232
1287 232
2342 232
2375 232
2379 232
2477 232
2659 232
3691 18
594 25
1260 25
9295 255
596 307
2742 307
3784 313
5199 307
7513 99
597 490
612 490
661 243
2400 490
2677 490
2994 490
3330 490
3809 490
4150 490
4347 490
5123 100
598 372
6961 288
1692 39
7831 186
600 360
1116 360
5300 32
9039 45
2492 331
3153 331
3546 331
4261 331
4610 331
4721 331
4856 331
4895 331
603 349
1326 349
1405 349
1676 349
2674 349
2818 349
3382 349
3657 349
8271 304
2942 101
3355 101
3742 101
3779 101
4285 101
4427 101
4825 101
605 482
2786 482
3052 482
3308 482
3474 482
3593 482
3701 482
4295 482
8221 66
8683 77
3634 189
8918 99
608 368
4426 368
5404 300
6175 477
6714 368
6825 368
7153 368
7621 368
7910 368
7920 368
7922 368
1407 26
6283 434
6669 336
6647 275
9747 64
611 389
1217 389
2440 439
2457 490
3342 490
613 491
618 491
1315 405
1419 491
1469 491
2390 491
3296 491
3400 491
3413 491
3500 491
614 178
2802 178
3110 178
8729 102
3348 445
3374 285
1922 298
7167 24
9642 263
9131 30
999 491
5712 262
3782 274
1974 381
5898 30
9718 12
5497 492
9046 274
4443 156
625 304
3575 480
8716 304
8844 304
9288 304
9371 304
9410 304
9423 304
9576 304
9794 47
626 189
628 189
3392 428
8081 462
4616 493
8269 478
8560 112
7551 494
9124 40
630 401
996 401
6456 148
7192 107
7570 122
632 333
778 333
1100 333
1375 333
1843 333
1851 333
2104 333
2107 333
5394 91
9638 12
4471 118
5242 471
6584 228
8481 70
7646 216
7934 362
636 334
3200 334
3517 495
4828 334
4888 334
5120 334
5126 334
5142 334
5232 156
5330 334
5578 334
637 203
2136 203
2554 203
2648 203
3599 203
3755 203
3772 203
4109 203
9907 64
9966 462
638 185
5542 185
6876 185
7540 185
7710 185
8028 185
8068 185
8730 130
9665 77
5803 392
9409 41
5454 496
5558 70
2735 168
8711 371
979 218
9888 107
643 497
1115 497
1593 497
2151 497
2795 497
2828 497
2996 497
3498 497
3979 497
7535 74
644 398
4586 398
4906 398
5268 398
5421 398
5772 398
6010 311
6279 398
6356 398
9461 204
2874 498
9194 326
5488 300
8577 263
760 166
648 246
3942 246
6026 499
649 291
6896 427
8534 18
735 276
766 128
8316 144
9954 30
652 500
1534 500
1558 500
2585 500
2775 500
2933 500
3180 500
3304 500
3526 500
5957 132
9031 8
653 483
655 483
739 483
1286 483
1674 483
1793 483
2286 483
2380 483
8591 190
1123 483
9690 110
3166 147
6695 147
8753 132
659 501
750 501
876 501
1456 501
1799 501
2217 501
2312 501
2393 501
2499 501
5276 502
9435 255
7876 9
827 193
5853 243
6595 243
6786 243
6982 243
7367 243
7502 243
1747 133
2452 133
5577 27
7810 96
809 195
9266 462
1817 228
7322 209
2744 1
784 448
5471 158
669 503
1487 503
2843 503
2981 503
3142 503
3149 503
3479 503
3503 503
3646 503
3965 294
7251 144
1939 83
671 23
1080 23
1821 23
2808 23
2918 23
3294 23
3298 23
3561 23
4742 504
1276 232
8025 297
3627 158
7704 72
8074 72
8821 72
8892 72
8924 72
8936 72
8961 72
9007 72
675 330
3368 330
3391 330
3585 459
4375 330
4808 330
5621 330
5655 330
676 444
1390 444
3451 444
4619 444
4678 444
4691 444
4730 444
4788 444
8492 313
677 274
5392 433
5759 274
6193 410
9633 274
9637 274
9703 274
9752 274
9761 274
9875 274
678 224
3005 224
4519 224
5186 224
5571 224
5668 224
5720 224
5845 224
5978 224
679 210
1258 210
2469 210
9256 8
9427 110
9089 30
9472 313
682 1
3100 1
4144 1
4201 1
5374 1
5586 1
5665 1
683 490
6762 173
9074 274
1095 79
8358 17
686 505
1697 117
2878 505
3092 505
3103 505
3512 505
4068 505
4224 505
4243 505
4271 505
8511 77
687 390
1528 390
1906 390
2212 390
2376 390
3055 390
3550 390
3665 390
688 221
2592 221
3598 221
3885 221
4023 221
4054 221
4078 221
7689 4
9692 462
690 485
3303 485
4942 485
8206 209
8615 30
691 388
3703 388
4846 388
4896 388
5022 388
5125 388
9527 45
7327 214
9315 47
6043 223
7595 7
8769 379
6305 66
6877 297
765 16
3790 506
7252 492
701 174
5902 174
7270 174
7409 174
7750 174
7855 174
7903 174
9192 48
6944 78
788 162
8456 11
9944 85
5039 261
705 171
3113 171
3253 171
3860 171
6925 209
9444 48
2487 427
5305 226
4809 300
2005 473
9897 30
7291 427
9989 67
1716 468
2057 468
8558 278
8589 183
9704 55
711 416
5918 416
9015 11
9221 271
9541 47
8557 304
6473 165
7064 96
756 59
5670 396
9742 263
986 97
3986 150
8603 32
2200 307
8000 419
4572 70
9976 2
6665 2
723 482
3687 482
8894 9
9803 78
7783 11
8104 55
9986 67
1858 172
2606 172
6821 353
7993 343
4413 421
4766 317
8426 317
8826 317
8891 317
9000 317
9003 317
9006 317
728 394
1445 394
4864 394
6004 342
9306 48
5057 120
5106 507
4613 197
4667 310
731 225
3777 224
6074 57
6962 225
7467 225
7542 225
7695 225
7796 225
7819 225
7867 225
8005 225
8344 102
733 460
3429 460
5994 5
8964 67
734 508
837 508
2866 508
2922 508
3815 508
4091 508
4465 509
4521 508
4787 508
4878 508
8114 365
9657 107
736 491
8829 8
888 309
3888 449
1728 203
4310 241
5718 452
5346 404
7901 77
8601 77
7666 271
930 14
8253 72
866 123
9597 126
2913 510
8049 70
8259 78
804 501
4268 117
8869 30
751 2
3697 413
7675 241
8618 2
9484 2
9788 2
752 438
1888 438
3233 438
3430 438
4062 438
4369 438
4651 438
4713 438
4747 438
4904 458
8332 18
7052 74
9798 64
8118 355
757 472
2374 472
3728 472
7088 313
758 244
3410 231
8576 337
9387 107
9813 27
2465 166
5527 406
761 225
7193 225
7574 225
7604 225
1013 474
9896 66
9901 66
763 449
2299 121
2983 449
3422 449
3568 449
3778 449
4134 449
5245 253
2637 66
8245 66
4995 258
9366 55
767 301
5074 348
6362 301
6843 301
7324 353
7482 301
7792 301
7835 301
7900 301
5359 211
3383 304
770 17
8040 17
8174 17
8205 17
8266 17
8381 278
8441 17
6385 499
773 62
4632 62
5311 62
5766 62
5788 62
6594 62
6681 147
6915 62
9022 12
774 280
1894 280
1995 280
9946 67
775 436
1942 436
4499 409
8907 8
777 292
6942 433
7594 427
1416 333
3854 431
8458 241
2025 451
818 303
8009 412
6237 53
9881 66
9660 257
1411 448
8112 77
785 304
4861 376
7191 257
8785 304
8809 304
8863 304
9173 304
9392 304
9412 304
786 470
3855 470
4498 470
4851 470
5089 470
5622 470
5962 470
6339 470
8507 127
2620 150
3013 150
3090 150
3122 150
3254 150
3580 150
4947 91
8214 88
9945 85
789 261
4539 261
6565 173
5357 228
9506 241
793 142
7111 142
7180 142
7585 142
7671 142
7857 142
7909 142
7946 142
8008 142
9836 2
7110 198
2225 99
6165 110
7962 53
8117 8
8173 379
799 196
800 473
6012 396
801 503
1073 282
1398 503
1980 503
802 489
1930 489
2962 489
3930 489
4459 489
4625 489
4700 489
4758 489
3863 321
9451 12
7580 348
806 412
7010 412
7223 412
7644 412
7769 412
8121 412
8286 412
8766 255
7243 228
9537 299
3801 176
6213 353
9841 48
810 466
1594 466
1866 466
2870 466
3109 466
3221 466
3300 466
3615 466
3695 466
5017 102
812 401
1430 401
1538 401
1592 401
2017 401
2583 401
2651 401
2811 401
7497 492
7715 64
5663 185
5537 419
9510 102
9113 255
817 249
1583 249
4818 296
8490 236
9454 274
819 428
3176 428
3403 428
4200 428
4384 428
4564 428
4638 428
4775 428
820 445
2510 445
2536 445
3127 445
3319 445
3452 445
4070 445
4071 445
9377 207
8948 169
1850 487
9337 204
823 378
1901 378
2334 378
8761 132
8218 169
8856 477
7738 27
826 381
4887 194
3424 409
5551 193
6428 193
6918 193
7474 193
7688 193
7834 193
828 288
5277 288
6161 237
7495 288
8179 288
8887 41
6862 212
831 185
3690 511
4294 185
7025 185
7182 185
9406 271
4481 434
8771 299
9715 255
835 424
2740 424
4155 424
4187 424
4518 424
4570 424
4748 424
4754 424
9465 186
836 99
7564 99
8875 99
8888 99
8893 99
8928 99
9415 48
3006 508
3754 508
4327 508
5427 17
838 497
880 512
2791 497
2845 497
7809 427
839 379
5674 379
6415 379
6708 379
7635 379
7826 304
8224 379
8682 379
3339 45
9432 107
9719 88
842 366
5004 296
843 157
8902 67
9772 47
1190 128
7801 126
845 376
2837 376
4701 376
4715 376
4739 376
5237 376
5382 376
5457 376
6039 376
6899 85
846 56
1337 56
5533 513
9588 326
847 407
1421 407
1611 407
1806 407
2015 407
2825 407
2982 407
3475 407
9735 255
848 125
1945 125
1631 61
2068 61
2126 61
2543 61
2650 61
3115 61
3990 61
9687 462
9877 85
851 439
3539 113
5275 439
5827 439
6333 439
6792 439
7002 439
7316 439
7406 439
852 92
1418 92
6425 358
853 146
6616 57
9887 326
3650 18
856 214
7037 355
8505 214
8665 214
8757 214
8962 214
8991 214
9149 214
9152 214
857 29
2938 58
859 67
5456 346
6495 67
8607 204
8678 67
8751 112
8832 67
9601 67
9602 67
923 154
5010 494
861 430
7640 33
7748 494
4750 212
1473 51
3373 51
8592 130
1474 332
3530 514
7774 317
2895 123
9685 8
9983 27
3504 396
871 500
2539 500
2588 500
3973 45
7168 301
872 84
3708 84
4374 84
5723 84
8347 15
8477 115
873 209
7415 209
7794 183
8022 209
8153 209
8194 209
8321 209
874 269
4469 269
4497 269
5607 269
8876 110
875 67
3612 371
4679 67
6271 67
8318 67
8333 77
8965 67
9331 67
9606 67
9915 67
8623 72
9789 77
2347 512
2658 512
3102 512
3193 512
3210 512
3635 512
3743 512
3929 512
7733 515
5218 283
8617 66
3531 443
8689 77
884 100
7636 100
7853 100
8957 43
8776 126
4986 209
889 479
1590 479
4659 362
890 35
3356 224
8566 35
9150 35
9186 35
9279 35
891 39
997 39
1042 39
1199 39
1317 39
1447 39
1515 39
2395 39
8692 365
4077 413
9741 67
3207 429
894 484
898 484
7856 313
9731 55
2270 17
896 399
1229 399
1244 399
1265 399
1789 399
1948 399
1996 399
2125 399
7952 493
7557 48
9422 88
2932 484
9249 66
5271 330
900 173
5588 173
6049 173
6818 173
7126 173
7142 173
7258 173
8295 45
9635 45
901 140
5836 140
5850 140
6518 140
6607 140
6623 140
7757 99
8212 43
5152 243
903 4
6112 9
6273 4
6522 4
6810 4
7194 4
7553 4
8239 4
904 224
2058 224
5721 511
907 456
2939 456
908 354
1056 354
1779 354
5354 264
9521 241
4121 222
2595 427
8709 27
912 106
1140 106
3788 106
5343 106
6079 410
8514 8
913 241
6577 163
8226 41
9155 241
9367 241
9557 241
9795 241
7312 168
1735 376
5284 358
917 64
5302 64
7208 317
9230 64
9781 64
9822 64
9962 64
6827 507
9486 45
6337 168
1535 281
2488 281
924 412
6923 412
9312 183
925 16
3089 331
6156 421
9596 30
4472 111
8783 47
9615 30
6881 4
929 505
1297 505
2319 505
2667 395
9768 2
931 402
1862 402
2699 402
3960 1
4042 85
2021 117
6502 198
9275 66
935 358
5673 358
9592 257
1816 510
8399 132
4217 222
3114 516
5162 131
9745 299
940 517
4794 434
4931 517
5603 371
7667 517
7707 517
7955 517
8043 517
8062 517
8073 517
8092 517
3842 481
942 518
3251 518
4871 518
4963 518
5323 518
5675 518
5749 518
5816 518
5819 518
9632 67
943 490
7388 109
944 90
4014 90
5023 90
5139 90
8278 214
8276 274
9443 11
3444 376
4211 64
5645 376
9880 66
950 200
4082 200
5007 200
5101 259
5976 200
6848 200
7249 200
7477 200
7664 200
7694 200
8155 371
2011 405
6162 212
9156 77
952 519
1316 519
3018 519
3571 519
4194 519
4239 519
4249 519
4270 519
4278 519
8425 255
8706 263
6242 228
9075 48
4922 109
5163 288
8667 305
9996 8
4403 169
5601 142
960 506
2412 506
2417 506
2549 506
3034 506
3167 506
3828 506
4083 506
4989 216
1412 437
6743 253
1346 380
7546 127
964 135
8628 135
8778 135
9093 135
9139 135
5445 223
7698 275
2172 286
5321 511
8743 41
968 39
6262 396
8388 250
969 234
1780 520
1959 234
9908 48
9964 48
974 387
7500 336
7747 387
7773 387
8217 387
8313 387
8330 387
8339 387
8379 387
8994 18
7138 70
1992 469
5273 520
2246 218
8228 85
1403 215
3518 215
7310 209
982 521
1921 521
2356 521
3007 521
3476 521
3878 521
4060 521
4092 521
4558 521
9655 107
1324 125
4508 408
8933 64
984 275
6029 275
6523 275
6737 275
7669 275
985 245
2541 245
2928 245
2947 382
9625 77
6031 299
9280 66
5491 211
8274 88
9183 263
9663 462
990 509
2847 509
3120 509
3241 509
3445 509
4577 509
4966 509
5095 509
991 522
2787 522
2927 522
3256 522
3420 522
3636 522
3706 522
3889 522
4182 522
4620 443
9121 8
7687 135
993 439
6281 439
6483 439
6751 439
6778 110
8370 66
7047 126
7438 259
995 187
5677 33
9167 313
9984 48
5228 462
8818 183
998 59
8410 237
9251 299
9568 462
9481 263
7040 267
7294 355
1004 469
1214 469
1262 469
2199 469
2242 469
2391 469
2935 469
5613 346
5995 496
1005 513
5012 513
5119 513
5448 513
5700 513
5724 513
5763 513
5897 513
5903 513
7238 412
7589 115
6485 120
1008 192
5236 231
8019 9
1009 480
3334 480
3909 480
4262 404
4485 480
4496 480
4594 480
5172 480
6850 377
6854 370
3919 131
5985 102
9008 288
9874 77
1782 339
2427 339
3367 339
9154 236
1018 261
3433 2
3711 261
4848 194
9434 47
3419 70
7511 74
1020 464
3553 464
4140 464
1021 454
2191 454
6134 274
8176 88
2530 397
4120 55
1024 523
2083 523
2192 523
3080 523
3297 523
3829 523
3833 523
4743 523
5205 523
8816 427
3853 486
4738 90
5458 90
5648 421
1026 55
8369 371
8834 55
8973 55
9590 55
9827 55
9851 55
9854 55
7257 236
8697 305
2936 216
8714 102
1029 425
8531 15
4029 252
6121 446
1031 21
5102 21
5787 455
6105 21
1032 481
3914 481
4164 62
4165 481
4933 481
4999 481
5470 481
5726 481
5754 481
9997 45
1035 372
9449 107
4948 520
4379 290
8889 130
9097 8
1038 470
3825 470
5002 470
5224 470
5519 470
6833 274
7953 299
2819 310
8444 9
1040 221
2335 221
3901 353
7396 148
1041 290
4565 290
5233 290
9313 313
8387 348
1946 336
1044 401
1284 401
1045 179
2584 179
3722 226
4941 179
5412 179
1046 147
7692 147
7731 147
7737 147
7849 147
8010 147
8011 147
8140 147
8183 147
9123 78
1048 246
3317 246
9963 78
1049 422
7068 418
1051 146
4334 146
6453 146
1052 363
1794 363
2910 363
3791 334
1055 516
1616 516
2428 516
2572 516
2654 516
2920 516
2992 516
3521 516
9562 8
1057 395
3157 395
4785 395
5857 43
7215 267
8504 317
1061 326
4924 285
7630 433
8852 326
9303 326
9458 326
9733 326
9849 326
1063 235
1295 235
9767 12
9548 313
9594 274
1065 93
6965 40
1066 524
1250 524
2656 524
2741 524
2853 524
3046 524
3320 524
3377 524
3649 524
1067 367
8445 47
4945 418
7923 55
1069 525
2204 525
4735 525
4926 525
5345 525
6040 525
6060 525
6092 525
6217 525
7789 343
5247 462
6277 478
1071 8
9695 8
9870 8
7159 122
1832 282
8582 30
1075 524
2723 524
7634 250
1076 442
3234 442
9229 183
1077 504
1883 504
2732 504
3913 504
4756 504
4862 504
4921 504
5308 504
7412 526
7758 299
1079 504
3264 504
3684 504
4535 504
7659 387
2485 23
3196 23
6724 348
1081 114
3070 113
4448 74
5507 114
6177 267
7680 169
1086 312
1622 312
9304 48
5878 455
7734 43
9174 274
9322 207
9906 67
1092 506
2338 506
3490 506
7654 237
1812 123
7034 4
8653 130
1094 485
3916 485
8745 112
9170 462
9771 107
1096 153
8654 43
9566 207
4221 388
4013 206
9259 271
9634 67
5467 193
8555 12
4704 429
1103 494
6025 85
7397 494
7460 494
7523 494
7691 494
7723 494
7814 494
8801 88
1106 254
6957 254
6993 254
7400 254
7441 254
7499 254
7739 254
7749 254
9512 48
5991 127
1108 435
1345 435
4123 404
9217 144
1109 203
3123 203
2403 423
1111 30
7196 48
9567 30
9737 30
9924 30
9926 30
9979 30
9203 67
9661 110
9778 12
1117 140
6073 140
9219 183
5888 452
2513 400
1669 223
5414 306
3750 287
3481 287
5863 455
2614 131
9128 190
1132 2
7120 313
8308 313
8413 2
8884 2
9292 2
9868 2
1420 176
4544 275
1135 98
6606 99
6694 98
6767 98
6887 98
7133 98
7254 98
7329 98
7360 98
7842 67
1136 294
2844 294
5337 294
5525 294
5882 294
6111 294
6291 294
6604 294
8632 127
9782 12
1137 522
1600 522
3454 522
4937 104
6823 526
1139 217
3781 217
4473 217
4541 217
8643 45
9892 48
3798 527
1141 502
3459 413
4040 502
4284 502
4358 502
4455 502
4528 502
4685 502
4694 502
1142 429
2184 429
2758 429
3933 429
4706 429
4962 429
5024 429
5469 429
5499 429
9318 81
7743 8
1144 331
1918 331
2042 331
5229 315
9320 47
9437 30
2241 502
1147 76
1484 76
2168 76
5952 260
1148 518
4205 437
5225 518
1149 527
2593 527
2661 527
3002 527
3139 527
4196 159
4247 527
4547 527
4814 527
1151 222
1984 222
2281 222
3181 222
3945 222
4199 222
4233 222
6136 198
2556 61
9079 190
1155 495
1713 495
2454 495
2610 495
3289 495
3397 495
3700 495
3776 495
4141 495
7527 493
1156 98
5769 98
7880 18
3864 336
6933 53
3163 231
5264 299
4893 11
4588 423
9212 257
7137 365
1164 428
1167 514
2002 514
2357 514
2822 514
2948 514
3017 514
3630 514
3955 514
7299 7
9026 236
8340 15
8638 88
1170 487
9883 64
5609 441
6061 441
1691 466
9806 78
7411 343
6315 2
8779 274
3906 173
6949 173
1180 422
5826 342
5071 98
6709 98
2923 148
8469 102
1186 514
1503 514
2526 514
8799 55
7475 517
1189 255
6632 43
8677 255
9525 255
9666 255
9840 255
9936 255
9948 255
9992 255
4660 279
8595 207
3543 342
3936 342
4341 342
4635 296
5649 342
5757 342
6080 342
6550 142
3984 67
6689 122
7032 122
7318 122
7807 122
7822 122
8144 122
1195 312
6129 190
1197 181
7225 33
8572 66
8594 278
9043 102
1201 528
1695 528
1857 324
2039 528
2747 528
3050 528
4112 528
4148 528
4767 528
5481 528
1202 36
5753 36
6202 36
6639 36
7261 36
7357 36
7391 36
7836 36
3644 109
4623 251
4841 251
9257 40
6736 109
7204 156
7464 66
1208 413
3051 413
3540 413
3966 413
4131 413
7405 156
1746 376
1210 459
1499 459
3975 148
1213 324
8686 15
1933 469
2432 469
8596 43
1216 423
4329 423
4410 423
4488 423
4549 423
4645 423
4781 423
4815 423
7984 190
8331 313
9675 78
8378 355
1219 151
5081 151
6568 151
6770 151
7308 151
7326 151
7342 151
7498 151
9180 64
3386 382
6817 78
5387 529
1343 399
3096 457
8357 107
1232 426
2361 426
3867 426
9720 48
8018 278
4312 421
4782 496
1471 86
9416 11
9713 78
6734 455
7063 43
9993 2
8880 317
1240 87
4001 87
4419 87
5383 87
9538 77
1242 306
6264 306
6475 477
7936 132
9532 126
5821 185
6416 201
1247 146
1438 146
2381 146
7016 467
1249 517
6525 517
7395 517
2771 261
7486 156
9577 55
6631 496
8932 304
1254 528
3119 528
4845 528
5280 528
7379 300
4035 75
9810 27
9112 18
1517 210
9338 263
4728 486
7724 18
5512 353
1266 428
2117 428
9702 299
2353 373
8275 304
8061 305
9452 130
6517 24
1270 482
9369 274
9346 190
6118 462
8836 263
6381 72
8586 112
1625 232
8385 99
8702 278
7860 12
1278 502
2971 502
9382 12
1621 67
1281 404
2561 299
3054 404
5240 404
5418 404
5495 404
6371 404
6578 404
8983 8
7029 64
9463 102
8046 107
8298 67
1667 442
7414 310
8537 126
7123 212
8835 419
7590 190
9533 207
7105 317
1293 458
1915 458
3073 458
8101 201
5005 186
8293 355
1298 488
1502 488
2564 488
7152 24
9967 126
8551 9
1302 449
2244 449
8210 45
5641 183
8466 85
1304 521
2180 521
3417 521
4100 521
4316 521
1305 489
3437 489
3656 489
4486 412
8436 27
1454 375
1819 375
9879 45
8666 127
6148 288
9558 207
9974 107
8833 70
1313 478
7089 478
7407 478
7693 478
7762 478
8037 478
8300 478
8352 478
8414 478
9341 85
9485 48
2202 519
8216 2
5040 148
7618 48
9627 96
8804 8
3043 287
3623 69
3944 69
4554 69
4571 69
4837 69
5222 69
9919 30
3226 346
9368 85
7292 204
8710 299
1325 311
5913 311
5951 311
5953 311
6036 311
6191 311
6210 311
6292 311
6343 311
8149 67
2711 349
5970 70
9019 77
1327 408
3402 408
5638 408
1577 215
1329 510
2008 510
2034 510
2359 510
2958 510
3220 510
3247 510
3302 510
3892 510
7673 102
7941 156
1330 319
6496 319
9977 257
9265 8
6798 96
8652 186
1567 296
5633 396
1334 230
3749 230
6185 109
2774 386
7554 237
9278 11
6892 228
9959 8
4015 199
4032 199
4168 199
5441 190
6353 159
7919 27
8734 30
8831 107
2528 435
3093 435
9903 274
8858 85
5614 529
9267 64
1349 261
4020 254
4059 198
4855 261
1350 379
6082 377
7593 379
7716 379
7945 379
8207 379
3035 304
1353 192
5105 271
7135 317
8123 315
8478 130
8098 300
9676 9
5281 465
4159 480
2863 199
1361 441
5059 441
5632 441
7236 336
9694 102
1363 408
1364 201
6284 201
7295 201
7340 201
7376 201
7481 201
7607 201
7874 201
8807 337
9511 30
9235 313
9426 190
9839 48
7713 362
7745 362
7956 362
8047 362
8110 362
6888 55
1369 74
5000 74
5844 74
7534 96
7931 74
7974 74
8053 74
8014 467
7577 387
5830 530
1374 475
1601 475
7617 259
9774 78
1376 198
5181 198
5640 198
6140 198
6661 198
7093 198
7119 198
8042 300
6028 379
6086 120
8229 8
6828 370
5587 511
6863 526
7897 77
8600 126
9095 11
1425 449
4949 226
1385 311
5937 311
9287 27
7598 77
8641 126
8719 259
2118 444
2985 444
9386 274
1392 319
5567 319
6166 319
5988 30
8382 477
5681 2
9116 237
3214 239
3306 239
7224 9
7345 315
8812 85
9776 102
6746 418
1807 113
8125 271
6603 99
6824 165
6499 190
8890 77
1408 511
3608 511
4107 511
4333 511
5077 511
5361 348
5697 511
1409 527
2857 527
2911 527
7285 315
8883 259
8988 8
9398 259
5402 529
7524 77
3660 437
4607 437
9024 40
9508 48
9476 241
6721 104
8219 110
4832 24
9583 462
3716 176
4252 176
4344 176
4800 176
5401 176
5476 176
5997 176
2713 407
8944 419
8124 477
1423 206
3326 206
3617 206
4037 206
4348 206
4805 206
4813 206
5041 206
5143 206
8324 462
8656 96
6014 132
8787 110
1427 28
4430 28
5699 28
5972 28
6722 28
8041 53
9647 67
1434 322
5929 255
8806 365
9863 77
1437 28
3346 28
4656 28
4821 146
8926 186
1582 390
4156 207
8996 214
6698 315
8422 9
1444 382
4242 382
4491 382
5180 382
5211 382
5576 382
6476 358
7216 368
9246 40
3464 434
9894 85
6128 439
8900 15
9630 326
1450 36
1520 36
3993 36
4399 269
9086 144
1451 150
2424 150
2738 150
8954 47
9698 9
3934 424
5606 355
2726 90
2280 384
3538 31
5789 254
8788 257
9689 66
9182 274
9228 204
3740 396
3358 91
5396 12
7337 18
7179 267
6542 285
8546 317
9202 236
4646 306
6900 529
5174 426
6329 493
8498 419
1632 51
6341 120
8905 135
7170 370
3824 424
9785 45
1476 388
4741 388
8084 237
8810 41
8311 32
7459 419
9037 236
6958 310
6971 427
7470 283
8004 477
8191 515
9480 66
5263 319
2473 418
9937 78
8736 127
6411 228
6454 228
6651 228
6964 228
7021 228
3680 385
3720 385
3811 385
4370 385
4567 385
4693 385
5179 385
9613 8
9628 274
6967 492
8561 477
8045 427
9017 299
1500 222
2761 222
3268 222
7533 274
7851 212
8250 255
1897 488
4244 488
6919 109
9913 27
8091 241
6968 317
1505 111
3838 111
6354 111
6392 111
6529 111
6815 111
6845 111
6992 111
8552 45
8827 102
1544 50
3718 274
1512 264
4279 264
4401 264
4790 264
5326 264
5424 264
5636 264
5698 264
8614 35
4364 269
4762 99
4836 465
5153 169
7560 343
8545 207
7203 297
4018 169
7091 48
4002 36
6803 36
7206 255
7987 18
3398 134
6879 43
9247 8
1526 516
1988 516
7321 288
9488 48
8763 186
8921 107
9922 45
1703 97
7656 190
1533 104
2684 104
4930 104
5618 104
5848 104
7100 104
7558 104
7690 104
7895 104
8463 315
6931 250
7686 147
4641 443
5500 135
4507 165
5664 45
6637 530
8914 204
1935 224
7425 462
8550 207
5964 204
7253 313
3935 242
8963 274
4583 358
6081 358
6773 258
7354 211
8701 271
1551 241
9340 11
7418 529
7701 419
2518 397
2703 311
7563 493
8462 67
9132 77
5115 168
8685 18
2998 121
3079 131
9321 190
4215 531
9891 55
2603 532
7035 109
6256 185
2196 296
2229 296
4114 257
5085 296
5155 296
6174 115
1568 390
7788 33
1569 445
1570 200
4053 200
5109 200
5493 200
6209 57
6983 200
8400 55
6585 467
5201 462
1573 300
2481 300
6510 300
7129 100
7902 300
7911 300
7995 300
8234 300
8449 300
9308 102
1574 254
3850 530
5610 262
2566 194
1576 177
3354 177
3954 177
3985 177
5131 147
6789 452
9050 55
3651 267
7015 419
1665 476
2041 476
6732 163
6926 348
3837 183
8111 127
8305 144
1588 287
2197 287
2833 287
3592 287
4058 287
4265 287
7067 81
6245 467
6319 285
8922 337
9077 18
9519 110
8392 18
8929 70
7019 288
7813 12
9403 255
1596 460
5771 418
6351 58
5157 297
7805 144
7051 427
3088 446
9231 64
1809 475
4434 321
9846 48
1603 238
2208 238
4592 238
6345 471
9364 48
8674 237
7488 58
5407 38
5563 214
9560 110
1609 148
5444 148
6674 148
6859 148
6937 148
6975 148
7006 148
7139 148
9134 144
3011 253
1835 407
8122 72
9535 130
1612 532
1798 532
1986 532
2311 532
2408 532
2449 532
2493 532
3941 532
4033 532
6621 57
4361 346
4052 499
9391 110
8133 278
8547 11
9942 48
1774 443
3763 120
8862 67
9507 67
9654 67
1623 102
5367 18
6745 362
9330 102
9396 102
9564 102
9837 102
7296 156
9853 47
5805 228
6034 328
5319 250
6408 169
8032 132
9333 66
3275 526
3505 61
3527 61
7742 109
9981 8
6548 362
9953 126
4407 12
6799 418
1638 392
4073 392
4675 392
5091 392
5252 392
5755 392
5889 392
6176 392
9013 255
4559 327
2562 176
8939 462
8949 462
1644 321
9765 27
7250 326
3130 119
9215 78
9460 30
1649 369
3343 369
3762 369
4439 369
7144 201
7938 183
8251 8
8741 115
7685 33
6501 529
8681 257
1656 387
6727 17
9603 78
3380 458
9125 27
9187 107
7157 78
1663 257
8791 30
9575 257
9589 257
9740 257
9811 257
9943 257
9950 257
9999 257
6228 174
9543 70
5592 168
8227 348
7999 337
4749 223
5503 163
7985 107
1673 36
4323 36
5790 36
7885 427
4673 529
5103 148
8438 462
8486 419
9193 66
9951 126
6016 343
7195 297
5901 228
9109 186
6083 494
5259 252
5221 120
9587 78
1685 364
4404 364
5925 364
8402 212
9764 299
6852 17
7188 110
2693 234
7863 43
4436 455
5795 507
6952 35
3362 163
3688 163
4908 163
5906 163
5955 163
6784 419
3510 528
8247 78
2253 117
2262 117
2629 117
3058 117
3365 117
3384 117
4067 117
1699 131
5574 131
6684 131
7090 131
7442 131
7825 131
9020 77
9779 45
1701 200
2692 200
7905 96
1702 445
8802 85
1784 97
2362 47
1704 492
7043 492
7046 492
7358 492
7426 452
7461 492
7503 492
7528 492
2098 220
6776 315
8584 27
4666 53
5940 370
9101 126
9222 169
2679 489
2997 62
8314 212
2800 495
2827 495
7957 204
9677 110
4512 377
7619 471
8967 271
4916 368
1719 321
3416 321
7539 258
9327 236
1722 443
2296 443
3727 443
7281 365
1723 411
2079 411
7623 169
9378 70
4349 431
8170 53
9326 126
1731 164
6463 15
8573 67
8971 204
5792 74
3541 494
1777 376
1736 526
2772 41
5171 526
5532 526
5779 526
5987 526
6564 526
7228 526
7309 526
9607 9
1737 416
3721 416
5331 416
5939 17
8079 30
3182 279
1739 314
1741 314
3156 314
5158 327
2521 314
7008 278
8233 40
1744 260
5656 260
5946 260
8506 55
1745 509
2885 509
3610 509
4368 509
4899 509
9923 48
2081 133
7062 328
7449 4
6001 40
6449 285
10000 462
7708 201
8404 419
6099 446
9912 85
8341 96
1868 457
5190 285
5630 209
1766 498
3227 498
3894 498
3981 498
4127 498
4467 498
4563 498
5206 498
5279 498
5561 498
8027 288
9534 30
5851 8
5661 207
6241 104
1771 330
4256 330
4823 330
3501 494
3198 443
3744 443
1775 300
5274 416
7437 300
7722 300
1776 220
2127 220
5132 220
9430 186
1778 43
7579 419
8764 43
8860 43
7366 237
8945 204
3478 520
3583 520
4917 520
5150 520
5197 520
5267 520
5297 520
9717 462
4647 310
6440 40
5909 533
8411 351
1786 290
3195 290
3859 41
4494 290
5800 255
6671 174
2195 288
8523 67
8854 40
1875 532
2211 532
3767 463
3891 463
3970 463
4777 463
7496 258
8822 77
8696 9
1810 348
5006 348
5896 348
7592 348
7645 348
8383 348
9223 45
1811 400
8953 255
8280 135
6132 236
6718 156
2010 510
5688 362
4397 228
6527 228
6869 228
9787 55
1818 365
7839 365
2670 120
7947 115
2089 191
9669 77
2088 23
2727 198
1823 262
3083 262
6506 262
9780 55
5620 102
8609 274
8955 126
1829 241
8579 67
9428 263
9438 241
7507 337
9115 55
4309 343
8867 263
1834 396
4460 396
4880 396
5292 396
6019 396
6645 193
7597 297
9905 66
2722 457
1837 58
7559 58
7683 58
7537 7
9931 274
9636 8
9817 48
6301 142
6685 148
7894 237
8258 313
8394 32
9611 107
8273 127
3468 352
1848 525
4389 525
4548 525
4816 32
4932 525
5835 525
9404 67
1849 511
2700 511
4751 511
8141 427
1852 379
7823 379
8440 379
8519 379
1853 518
2854 518
4021 518
8396 365
6450 132
1856 485
9191 41
6151 156
3995 198
1863 120
5704 120
6706 120
6832 120
7943 7
9178 41
7417 40
3971 530
8772 183
5461 267
9491 462
4400 457
4672 457
4761 457
4889 457
5156 457
5338 457
6032 457
6295 457
1869 294
2252 294
3164 294
4336 294
1874 31
9455 107
9609 85
3822 91
6941 317
9668 48
7798 236
7522 122
3532 508
5761 258
7389 299
7509 78
2720 533
9245 30
7847 515
4920 318
5291 318
6126 318
9639 27
6905 313
2350 438
8127 478
1889 412
7661 7
7862 412
7916 412
2099 352
1895 444
1896 287
3453 287
1903 244
6414 355
6464 47
8943 8
1904 507
3068 507
4536 507
5975 507
6505 507
6534 507
6547 507
6787 507
5627 342
5958 77
5114 53
8803 204
5680 45
9142 212
6003 370
7264 131
1912 190
8065 190
8707 351
9271 190
8109 250
5113 421
5373 421
5508 421
5679 421
6138 421
6516 421
6609 421
3502 458
4901 458
9324 257
8016 278
1917 193
5604 193
6780 193
7164 193
7171 193
8782 67
3252 331
4722 515
7141 45
9570 88
5580 186
9375 107
6389 2
1923 1
3439 1
3928 1
9985 66
8839 126
1926 519
2049 519
1927 24
4952 24
7320 24
7741 112
7898 24
7950 24
7992 24
8082 24
8208 24
4000 299
7949 250
7364 517
1934 239
7446 45
1936 109
6387 109
6779 109
7616 109
7729 109
7735 109
1938 300
7963 300
5490 462
7489 493
2855 436
7648 255
2066 134
2153 134
2434 134
2514 134
2617 134
2662 134
3291 134
3462 134
1947 520
3455 520
3962 520
6636 493
8857 78
8947 462
9160 27
9610 48
9055 2
9833 55
4219 77
4345 415
4566 415
7681 47
4437 355
9618 66
9164 9
1962 27
9696 27
9701 27
6747 33
1964 13
4484 13
4872 13
5212 13
6167 165
9884 30
6452 530
1968 147
5405 263
7436 147
7569 147
9470 107
5087 337
3443 352
8873 259
9302 11
5739 104
9058 462
8842 48
5479 486
3174 115
4653 410
8015 471
2941 315
8063 337
6831 173
9805 27
8024 304
8622 304
2000 511
6344 267
8703 190
9446 27
2003 250
5855 427
7684 250
8075 250
8285 250
8391 250
8491 250
3937 434
8368 183
4912 112
7679 315
9651 47
9852 126
2013 494
6058 494
8428 132
2014 0
3074 0
9082 299
4303 58
9861 12
2591 531
9238 48
7888 271
6294 446
7504 48
7761 355
5876 38
2022 392
3689 392
4286 392
5167 392
5977 392
9835 12
6219 148
7189 299
5151 159
3787 533
6055 15
7056 370
7352 4
5713 130
8262 72
9293 212
9551 55
7870 55
2040 523
2632 523
2634 523
3311 523
7709 55
9351 11
7073 110
5189 409
7706 427
3131 327
5694 421
9699 462
9343 274
7599 283
6318 478
7719 471
3057 388
9401 66
6378 111
8981 15
2489 134
9400 183
7797 190
2069 64
7977 48
7108 462
5597 301
8158 8
3875 345
2074 41
4628 311
9057 41
9208 41
9421 41
9445 41
9473 41
9528 41
8264 419
5750 198
2082 41
7766 85
8999 41
9252 41
9283 41
2169 523
9205 30
9899 48
2161 511
5745 496
2274 486
3236 486
4382 486
4492 486
5626 486
8680 263
9462 8
2092 486
3896 486
4183 486
4562 486
4636 486
5778 462
8669 288
7976 40
8583 47
9524 326
9860 30
2096 327
4267 327
4961 327
5250 327
5289 327
5348 327
5349 327
5379 327
5684 327
9641 66
3394 220
3463 220
8548 186
2829 352
4195 352
7031 493
8301 67
2100 253
3061 253
5872 253
6590 253
6816 253
6945 253
7039 253
7050 253
8059 8
9516 130
5950 236
6332 57
9471 96
3666 124
2108 328
5960 328
6997 328
7151 328
7162 328
7239 328
7333 328
7450 328
9263 110
6441 431
6235 313
2119 274
3063 223
9649 274
9784 274
8126 88
2865 410
2124 464
9866 77
9355 85
6837 433
8919 11
2132 283
7755 283
8348 283
6064 67
8325 304
9078 204
7339 64
2139 230
2289 230
3197 328
7982 212
9105 15
7782 477
2142 472
8254 255
2143 513
5453 513
8828 204
9683 183
8518 371
3926 169
5423 533
4359 351
7172 127
7611 40
8494 40
2152 106
3288 275
3843 334
5195 403
4030 353
4524 67
4718 111
2157 7
7760 7
8069 7
8263 7
9970 27
9885 126
8909 8
9857 77
8335 55
4984 364
7830 30
8038 214
8156 271
9804 257
5406 127
4337 122
5258 121
6617 431
2175 446
5090 446
5393 446
5530 446
5773 446
6044 446
6365 446
3151 242
2177 529
4440 529
5241 122
5689 529
6457 529
6943 529
7431 529
7620 529
7677 529
5727 102
9722 274
2182 49
3245 49
4218 49
4343 49
9553 77
5251 267
7940 237
2657 3
4509 429
5509 429
9982 27
9920 48
2187 355
6901 355
7181 355
8007 355
8130 355
8172 355
8294 355
8350 355
8522 355
6050 70
6951 515
4087 416
3232 439
3340 335
8840 288
2194 31
3286 31
6903 288
7408 55
8885 288
2328 296
2438 296
3012 81
3171 296
4405 165
4791 296
6046 533
8735 110
9151 12
3939 307
5868 126
2201 412
5203 278
6198 412
6265 412
8990 462
8843 313
5001 525
5192 525
6750 4
2206 153
8165 144
8539 64
3821 238
9225 2
8372 88
2210 181
2331 181
4298 181
6912 2
9586 9
2213 527
2953 315
4773 24
8899 55
2215 140
4717 140
2216 432
2441 432
3559 432
4612 217
2219 421
4540 421
5065 467
6399 421
8725 315
2220 319
3775 319
2221 518
2223 301
4216 301
6066 446
6311 301
6393 301
9273 47
8824 99
6728 533
7967 186
2227 126
7571 236
8646 126
8664 126
9559 126
9681 126
9746 126
9826 126
3528 296
8108 135
3248 242
7346 130
2232 413
2678 413
7317 353
2233 275
3179 275
4970 275
5705 275
5862 275
6181 35
6225 275
6306 275
3836 27
8749 259
9087 70
9009 66
3808 159
2238 279
4124 279
4522 279
4543 279
4869 279
4882 279
5248 279
5296 279
5438 279
5615 279
5923 159
4009 241
2862 502
2415 137
3117 137
4176 137
7865 255
3925 526
8800 18
6458 285
8798 263
6691 186
4198 294
6431 112
7997 107
9088 15
5935 57
9357 462
4591 225
9284 236
7185 8
7136 78
7887 9
5220 243
6935 371
6692 135
6699 211
8309 17
7448 40
7703 53
5431 254
7383 515
7393 81
7697 250
6247 159
9927 85
4246 384
5409 412
5312 267
8631 11
5869 398
4227 137
2287 255
3121 328
9289 255
9991 255
2515 230
3461 353
4110 165
5908 163
9754 12
2293 531
2523 531
3062 531
3725 531
4973 531
5094 531
5243 531
5306 531
5715 531
5796 531
3243 269
3414 443
8755 30
9014 190
5947 278
8871 18
4958 121
5777 533
2673 364
7926 33
8102 144
7315 462
2307 321
8386 467
3544 233
9929 78
7824 515
7472 283
6622 48
8535 257
3547 251
9807 48
4317 403
5257 403
9584 462
6239 371
4398 530
7038 299
2322 49
7023 433
6324 328
5235 494
8759 107
8845 2
9940 67
3520 8
2707 221
8031 88
9169 263
7444 207
6076 302
9477 64
9664 30
2339 231
5335 231
5728 231
7347 38
4064 237
2990 512
2993 512
3563 512
6764 47
7787 226
2348 260
4650 260
5462 260
5355 8
4116 395
2352 77
8598 77
8758 77
9272 77
9499 77
9518 77
5686 90
2354 43
6847 43
7401 43
8376 43
7541 66
9482 12
2856 140
9379 67
9617 77
2358 118
6902 118
7156 118
7362 118
9653 47
9711 47
9766 47
9824 47
6045 275
7960 132
9623 299
8078 304
2368 102
8777 9
9475 102
9420 313
6067 9
2371 310
5658 110
5993 310
6221 310
6442 310
6985 310
7042 310
7176 310
7556 310
7820 169
2373 515
5804 515
6322 515
7605 515
7771 515
8193 515
8319 515
8346 515
2768 176
6379 144
5244 499
7626 368
3075 131
9175 130
5833 328
5999 377
2383 398
3771 398
4458 398
5026 398
8700 337
2386 370
3988 370
4313 370
5932 370
6467 370
6512 370
7004 370
5513 465
9591 110
9755 110
9917 30
8882 107
6757 40
3895 36
7935 387
9978 8
2401 0
2916 0
9520 55
4237 423
8472 72
4435 346
9374 11
9268 12
4857 70
6048 452
2724 382
3078 21
4561 382
7235 12
2416 48
4483 498
7371 48
8968 48
9540 2
9777 48
8090 190
8484 64
2420 112
8423 112
8502 112
8564 112
8754 112
2421 62
4223 62
5328 62
5422 62
8052 40
6507 81
6668 35
8371 304
6206 81
7871 326
5540 471
2429 377
4340 377
6531 377
7066 377
7245 377
7398 377
7487 377
4220 98
2433 9
7649 9
7817 353
8406 107
9197 9
7575 47
7928 47
2899 139
4520 48
4719 365
6655 439
7276 8
2631 404
6459 17
6855 147
8365 130
2446 424
6119 209
2447 257
5111 258
7343 257
9442 183
9494 257
9569 257
9968 257
8795 144
2876 493
8242 107
9439 183
6591 72
8211 241
5810 355
3709 446
3764 455
5775 409
2995 122
9598 8
7969 132
8513 255
9184 186
7112 102
6312 346
6976 418
6236 48
2475 102
5144 212
8470 102
8786 35
8970 102
9856 102
5936 112
9911 85
7990 212
2479 264
3715 264
4328 264
4396 264
7177 478
7700 53
5559 300
8640 8
3305 507
9307 107
4736 1
2486 433
7443 348
7672 433
8742 326
4394 165
7332 427
7929 427
8006 427
8099 427
8760 427
7981 11
6274 151
3489 242
8529 299
9389 462
9749 12
9474 70
8559 32
2644 415
6146 174
8419 85
2502 533
4716 533
5965 533
6555 533
6934 533
6966 533
7078 533
7222 533
7473 313
5703 4
7632 81
8636 305
2507 368
3609 368
6515 368
6729 368
8178 305
9848 66
2511 257
5746 455
5811 348
8517 419
6053 377
8131 18
6644 8
3278 238
9328 313
2519 494
5093 494
6212 494
2522 225
6435 278
3590 531
4801 109
5098 531
7109 112
2524 197
3881 197
4122 197
5389 404
8543 15
8797 47
8578 207
2531 142
6664 142
7846 142
2533 427
4129 427
8134 427
2534 197
7603 169
7608 53
9140 169
7410 271
8740 241
9869 8
7434 169
8698 110
7652 493
3104 135
2546 252
4611 252
5176 252
5914 252
7001 353
4982 27
8708 236
4254 350
3586 260
4643 457
2559 431
3739 431
5515 431
4891 156
6030 255
3699 176
3846 176
4061 176
5083 396
9241 462
3047 194
4964 194
7561 387
2568 57
3016 57
4807 57
6215 57
8773 85
3067 84
9578 326
3436 306
7532 96
2801 101
3274 101
7186 35
4158 364
8619 304
2578 5
4587 5
8993 236
8848 126
3064 346
2586 248
4408 248
4634 248
6772 467
6849 452
2589 387
6940 452
7907 387
7419 204
8403 72
7272 81
5812 455
2594 447
5980 115
6418 410
6234 77
7060 427
6149 58
7744 337
5545 530
7795 297
9547 88
2600 177
5538 351
6323 379
6999 337
7242 336
2604 443
9433 85
6867 100
7071 100
2607 290
8650 371
2609 429
4918 100
7578 304
2888 163
6218 131
6680 131
2906 342
4654 8
2616 100
6250 77
7102 100
8658 462
6875 263
8789 204
6716 225
7267 156
9405 204
2622 163
2834 163
5182 163
5432 163
5968 471
6293 163
2624 496
4696 496
5843 496
6006 496
6207 496
6299 496
6363 496
6807 496
6906 496
2625 149
2815 149
3724 149
3818 149
6701 185
6238 362
5585 404
5849 404
6097 404
6840 151
8897 40
4490 455
6963 66
7505 66
7924 45
9286 66
9332 66
9965 66
6479 492
6719 271
8512 135
2643 211
5272 211
5666 211
6059 211
6662 211
6954 211
7305 211
7355 211
2645 530
3994 530
5560 530
5725 530
5791 530
5933 530
6526 530
6635 530
9045 271
4493 427
4981 107
2896 271
5922 409
4034 102
3693 3
4006 3
9148 186
7373 288
9517 12
8659 278
2665 499
4778 499
5135 499
5188 499
5351 499
5395 499
5702 499
5818 499
6520 499
2666 382
5294 433
8533 337
6883 300
5350 173
6102 120
6260 120
6397 120
7263 64
2672 406
8950 259
9515 8
8475 32
4039 8
7325 48
3982 206
9069 66
2681 336
5808 336
6765 301
7106 207
5520 104
6163 104
7271 104
2685 236
8958 236
9213 236
9226 236
9282 236
9362 236
9467 236
5973 30
2687 388
8616 112
8940 107
7878 258
4847 285
7420 387
7804 216
7858 53
6569 165
6697 379
5794 259
9301 313
2701 498
3329 498
6711 418
7432 305
8420 214
5262 458
9800 107
2708 158
5924 158
6986 304
7465 35
2710 263
8429 263
9005 263
9530 263
9738 263
6723 47
8057 317
9466 78
5226 496
8105 64
2714 529
6482 529
6740 529
6996 529
7469 529
9748 85
9373 204
8978 212
9864 274
2718 146
8320 15
3552 533
3405 48
4450 457
6657 8
3223 41
6331 243
7983 214
5582 198
3831 194
3999 371
5104 194
6929 72
2731 251
3549 471
3331 504
7815 168
7899 168
7639 130
2739 394
4578 254
6157 409
2745 342
3160 342
4853 342
6137 96
9016 169
2748 99
6785 99
8056 263
5400 348
2750 531
2752 369
3065 369
2753 463
7873 2
6938 132
2755 201
2756 258
5127 346
4214 3
8362 477
4423 481
8575 110
4803 452
5809 142
6540 365
6562 201
9335 313
3406 283
2769 165
3897 165
4506 165
5920 165
9135 11
6820 387
5415 231
6251 507
7297 351
9599 64
9498 207
2784 115
5831 144
8461 115
8675 115
8691 115
8694 115
8780 115
6800 297
8485 66
6117 465
8443 67
9939 12
2793 318
9600 257
2794 88
7790 88
9348 88
9544 88
9732 88
6707 465
2798 302
5410 302
5747 302
6838 302
7097 302
7117 302
6444 492
7682 259
9643 67
8454 66
2810 408
3952 408
4415 305
4734 43
8859 477
5318 362
9353 462
2814 118
8296 48
9802 85
4096 310
6642 310
8866 207
7832 462
2826 111
7775 99
8457 81
6759 132
8925 88
6511 365
9925 78
3923 377
8712 257
6725 74
8984 212
8911 78
9497 77
4992 72
9581 67
4817 294
2846 33
6822 33
8094 33
9359 85
5058 138
9855 2
6232 350
3682 140
5149 140
9902 66
9030 12
8064 53
2861 470
3865 470
3146 199
4753 410
6098 410
6430 410
6530 297
6782 410
6801 410
6835 410
7122 410
2868 174
6928 174
7303 174
7609 174
7663 35
2869 91
4874 91
4898 91
4993 91
5426 91
4292 91
4084 406
9120 70
6189 493
6683 493
7154 493
7173 493
7262 493
7529 493
7531 493
2880 327
3793 327
6145 253
6984 122
4867 370
2892 313
4470 85
9083 313
9662 77
5624 271
8077 271
8765 271
9316 271
9419 271
2897 114
5048 114
3641 305
2901 168
8493 30
9253 207
4720 318
3582 533
8959 9
2909 385
3685 385
4113 385
7702 419
2914 350
5786 350
5963 350
6027 38
8790 257
3066 508
3823 148
7020 212
4189 526
2926 517
6910 517
9339 8
4556 346
8690 67
4463 477
8737 96
8190 127
7300 465
9388 186
4990 102
6600 216
6656 216
6882 216
7421 216
6556 58
6563 278
5025 274
7277 315
7779 315
8051 315
8374 315
8482 315
8612 315
4870 317
7140 7
9790 274
2949 319
9565 27
2954 206
2955 197
4125 156
7711 274
2959 481
3713 481
5687 481
8935 88
7288 30
5108 33
9667 27
3804 446
2976 408
8238 132
2977 457
7457 183
5055 313
2980 255
4422 353
5579 111
9450 255
9464 255
9867 255
9933 255
2986 57
4228 57
6766 267
7914 471
7048 132
7026 336
7662 241
4118 262
9299 130
9593 9
9626 126
9323 77
6830 122
7751 122
6038 144
7732 102
3758 62
8811 237
4324 121
7132 99
7631 427
7246 78
6704 258
3810 3
5506 343
9893 45
3008 72
8562 72
8676 72
3010 515
5046 515
7462 515
7892 515
8366 115
5056 253
6143 66
6865 253
4852 81
8412 81
9305 81
6978 24
3020 82
3548 82
3643 82
6203 32
4305 396
5385 57
5442 130
5134 114
3019 345
5774 257
7653 317
8508 77
7330 462
7392 237
5817 477
6380 431
3031 441
3637 441
9743 78
3761 216
5837 465
7076 135
6492 226
3091 403
4421 403
9168 27
4007 452
7491 343
5891 207
4269 35
3948 190
8215 371
6713 455
6911 53
6741 515
4980 142
5032 404
4953 30
8590 477
9529 48
8220 107
7233 67
7948 15
5528 223
5717 223
6070 223
4478 346
5765 346
5815 346
5926 346
5589 204
6310 418
4314 84
4441 84
6222 507
8556 477
3069 91
5711 91
7240 351
7526 343
3071 301
3189 301
3978 301
6571 107
6462 255
4240 69
5417 131
7458 88
4210 21
6519 267
5793 131
6316 131
3081 492
5388 259
6856 492
6868 492
3082 403
5498 151
9360 186
8930 15
3085 499
4311 499
3802 300
8934 81
3307 457
4574 492
3098 446
8849 337
7146 478
8756 135
3106 45
8620 45
9759 45
9071 299
6395 315
8363 127
8721 271
9493 263
5465 236
3136 254
5038 237
4553 328
5756 328
7338 81
3124 377
6035 377
6144 377
7005 275
3126 74
5008 315
7074 74
9297 204
9001 30
9067 462
3129 186
8364 186
9162 186
9248 186
9298 186
9407 186
6041 409
3133 455
5070 455
6201 455
6208 455
6619 455
6907 455
7143 455
6429 254
3138 32
4829 517
7255 32
7378 32
8182 32
8448 32
7183 493
8621 12
5780 335
3143 144
8433 144
9063 144
9146 144
8418 462
3148 422
3415 422
3654 216
9916 30
8070 48
9425 85
9910 8
7149 317
4530 126
7966 66
3159 267
6663 267
6895 267
6989 267
8162 462
8393 337
3783 74
4447 77
6652 185
9604 77
5870 231
8606 35
9342 207
9843 12
3173 273
8139 115
3175 350
3315 350
5370 467
5886 350
3177 409
5303 409
6267 409
6314 409
6340 409
8927 2
3178 75
3349 75
4280 75
9904 107
3183 279
9211 8
3184 492
8684 30
7349 371
7279 33
6758 301
7232 274
6357 313
9990 77
9023 55
9133 30
7103 132
5629 24
3980 334
5234 419
6861 17
9157 77
4290 412
3204 7
5285 7
6390 7
3205 151
6774 151
3206 212
6230 212
6826 348
8670 212
9210 48
9277 212
9417 212
3208 158
3440 158
5013 434
9255 67
7104 207
3587 98
3215 370
6313 370
6461 370
8261 15
4849 313
8166 353
9204 237
6342 362
6990 156
7642 156
7833 156
7843 156
7917 156
6088 169
6930 41
8265 40
5196 346
3231 398
5420 439
4708 8
7753 300
5366 530
7099 226
7752 371
5239 507
3242 36
5895 36
8093 297
4354 269
6916 142
8635 183
8569 77
8645 190
9325 64
4456 223
8503 351
3263 174
4166 156
6258 174
3266 33
5170 33
7937 259
3267 102
5215 406
9294 102
5489 40
5463 348
3270 515
5353 28
4585 465
6493 387
3879 526
5514 526
3276 499
3714 499
4167 212
8427 12
3277 517
5339 517
6874 257
7304 45
9418 66
3280 109
6214 371
6558 109
8998 212
5707 77
9237 126
5979 371
6446 305
9934 8
3717 526
9549 30
7341 66
4595 507
5942 507
3310 520
4207 78
6172 201
7545 32
3313 345
6013 32
4686 533
9158 77
3316 337
6566 337
8055 337
8204 337
8540 337
3318 311
6147 48
6839 387
9041 190
7275 24
7800 41
3325 513
3780 513
4514 513
8496 112
7866 96
3332 336
3967 358
8913 204
3434 480
4135 480
4153 480
6618 226
3336 496
3794 496
9034 45
8672 81
6543 433
6498 335
9808 126
7118 467
7756 15
3882 384
7380 190
5253 4
5743 67
3350 13
9196 274
3569 91
3359 209
7552 209
7883 209
8231 209
3360 353
4960 305
8154 353
8232 353
8360 353
9523 110
7213 236
3766 330
4128 330
3369 69
3671 69
4365 69
9110 48
4366 285
5185 285
6223 285
6386 285
6575 285
3375 421
9395 30
9975 30
8087 9
8942 263
3387 433
5600 387
9845 8
7602 85
3432 158
9935 85
8196 299
9620 67
9453 47
8846 48
9847 48
8520 130
6602 493
9734 126
3409 104
5036 104
4909 353
6096 241
8587 70
9542 70
3760 271
6605 174
5299 409
6797 343
6514 300
7668 77
7013 38
4677 85
5080 48
3442 241
8453 241
5990 259
7808 263
8405 212
5230 343
3594 530
3449 21
4740 297
3456 45
3457 165
3738 165
4363 165
5164 165
8966 186
7065 353
7655 353
7479 274
3647 434
4627 434
9762 55
9980 48
3466 32
7891 32
3759 70
3469 481
6257 110
3470 262
6101 100
8180 35
8497 271
6688 471
7845 433
8896 274
6022 529
3486 216
3751 216
5783 216
9224 85
3488 126
4605 302
7384 126
6270 96
7828 78
9411 126
3900 494
6269 40
4703 364
8236 471
7638 55
9563 64
7886 15
9614 64
9705 8
9706 8
6627 81
8198 477
8657 186
3525 67
7131 32
8471 419
5034 343
7516 305
9631 107
7614 305
8747 107
6448 471
7145 471
7416 471
7784 471
8034 471
3551 98
3992 98
4979 98
4985 168
9736 8
4699 418
8306 169
7986 8
3723 122
7530 299
9012 126
4424 533
4892 533
3584 107
8724 107
9490 107
5799 241
5408 260
9556 8
3589 102
7868 462
6814 257
9697 462
3604 355
7627 355
8604 355
3606 151
5069 151
8159 351
9724 78
5710 368
7211 53
5485 371
8249 371
8474 371
3613 27
9710 27
8695 40
4296 138
3620 111
3628 111
6939 250
6375 48
6969 477
9049 81
4834 477
5443 77
6546 241
3629 423
3633 255
8830 110
3638 248
7480 70
3862 419
8480 305
8554 305
8744 305
8814 305
5695 109
8671 135
8145 41
9018 18
6673 267
8662 462
3652 334
5021 478
6641 7
5602 216
7134 115
3659 353
6793 353
8602 257
9347 40
7725 274
3661 18
3664 118
5118 124
9914 462
7904 12
9361 88
4776 159
5166 159
5363 159
6368 159
6406 159
8002 337
8401 351
3675 225
3677 78
8630 255
3681 5
4386 5
5553 5
4322 140
5569 12
3683 465
4275 465
5216 465
6246 465
7101 465
7107 465
7390 478
6676 102
4069 392
7915 18
7335 419
6979 41
8195 326
8213 85
3698 343
5741 32
7231 343
8192 343
7127 478
8288 351
9147 462
3710 337
5372 368
4203 127
3712 335
4631 335
5209 335
5729 335
9145 66
8023 204
4789 526
5521 371
6124 526
9503 274
8819 186
5548 2
7547 135
3887 416
5899 416
6500 416
7014 226
4510 122
8838 144
9040 88
3726 351
7058 351
8397 351
8679 126
3732 118
3734 198
7075 348
9011 169
8775 236
5905 431
9941 462
8571 30
5293 254
5327 185
7003 169
6308 186
9066 130
3753 302
4774 302
4302 7
3756 243
6199 243
6560 243
4420 67
5852 62
9176 70
9010 271
9181 271
3963 120
5386 237
5714 299
9468 55
3773 243
5378 243
5487 15
5238 288
7643 299
8515 11
8668 419
7932 130
9828 67
6024 74
6936 74
8794 313
4454 259
9038 40
6468 209
7027 365
4367 496
3795 48
8923 48
9296 48
4944 200
7098 64
7968 250
5885 64
8424 85
3807 207
7764 207
7806 30
6504 211
3812 410
4946 410
6231 410
8974 255
9730 66
8738 66
6601 67
7714 313
7970 478
4798 126
8029 12
6781 515
3886 326
9818 462
6369 214
5919 237
6404 412
6777 186
3832 183
8289 183
9236 183
9436 183
9684 183
8044 67
6394 271
3835 310
6592 310
9363 183
5669 111
7494 156
3839 174
5867 174
8355 67
9240 326
5879 263
6650 326
3849 142
7070 142
9821 8
9027 263
3857 337
8336 236
8488 41
8908 419
8917 419
7568 58
4648 193
8303 126
3870 317
6536 317
8820 317
9179 326
7081 241
8322 186
5546 12
5068 124
8538 132
9358 66
9052 15
7606 326
8549 326
9130 183
9319 96
7214 278
3910 147
4757 32
3903 132
6970 132
8699 132
6150 278
9234 237
5784 173
8260 274
3911 346
5159 253
4026 90
8437 419
5449 526
7827 110
8655 169
8813 15
9100 169
7430 278
5864 302
9500 2
4428 216
8066 112
9585 11
7996 190
7030 81
5494 204
7980 66
6921 365
5776 328
8720 112
3972 142
9456 326
3977 111
6455 67
9750 67
6033 64
6113 370
3989 477
5768 477
6243 477
8359 477
8467 27
5478 452
5340 299
9099 259
6720 130
6981 371
8035 299
6885 18
8644 15
6768 452
7306 209
4409 301
4011 236
5146 243
7350 250
7622 169
7712 237
8541 204
8851 126
9522 102
4036 241
8937 241
4038 72
8315 8
9413 8
5505 368
8132 477
7772 85
9799 126
5051 127
7265 102
4057 371
7869 278
4769 462
8972 237
8995 237
4287 18
9844 126
6950 38
8872 130
8129 41
6015 17
7727 12
4085 305
5029 305
8283 305
4086 419
7381 419
9873 8
9487 2
5124 310
8152 365
4098 41
4099 297
5880 297
7387 297
5734 126
9555 12
8881 8
9457 274
5557 112
8115 257
8416 257
4185 262
8931 183
6574 371
9898 55
4550 147
7049 156
7584 156
4126 515
6705 515
5575 122
6360 351
9350 2
4136 216
7198 271
4139 17
7007 250
7485 17
9127 27
7247 33
7973 183
4149 70
8390 70
9136 70
6614 278
4793 267
9753 64
4160 200
5390 304
7429 462
9336 12
8334 53
7175 467
4184 17
6544 17
8148 130
9960 107
4193 99
9062 48
4202 365
8157 365
6142 130
7972 127
8704 127
7581 78
6287 72
8146 77
8244 77
9619 8
8272 48
6700 64
7447 85
4232 371
5391 462
8877 462
8500 64
7374 351
7508 326
8499 45
4250 130
4251 33
6858 33
5974 226
7256 53
9042 212
5605 278
4260 241
4996 99
7721 130
9878 67
4752 465
5219 465
6420 465
9394 259
6321 112
8407 326
6922 185
8225 132
7906 96
8599 112
8187 313
5177 127
4300 211
5049 211
5904 211
5435 58
4306 64
6994 343
9483 462
4315 38
4929 38
9106 27
6195 99
4325 465
4326 274
6597 18
5459 368
6285 107
6842 122
4338 419
4842 41
7218 53
4339 35
6133 377
8473 278
4342 204
9166 204
9408 204
9658 107
9414 107
4350 271
5210 70
4353 201
6649 201
4355 132
8624 351
5047 211
4362 35
4840 237
5966 285
4371 250
7665 250
4373 267
8733 67
4380 228
4381 114
4649 114
4383 288
4516 5
9108 2
8203 299
4387 336
4902 11
9104 48
4393 285
7351 78
4968 228
5646 228
7939 18
9216 326
7628 169
8501 169
8770 169
7705 110
6472 517
4412 7
4418 410
9102 67
7476 112
6744 263
7562 297
8941 110
7799 355
4442 529
6359 77
5911 74
7130 77
9218 259
9370 259
8113 30
9871 66
6959 477
7478 88
7573 204
4709 85
9955 85
6304 118
8223 204
9995 48
6894 313
9469 274
6927 433
7538 88
4482 431
4537 13
6794 412
6897 43
6401 78
4545 409
4500 362
6093 462
6103 362
7174 362
7187 362
6178 4
5313 5
8349 288
7356 348
6908 48
4523 493
6643 493
7148 493
5429 478
5912 478
6539 478
9646 126
8625 78
5874 507
4538 326
7615 462
9200 47
4692 467
5608 328
8530 236
5140 72
6987 144
7280 462
6654 48
8627 70
5045 492
5657 250
4576 317
8588 207
4580 151
5377 151
6739 78
8980 48
4589 365
4661 144
6702 4
7951 4
4998 348
4601 517
8001 64
4614 43
8071 43
8095 43
4615 201
7274 462
6988 209
5806 78
4644 406
6864 193
8989 2
9495 11
4652 38
6672 144
4965 318
6164 271
8200 53
4681 40
7954 40
4684 517
5518 517
5097 477
6955 88
4688 185
4689 201
5502 201
6726 35
6170 467
6646 467
8279 467
8805 257
5738 283
4705 494
4707 53
8567 130
5475 18
7207 32
5075 12
5434 515
4972 193
9232 9
5731 371
6715 297
7041 297
9070 15
6480 102
7113 32
5310 253
7588 315
8164 317
8297 81
4779 237
7777 183
6788 348
4783 315
9526 11
4786 207
8648 207
6358 66
8853 81
5317 126
7544 433
5782 477
6795 326
5287 32
6630 258
5398 24
6880 107
7864 477
4835 253
6110 253
8160 40
4894 237
6278 214
7178 237
8916 110
4844 214
8317 214
4854 126
5468 126
8768 70
7386 326
7674 427
8767 263
4868 96
6355 297
7468 326
5839 168
9725 55
4885 225
6703 96
8036 27
9206 11
7848 237
9137 11
9185 11
9354 11
7456 209
6754 100
7022 263
4925 81
9044 81
5204 410
5858 226
5825 24
6812 24
6068 477
7754 30
5269 118
7266 85
5797 379
6054 9
4969 190
6533 190
4974 55
7629 55
9502 55
4975 96
4977 471
7501 471
8197 299
7861 207
8248 348
8870 12
6567 315
6300 493
5015 53
8054 135
6009 102
5018 226
7859 18
5572 30
7979 64
5030 274
5033 343
6953 211
8661 12
5061 183
5062 33
6047 212
7451 365
7978 15
6348 326
8116 337
7017 9
6183 4
5099 305
8384 40
5110 236
7811 236
7840 144
6432 214
5117 462
8147 207
5877 147
6524 243
5148 27
5496 168
8326 77
5160 85
6588 263
7028 99
5834 30
5175 27
7918 27
8455 27
6690 278
7200 127
7730 127
5329 214
5517 173
7912 355
9244 263
5198 278
6829 278
8629 278
5207 299
5986 53
8175 379
5595 343
6072 419
5552 471
9739 462
8299 2
8495 313
6364 4
6682 462
7587 283
5480 211
5286 102
8080 127
5838 66
5295 225
7024 115
5692 362
6011 362
8367 214
8997 15
5333 122
9573 2
7583 8
5375 96
5511 126
5781 214
5861 379
5832 283
6439 237
6581 259
7385 259
8189 12
5413 467
6693 55
5823 478
7567 135
7565 2
5748 18
5482 214
5483 241
8151 77
9195 47
5801 492
5708 135
5536 186
5716 471
7512 8
6336 387
7210 2
6423 193
6509 471
5554 236
7234 144
5625 237
9489 78
8521 135
6658 58
5596 467
5599 418
5612 271
7301 237
5631 274
5651 47
6878 478
5647 110
8302 66
5671 47
6037 379
6587 379
7921 379
5682 70
7651 102
8432 55
8171 169
6084 317
5719 135
8188 462
6580 144
5764 297
7369 462
9118 255
7069 207
6288 336
8361 12
6276 271
7600 183
9021 66
9793 66
6557 96
7375 126
8256 207
5892 58
9345 8
9830 8
5910 365
6508 315
7536 78
5930 190
5931 326
5944 250
8483 85
6771 204
8290 204
8649 30
9199 66
7055 67
7087 115
5983 132
7818 259
6007 85
6018 77
8611 299
6731 144
6056 115
8138 66
8815 30
6948 41
9440 257
6069 288
6071 214
6361 18
6696 64
6974 100
6100 183
6108 81
6756 72
6687 255
9138 88
6282 66
9786 66
7989 186
6561 78
7543 2
6233 305
6255 259
7493 67
6866 43
6330 337
8268 41
6893 126
6410 12
6477 11
8986 66
7881 96
7454 81
6802 433
6972 107
9054 107
6559 47
7293 107
7033 183
8353 8
8136 2
8375 55
7205 35
7283 35
6834 144
6735 85
6753 126
6761 64
6860 259
7124 15
8327 9
6924 127
8544 8
8088 41
7319 283
7582 85
7889 207
7311 88
