1 0
4480 1
4789 2
5900 0
5924 3
6911 0
7703 4
8686 5
8886 6
9156 7
9229 0
2 8
2374 9
2455 6
4367 8
4462 10
4980 11
8069 8
8840 12
9193 8
9530 13
9651 14
3 15
784 16
2803 17
3197 18
5074 19
6633 20
7237 15
7340 15
8410 10
8775 15
9665 21
4 22
2316 23
3496 22
5970 24
6641 25
7136 26
8103 27
8225 28
9677 22
9679 22
9965 29
5 30
1017 30
2224 31
2420 32
3849 33
7246 30
7783 30
8155 34
8233 35
8460 36
9215 37
6 38
1294 39
1381 38
6338 40
6963 41
7574 42
8058 43
8238 44
8456 38
9328 38
9505 45
7 46
2845 46
4695 47
5811 48
6806 49
7139 50
8373 46
8924 51
9233 52
9875 46
9916 53
8 54
658 55
1833 44
2380 56
5249 54
6395 36
6991 54
7138 50
7378 54
8750 57
9 58
652 58
745 59
914 12
3699 60
5540 61
5912 62
6227 58
6272 25
6689 58
9514 20
10 63
1995 63
2092 63
4858 63
5043 64
5603 65
6100 66
6990 67
8480 68
9159 69
9723 36
11 70
3561 64
4347 71
5529 72
5702 73
5731 25
5845 70
6369 74
6922 70
8339 75
8500 70
12 38
3088 76
4896 38
6622 42
7459 62
7725 77
8907 60
9032 78
9323 38
9615 62
9878 38
13 77
1522 79
2336 80
6933 77
7067 81
7146 77
7982 23
7989 82
8459 77
8732 83
9985 84
14 17
965 32
2277 82
2872 17
2900 17
3141 26
4846 83
5198 85
8781 86
9327 17
9928 87
15 88
2164 89
3866 88
5217 90
6238 88
6849 91
7085 56
7936 63
8839 88
9800 64
16 92
4068 93
4372 92
6049 94
6936 5
8282 92
9031 74
9646 95
9686 96
9823 92
17 97
1571 98
2098 97
4270 97
5542 97
6637 99
7787 100
8302 101
8448 97
9098 102
9910 103
18 69
338 104
2076 105
4556 23
5237 106
6676 69
7910 107
8666 108
9064 109
9302 69
19 22
2867 42
4048 22
4082 110
4138 22
7025 22
7409 58
7786 111
8395 5
8920 112
9375 113
20 2
647 53
2384 114
5071 25
6603 115
7274 116
7343 2
8772 2
8950 117
9645 2
9979 118
21 119
2454 120
3536 36
4358 119
5082 119
5648 121
6596 119
6653 119
7094 122
7693 119
7858 123
22 124
4878 125
5149 53
6845 73
7387 43
8421 126
8813 124
9017 124
9713 124
9995 124
23 3
1150 73
1888 78
2225 3
6805 127
7837 128
8727 30
8806 108
9754 112
9822 3
24 51
3377 65
4124 79
5060 65
5108 129
7519 10
9050 51
9112 51
9191 130
9274 51
9385 75
25 131
146 132
1710 109
3915 131
4434 133
7368 131
8203 131
9123 134
9150 113
9845 135
9973 136
26 137
981 138
1430 139
4163 37
5410 137
7013 137
7585 132
7990 140
8158 141
8166 137
27 142
951 143
1490 142
2174 144
4389 145
4824 95
5429 95
7618 142
8017 26
9472 146
9647 142
28 111
459 147
2040 89
3447 148
5283 111
6815 111
7963 54
8908 62
9594 149
9759 150
29 151
4713 152
4946 153
5607 112
8340 154
8367 155
8720 156
8871 74
8878 151
8897 151
9048 151
30 22
5473 155
5490 157
7863 158
8143 22
8196 159
8793 160
9770 22
9809 22
9871 154
31 122
154 61
1271 20
1303 25
6250 74
6755 161
6960 122
7432 122
9591 122
9639 62
9649 162
32 13
2276 163
3065 164
4575 165
4943 83
5932 0
8846 13
8949 13
9473 92
33 46
1668 20
3168 166
3974 95
4130 46
5070 46
7522 1
7739 167
8823 46
9202 168
9213 109
34 169
272 170
966 169
1066 171
5323 172
6449 173
7334 169
8681 169
9413 174
9929 77
35 42
1634 175
5393 176
5691 161
6222 177
7129 42
7308 42
7570 101
9357 178
9462 179
9738 42
36 38
2359 180
3311 181
3485 182
3713 36
4136 166
6026 134
7176 38
8443 183
9930 38
37 184
1614 150
1811 184
1893 184
1920 185
3587 186
4415 187
7704 188
8039 184
8396 184
8483 189
38 190
2909 191
3569 192
3964 193
5127 190
5220 194
5929 190
8169 190
8388 190
8654 27
9157 187
39 160
815 84
904 160
1183 51
1915 87
4280 64
4685 97
4907 195
7312 160
9438 160
40 196
988 197
1217 196
1919 198
2274 196
3696 199
4470 196
4919 200
7541 4
8329 201
9881 143
41 202
4892 202
6834 30
6878 17
7398 46
8262 203
8338 202
9469 183
9575 204
9609 202
9650 172
42 161
208 80
3344 161
4792 205
7677 161
8248 161
8441 161
8646 86
8735 200
9263 197
43 40
699 106
3102 88
3885 40
5657 77
6581 81
6873 206
7640 207
8635 40
9382 40
9554 187
44 13
3258 13
4539 70
5212 50
5434 208
5863 13
6335 209
6973 210
8258 13
9024 29
9240 186
45 11
1601 211
2152 212
5894 213
5975 214
6816 187
7791 11
8667 102
8866 11
9551 10
9853 11
46 215
5003 216
6030 197
6897 217
7256 215
7856 215
8582 215
8849 218
8927 219
9675 166
9856 220
47 45
2075 45
3495 204
4720 45
6969 45
7154 221
7502 222
8711 223
9674 224
48 135
2555 225
2884 135
5531 226
6666 78
7093 227
7295 4
7581 100
8470 11
9206 135
49 211
200 94
853 87
4683 211
5769 211
6157 47
7529 211
7757 228
9084 229
9238 219
9931 230
50 71
997 166
1404 231
1471 195
3589 149
8669 232
9209 100
9430 71
9887 71
51 233
1698 166
4648 119
5104 233
6005 35
6766 10
7948 233
7995 34
8035 233
8335 234
9742 235
52 14
3203 236
3338 68
4106 237
4238 14
6648 69
8494 10
9016 14
9436 220
9538 81
53 238
588 238
846 16
3779 166
6540 238
7020 2
8114 167
8174 238
9015 0
9946 162
9957 45
54 142
1227 239
3233 142
6790 240
6995 4
7217 142
8614 20
9691 61
9733 66
9862 241
55 27
780 27
2567 15
3330 192
4011 27
4465 242
4985 126
5855 42
7664 27
8837 92
9147 24
56 243
2007 77
4057 244
5956 15
6772 245
7276 132
7620 246
8835 243
9630 243
9851 243
57 56
110 130
6036 53
7265 56
7499 83
8081 106
8577 56
8821 10
9494 247
9709 195
9821 56
58 76
1190 76
1951 248
5946 249
6159 242
6975 76
8061 113
8536 76
8693 49
9265 250
9501 196
59 177
892 56
1084 139
4710 177
4976 177
5039 251
5468 22
8259 177
9618 181
9981 60
60 173
3122 173
3842 197
5717 173
7059 95
7736 239
7864 252
8476 173
8716 173
8807 253
9606 177
61 14
1268 254
1902 162
6569 14
7381 14
7524 255
7730 125
8192 14
8818 256
8842 257
62 258
3097 106
3158 259
8943 25
9562 258
9666 258
9726 258
9784 142
9814 155
63 260
2342 261
2806 262
3450 263
4872 264
5449 241
6454 260
7191 230
8381 265
9669 260
9998 260
64 128
6726 175
7469 31
7942 128
8812 266
9063 267
9241 128
9370 84
9579 128
65 256
2456 95
3971 256
4531 256
4774 211
6375 256
6649 128
7530 268
7572 269
9555 36
66 5
898 81
5036 5
5170 102
5841 270
6377 5
7440 66
7678 126
8562 94
9422 25
67 219
1755 219
3357 219
5463 219
5489 135
5752 73
6359 219
8471 271
8802 268
9427 144
68 272
2286 273
4798 101
6110 69
7298 61
7332 186
8991 274
9093 275
9509 272
9590 272
9724 272
69 121
618 20
1683 121
2200 276
3781 277
6480 121
6734 278
8145 279
8313 121
8707 121
70 200
614 46
1168 189
1769 200
2727 133
2734 231
6140 170
7474 200
7968 200
9444 277
71 33
2064 7
3667 64
3858 280
8156 166
8221 281
8581 116
9083 33
9396 274
9622 33
9807 33
72 238
4064 277
6158 238
7053 282
7089 238
7624 10
8935 238
9089 53
9341 245
9553 217
73 126
606 251
3103 79
3773 28
6160 102
6302 280
6655 126
7030 126
8010 207
8436 126
8556 283
74 284
4995 284
5019 285
5135 284
5934 286
6066 203
7937 284
7981 259
8004 261
9810 43
75 146
3899 155
4108 211
4644 287
4782 16
5221 288
7674 181
9307 146
9540 146
9643 186
9876 146
76 144
1056 126
2512 135
2728 289
4486 271
4891 144
4938 193
6511 144
6993 145
9952 247
9967 144
77 207
1530 7
3784 70
4232 153
5606 181
5994 207
6869 207
8075 186
9365 290
9763 56
9956 291
78 241
537 243
3337 145
4764 140
4899 25
7992 100
8424 241
9773 241
9825 241
79 37
5642 118
5735 37
7144 273
7366 199
8454 37
8462 282
8643 37
9757 160
80 206
3720 112
5712 57
8819 206
8901 206
8977 292
9178 140
9185 162
9397 206
9468 245
9657 199
81 199
941 197
3334 0
4566 199
5536 167
6720 142
6964 293
9139 294
82 4
548 0
2207 283
2553 295
6488 154
6997 192
7885 61
8130 4
9088 139
9401 4
9848 4
83 80
1346 296
1509 297
3376 283
5331 80
5349 80
6215 80
6602 82
8679 69
9303 36
84 298
923 299
2815 298
5120 300
5484 274
5775 78
5937 64
7537 298
7954 298
8279 36
9387 301
85 287
602 74
5161 42
6943 241
7669 175
8148 302
8613 287
9403 287
9466 303
9599 49
9766 287
86 190
1257 130
4034 190
4630 190
5174 190
5516 268
7091 254
7774 175
8049 259
8272 11
87 304
4429 305
8090 304
8135 69
8467 41
8488 70
8714 304
8869 306
8882 195
9586 304
88 264
2888 299
5067 176
5680 307
7424 308
7694 264
8515 264
9605 264
9740 219
89 193
6175 193
6544 195
6901 294
7325 242
7375 265
7379 193
7947 140
8848 230
9565 239
9849 193
90 189
5753 287
6486 267
6947 186
7444 189
7606 96
8880 186
9204 189
9345 189
9707 169
91 160
2417 107
2649 309
4784 198
4809 106
6136 160
6353 282
6877 301
7460 152
8724 160
9768 160
92 255
2650 310
3174 42
5046 165
6094 284
6229 94
6531 62
7919 252
9044 255
9304 255
9507 255
93 17
3290 271
4006 287
4494 17
4927 311
5004 17
5859 68
7965 277
8472 289
8640 17
8734 56
94 309
1725 265
3432 42
3939 223
3954 309
5205 17
6583 148
6675 309
8404 166
9043 309
9805 166
95 38
927 68
1314 73
2627 38
3801 312
7658 76
8119 255
9200 303
9791 42
96 133
728 197
2213 160
2603 66
3167 133
4724 244
5977 208
7611 196
9369 35
9694 133
9793 133
97 138
1937 43
3982 138
4839 138
5366 313
5791 138
6785 77
7248 32
7740 314
9232 223
98 193
811 193
1948 26
3146 39
3328 193
4492 119
6591 12
8226 169
8296 315
9094 193
99 61
1807 61
1967 316
5704 61
7348 187
8678 65
8811 289
8868 317
9077 192
9516 262
9731 61
100 44
1538 219
3238 44
6566 101
6715 44
7024 202
7077 79
7518 292
7943 35
9751 44
101 139
2732 139
4860 0
6774 166
7155 263
8270 4
8524 182
8754 139
8796 195
9230 139
102 127
1372 127
2864 127
3261 107
3729 271
4179 127
4624 17
7950 112
8125 177
8163 219
9221 172
103 233
3487 318
3744 233
4552 153
5017 233
5266 269
8019 233
8271 319
8705 320
9637 0
104 278
1390 206
4099 86
5728 321
6417 322
7746 211
9155 175
9158 236
9414 278
9668 278
9829 278
105 90
2971 241
3117 90
5180 249
5504 8
5881 118
6384 90
7354 49
8685 90
9456 323
106 2
5228 179
6242 15
6850 36
7445 84
9167 92
9334 203
9364 2
9701 266
9719 2
107 292
399 139
3090 292
3609 209
4622 292
6223 292
8956 10
9532 96
9830 71
108 310
764 310
1927 183
6211 310
7870 274
8002 277
8682 310
9939 100
109 278
1496 105
3951 82
4298 307
4634 282
4819 203
7463 166
8043 35
8475 278
9079 278
177 183
5178 130
5265 215
5660 31
8195 226
9779 130
9877 26
111 237
1711 237
2923 94
3912 102
5844 237
7247 133
8292 143
8877 241
8962 7
9340 237
112 22
1394 324
2194 231
3176 22
4222 244
5928 22
6695 22
7828 11
9535 325
9961 89
113 21
953 127
1043 326
1752 284
3272 327
4295 52
8190 21
8241 160
8630 21
8831 95
114 24
2083 292
2602 8
5588 247
6944 24
8710 24
8773 16
9045 67
9388 98
115 87
1896 310
2726 328
5278 28
5325 81
5716 254
9168 87
9457 87
9592 87
116 107
410 107
694 72
2820 81
3221 127
4134 155
4502 58
5492 158
6007 107
8062 107
8743 90
117 10
2346 7
3630 10
6069 10
6345 286
7336 300
7988 69
8534 99
9046 174
9379 10
118 54
180 181
1562 329
2468 193
5146 54
6329 163
6940 286
8394 27
9080 187
119 279
3316 279
7212 12
8465 279
8526 192
8611 117
8629 330
8801 138
8976 7
120 331
333 196
1742 331
2022 165
3047 157
7201 170
8048 212
8803 199
8892 331
9638 66
9888 331
121 246
2150 31
4653 207
6843 332
7359 96
7433 246
7790 92
8600 134
8718 246
9870 246
122 333
1646 227
2328 102
3148 333
4472 123
4741 334
6389 333
6984 333
7417 25
7622 102
9484 108
123 75
3172 335
4606 227
6892 83
7478 336
7554 23
7666 75
9103 41
9398 337
9641 75
124 107
1012 38
3927 107
4745 106
5264 194
6321 228
7061 107
7323 12
7912 107
9558 334
125 193
470 7
2636 338
3711 193
5027 310
7681 290
8285 32
8827 193
9291 193
9706 240
126 147
715 147
936 243
2787 162
2886 147
6364 115
7542 230
7741 155
8363 170
8909 79
9801 147
127 10
1644 65
3356 88
4698 157
6939 263
7209 281
9069 7
9149 339
9984 10
128 98
3358 166
5136 98
6317 98
7279 92
7328 104
9101 98
9104 340
129 274
2712 274
2839 71
3113 341
3207 248
3844 117
5018 140
5696 274
8341 342
8559 92
130 20
514 20
692 20
3766 257
6761 248
6798 100
8958 41
9148 193
131 234
4001 142
4143 31
4203 298
5581 36
6896 234
8474 78
8759 7
8905 220
9034 234
9463 234
132 202
2009 81
2389 202
2534 191
5820 224
7331 87
9292 202
9527 245
9758 146
133 218
2086 10
2943 26
3205 186
3931 218
7322 55
7966 328
8929 155
9011 218
9581 261
9680 218
134 46
675 185
2830 266
4576 136
8102 335
9124 46
9623 86
9741 46
9769 229
135 128
343 255
5147 267
5868 330
7222 1
9225 61
9966 289
136 234
2285 101
4771 66
6456 20
7302 100
8980 132
9053 234
9502 245
137 67
2541 263
2874 67
2934 47
5614 6
7160 234
8426 67
8740 58
8853 255
138 98
1170 98
1437 85
5876 331
9441 146
9755 291
9764 98
139 173
597 145
4363 42
7517 343
9092 344
9188 203
9619 173
9667 46
9847 173
140 92
2866 92
2911 245
2924 154
4210 251
7604 223
7884 113
8430 287
9166 25
9834 92
9885 92
141 309
2424 17
3771 208
5672 101
6994 309
8309 345
8856 309
9545 273
142 179
829 46
2448 159
2570 19
3631 272
8780 300
8985 179
9676 179
143 121
6414 122
6473 121
6846 121
8100 106
8845 121
8850 20
9119 267
9616 183
144 3
530 3
1433 159
1685 42
1938 3
5381 8
6278 167
6499 61
6558 164
7278 328
8015 155
145 178
2431 271
2680 334
6125 239
8357 291
8933 178
9195 267
9247 198
9844 178
586 10
1333 140
3571 228
4396 186
5485 123
7998 132
8557 293
147 120
1887 199
4706 211
5012 107
5663 120
5866 230
6620 120
6888 292
7230 253
9205 47
9373 120
148 295
2108 169
2620 295
6279 295
6354 156
8073 295
8972 5
9948 263
149 81
1411 81
3061 330
6578 346
8144 313
8351 56
8599 81
9523 325
9921 81
150 229
604 245
2979 42
4444 325
7012 69
9835 229
151 96
1128 73
4908 69
5879 347
7069 338
7349 96
7687 96
8171 48
8900 254
9475 96
152 158
2005 289
3180 239
4093 347
4550 42
4915 285
5284 302
5862 216
6855 158
7141 158
8423 158
153 67
1923 277
2182 78
2432 104
2811 107
3673 173
3765 67
5669 67
5952 228
6189 155
712 61
1633 246
2823 61
3676 259
5847 61
6742 295
9698 344
155 58
1477 174
2622 248
3042 234
6985 58
7389 230
7588 58
9026 146
156 36
3327 187
3437 99
3723 36
4599 297
7892 36
9318 36
9879 7
9972 320
157 69
669 348
3959 69
5667 341
6077 76
6760 126
7293 69
8680 10
8996 69
158 152
285 312
3378 77
5132 287
8446 152
8644 346
9412 152
9803 152
9937 240
9960 166
159 224
6166 51
7057 259
8070 224
8096 349
8127 115
8212 173
8369 180
8622 36
160 273
2537 125
3962 273
7304 273
9381 0
9512 28
9811 92
9892 36
9953 273
161 322
417 46
3553 348
5633 322
7770 166
8306 260
8328 134
9073 322
9320 36
9820 322
162 52
2685 216
4041 52
4580 242
5886 259
7717 214
8547 130
8564 52
9420 91
163 146
332 146
1290 146
1292 270
2937 246
3350 219
5309 184
5439 146
7994 162
8510 314
9470 243
164 46
4448 150
7799 250
8067 46
8776 97
165 170
624 200
4739 300
5316 98
5676 42
5690 170
6230 322
6642 170
7578 170
9453 77
9890 62
166 39
3105 165
3535 39
4766 236
5890 43
5997 226
6614 342
7483 39
7544 42
8213 288
9908 39
167 261
312 193
807 172
1545 146
3645 261
5825 261
8228 8
8324 166
9078 203
168 166
838 317
1237 166
1558 111
1817 25
7031 166
7595 163
7974 61
9963 92
169 251
4287 7
4807 308
4861 251
5374 251
7296 251
7914 251
8071 329
9583 303
9969 265
170 115
3807 2
4979 224
7439 115
7867 191
8227 105
8418 115
9406 302
9588 350
9613 351
171 10
509 69
1315 75
1599 10
2564 10
3461 94
6690 51
7402 104
7560 157
8903 10
9208 196
172 11
1643 11
6907 196
7305 305
8925 327
9022 71
9940 77
9959 263
173 301
3179 301
3368 320
5213 140
5445 173
8867 248
9065 247
9217 25
9392 25
9547 62
9999 301
174 198
5124 176
6333 168
7258 65
7550 83
7778 198
7847 133
8770 256
8825 198
9218 198
9573 69
175 187
623 187
3575 187
4377 207
4773 248
4965 61
6004 138
7626 40
8937 163
176 7
2525 216
3268 99
3497 153
5010 352
7668 7
7796 7
9536 96
9783 301
9902 7
238 177
3574 183
5167 80
6784 282
7599 183
9005 183
9576 84
178 61
205 61
1226 36
3149 149
3637 154
4177 61
6565 255
9295 270
9795 100
179 207
2892 136
3049 22
4856 207
6476 337
8112 207
8482 4
9607 353
1892 241
2922 181
3669 30
6266 62
6371 181
7015 177
7174 203
7592 123
181 310
492 26
944 99
2668 218
4671 259
5632 310
7816 239
8522 310
9277 310
9356 69
9564 62
182 346
3670 329
6400 251
6523 346
8451 346
183 182
761 166
3137 182
3657 154
6728 280
6792 182
7014 89
7218 354
7413 182
8566 182
184 120
2783 41
2906 120
6672 195
7252 120
7625 35
8508 296
8965 273
9544 355
185 299
1291 289
3335 341
4257 269
4669 356
4742 299
4935 263
7114 299
8721 299
9452 60
186 259
311 110
4513 259
5347 157
5939 259
8616 260
8993 77
187 208
2586 1
4649 287
5289 208
7104 208
8672 208
9322 208
9840 0
188 320
1175 266
1223 37
1642 343
2094 269
5923 245
9256 320
9548 320
9774 144
9919 75
189 81
1554 22
2841 357
6889 79
7219 81
7842 83
8748 253
9014 81
9968 81
190 0
3011 253
7443 0
7603 16
7891 124
8151 92
9846 77
191 248
4234 265
6363 222
6589 16
6837 248
7582 248
8997 248
9818 62
192 27
2158 108
3618 27
5216 27
6387 234
6802 131
8301 62
9121 27
9281 160
9602 210
193 77
2351 3
2641 242
3125 77
3324 328
6640 358
7850 77
8676 329
194 336
3429 359
3491 10
4437 134
6340 336
8244 336
8969 254
9869 301
9955 336
195 289
1310 53
1748 289
4617 289
6433 198
7896 80
9566 343
196 284
4311 85
5040 314
6305 319
6841 344
7566 284
7593 284
8757 284
197 62
1262 62
1735 108
4413 62
5798 75
6015 62
7817 154
8540 187
9006 34
198 181
2657 244
3550 266
6198 226
6750 203
8068 170
8891 181
9489 181
199 360
2533 48
2684 184
3519 212
6236 306
6508 360
7556 295
7761 360
8881 360
1987 163
4959 191
5063 328
5579 94
9329 357
9351 94
9371 217
201 127
2198 267
3119 127
5357 346
5545 92
5697 127
8590 345
8953 226
202 62
7461 183
8350 62
8998 302
9815 273
203 157
1451 157
2365 157
3655 232
4123 214
4194 157
204 104
886 104
4931 35
5155 96
5969 186
7321 77
7551 104
7844 257
7945 235
8431 104
1506 174
3591 8
5597 317
8298 315
8352 165
8518 38
9608 61
206 118
3039 144
3933 274
4450 118
5936 206
6406 61
6599 22
7899 118
8080 32
9491 118
9539 248
207 38
729 143
870 237
1823 38
5488 196
7683 25
8297 38
8389 318
8959 26
9264 17
3025 187
4633 158
6038 351
7909 80
8032 50
8256 80
8863 264
9332 76
209 345
854 2
4055 361
5026 345
7571 319
8092 36
8668 289
9152 345
9201 362
9520 77
210 111
1662 271
4757 301
5553 125
7882 41
8108 111
8222 247
8293 111
9012 112
9116 111
211 61
335 61
890 146
3902 71
8355 53
8872 219
9271 216
9476 61
212 279
2416 6
3791 197
4961 191
5624 121
7734 279
8708 279
9061 279
213 195
1585 25
1691 359
3448 195
6663 9
7173 177
8855 195
8936 114
9524 195
214 236
5456 236
6040 44
6152 88
7407 236
7782 343
8280 273
8542 263
8570 236
9895 337
9978 271
215 185
4333 289
4718 185
4988 265
5172 0
5321 233
5943 13
7051 185
7143 123
7972 185
216 210
2789 45
4490 329
4737 25
8152 293
9442 210
9533 210
217 120
3340 42
3413 120
9313 230
9480 329
218 75
3614 312
5365 238
6977 281
7147 75
7838 75
8051 251
9106 75
9595 226
9642 277
219 65
4862 277
5005 55
5196 14
7901 65
8132 65
8580 324
8741 65
8894 321
220 35
2379 145
5246 323
6616 235
6786 35
7100 44
7750 296
8659 71
9072 35
221 325
2698 273
5661 239
7565 363
7695 36
8641 74
9290 219
9817 325
9863 325
222 217
4292 364
4951 146
7789 153
8105 315
8696 217
9419 348
9951 217
223 107
2300 107
2842 214
3147 309
7385 272
7438 107
7732 365
8645 107
9510 285
224 229
632 208
4071 100
4149 229
7823 229
8149 272
8178 162
8245 39
8615 229
9541 195
225 330
2378 148
5905 330
5966 330
7016 46
7949 330
226 11
4753 11
5580 11
5641 201
6330 11
7614 34
8268 10
8487 11
9611 101
227 311
2133 26
2382 216
6247 27
6769 68
6903 311
8694 166
9688 311
9996 311
228 95
1934 119
3736 99
5748 124
6107 146
7108 254
7869 333
8191 266
9700 95
9761 95
229 187
3742 14
4236 350
5371 148
5681 293
8121 366
8485 187
8638 279
8928 187
9603 26
9662 187
230 49
253 366
3068 49
5797 49
7468 49
8992 353
9262 150
9743 256
231 26
2206 152
2529 94
3159 26
5539 4
5574 26
7329 41
8231 305
232 0
2141 259
4309 20
5711 9
6025 79
8230 135
9600 0
233 361
636 226
4763 228
7326 361
7780 68
7834 131
8406 361
8970 361
234 279
799 84
2608 279
3252 279
6810 279
7821 61
8521 327
8728 90
8864 155
9226 194
235 144
2992 11
3970 230
4675 137
5742 144
5896 300
6217 59
7418 144
9310 144
236 10
2310 363
5110 362
5871 7
6982 23
8747 10
9337 62
9749 222
237 365
8086 248
8180 105
8289 365
8544 13
8605 97
8809 365
9170 356
9559 365
1955 177
5750 66
8246 142
8673 89
9099 177
9716 351
239 236
810 336
1680 324
5684 236
6219 34
9163 64
240 0
1639 44
3590 90
5573 348
7010 26
9182 0
9903 329
241 202
625 339
1375 202
2615 295
3198 100
5208 273
6246 25
7369 202
9181 202
242 185
2578 242
2882 185
3562 162
6856 185
8087 256
9253 185
9508 205
243 280
5148 28
5651 280
6017 83
6024 250
6559 209
7514 102
8392 256
8829 280
9415 280
244 362
1213 17
2388 61
2415 288
6137 212
7609 162
8687 362
9582 248
9857 362
9894 362
245 170
1283 170
2835 178
5184 77
5210 170
5276 30
9349 171
9775 326
246 264
5006 191
5870 294
6268 266
7665 264
8578 86
8814 116
9293 264
247 234
5211 318
6282 358
7351 344
7628 166
8220 367
8326 234
9344 261
248 320
1826 205
2376 50
2571 296
5191 256
7405 320
7701 320
7784 198
7955 120
249 278
1768 92
2355 178
7253 311
7825 4
7874 138
7952 278
8044 278
9839 291
250 7
1567 196
3402 259
5589 130
5727 7
6797 7
7705 7
8001 259
9111 81
251 2
3768 271
5440 89
6092 235
6455 368
7123 254
7294 112
252 369
2589 369
2598 25
5795 235
5964 115
6809 254
7009 370
8765 369
8987 326
9076 369
4786 146
5764 366
6718 12
7105 101
8370 366
8514 366
254 310
480 310
4127 205
4722 297
4900 36
4984 265
7188 310
8235 310
8637 21
9841 195
255 162
2506 185
2558 162
6937 112
7205 162
8447 123
8709 187
8984 62
9319 53
256 65
1091 81
3393 65
4730 65
4972 128
8033 355
9408 61
257 215
1704 215
3649 196
4692 215
6117 215
7241 135
8808 236
9298 171
9333 228
9354 349
9748 21
258 172
1085 189
1220 197
3540 56
4084 102
5785 329
6825 148
7382 172
9626 172
9750 92
259 2
3703 256
4664 2
4957 198
5858 243
6078 228
7425 2
8583 268
9367 245
260 35
289 146
1167 328
1236 107
3007 186
7453 260
9025 244
9254 35
9449 35
261 370
1597 34
3234 370
6580 70
7675 370
7905 370
9511 252
9671 146
9729 195
9991 12
262 147
2767 85
4073 155
5967 147
6899 17
7510 164
8723 147
9728 60
263 26
3650 133
6055 26
6828 203
7008 99
8074 311
9223 19
9437 201
264 24
1793 184
1935 301
2216 144
4186 24
4813 3
5100 24
6274 24
6714 212
265 56
1865 259
1945 56
6966 169
9130 25
9432 162
266 308
1659 245
2167 308
3200 308
4816 162
6104 327
7080 70
7573 205
7772 308
8906 35
9242 348
267 158
582 321
4135 158
5388 25
5679 158
6826 158
9797 7
268 73
1267 370
3464 73
4120 73
4740 353
5959 356
7035 73
7346 371
269 353
805 369
1301 46
2723 359
8295 353
8331 286
9678 353
270 106
1140 195
2130 106
2546 20
5467 350
6708 54
7737 106
8006 33
271 42
2006 196
5203 42
6736 87
8115 36
8236 196
8885 29
9776 42
2473 219
3681 212
5843 170
9169 170
9259 206
273 169
3254 263
5279 234
6204 169
6440 95
8639 191
9187 202
274 350
916 350
5144 259
5638 102
5694 7
7494 350
9013 196
275 344
1791 320
4901 254
5787 344
7488 334
7946 11
8316 364
8336 344
8884 0
9216 335
276 78
479 78
1436 364
2772 175
3343 25
7594 78
7873 294
7894 17
9843 78
277 279
1215 99
8731 272
9003 226
9037 32
9950 86
278 298
2510 83
4667 311
7907 250
8982 133
9522 298
9534 298
9561 143
9632 298
279 143
1136 35
3897 166
4111 168
5737 244
6374 81
6503 143
9620 143
9721 143
280 370
2634 370
4180 45
6498 367
7238 370
8749 370
9359 98
9526 254
281 104
967 104
5913 144
6270 104
8649 351
8873 61
8890 247
9085 152
9513 104
9515 281
282 40
467 89
5457 36
6822 25
8947 20
9131 256
9339 93
283 216
4650 19
4968 19
5723 216
8173 35
8844 216
9747 260
284 31
4458 31
5941 31
7818 31
8377 162
9568 109
1928 171
2199 287
3245 76
6399 155
9268 312
9636 312
286 107
6680 195
8217 288
8838 20
9243 107
9567 357
9858 107
287 154
1063 154
1620 66
6379 77
7548 319
8767 154
288 99
4921 25
5649 193
5867 99
6171 39
6306 99
7361 288
8157 77
8176 99
8477 166
5188 139
7608 146
7632 66
7934 146
290 232
583 332
2269 232
2383 232
6572 159
7820 267
9426 0
291 329
752 10
3802 241
4239 349
6460 17
7156 67
292 291
908 92
2991 107
5034 248
7132 326
8479 271
8764 349
293 351
6644 285
8786 351
9360 265
9909 241
9933 101
294 54
2581 61
5084 173
6339 305
6410 153
7306 50
9496 235
295 118
1671 294
2658 21
5515 118
6539 251
8737 118
8971 188
296 305
2838 169
6341 305
8214 154
8501 29
8634 305
9756 288
9994 254
297 186
1281 163
1533 69
2647 50
6824 186
7096 362
7718 186
298 63
861 197
2120 195
3017 63
3401 105
7263 99
9705 142
299 111
687 184
1508 156
4089 83
4747 111
5668 122
7355 37
300 214
5201 28
5604 214
7812 214
7843 214
301 115
5738 292
5836 139
6743 98
6754 3
6905 115
7958 115
9056 232
9521 28
302 353
2644 35
6008 162
6319 192
8664 105
9497 353
303 0
3053 213
4356 243
9492 107
9852 76
304 226
1286 166
1331 358
2303 7
4063 76
5744 109
8608 1
9478 72
9736 226
9798 226
305 212
2137 212
4399 183
6657 10
6953 156
7164 212
9394 55
306 225
4801 311
7145 225
7255 192
8769 231
8918 225
9417 225
9685 185
307 81
3518 66
4924 119
5475 81
8215 81
9142 366
9146 293
9753 222
9941 81
308 81
3925 14
4125 241
4944 187
8079 97
9114 81
9696 61
309 248
609 308
4632 244
4810 248
5888 363
7771 248
8422 196
8795 21
310 271
2492 162
4157 268
5400 183
5655 271
5701 20
6584 271
7339 271
8833 108
2119 110
4385 204
6604 110
6722 110
7190 79
9416 92
3620 288
4172 46
8883 193
9288 76
313 69
4148 307
4510 233
4681 94
6365 66
7084 130
314 98
2705 98
3996 277
7973 98
8111 116
8931 338
9019 267
9574 294
9585 26
9860 98
315 343
1862 184
7643 343
7792 208
8414 195
8726 67
9008 288
9212 282
316 252
2871 137
5416 119
8497 252
9109 194
9184 98
9715 252
9808 129
9905 252
317 372
1602 184
3883 372
5483 119
5747 106
5990 372
6289 61
7001 319
7498 354
7743 372
318 102
2963 186
5061 102
7065 274
8207 89
8478 102
9447 226
319 360
1295 360
2357 361
3981 360
5306 97
7960 22
9552 248
320 268
2879 176
6776 320
8917 307
9029 268
9068 268
9257 12
9278 333
321 332
888 82
1505 332
3058 332
4348 102
4836 203
7186 332
9312 175
322 15
5392 15
6930 79
7079 15
8744 28
323 201
1325 100
6404 108
9122 201
9395 201
9826 201
324 223
6357 252
6717 223
7078 163
7615 277
325 74
365 142
7098 74
7416 319
8283 74
9239 287
9479 144
326 296
5053 234
6133 130
6180 132
6372 153
7589 69
8182 296
8287 296
8484 296
327 106
1841 154
2664 22
4275 46
8397 106
9105 62
9681 61
328 44
1528 44
2661 97
3192 317
6200 44
6626 138
7356 44
7613 331
8512 46
9010 47
9326 18
329 177
2682 92
2721 177
6643 69
6745 16
7758 133
9246 213
9306 125
330 276
3121 277
5223 203
8378 276
8930 61
9325 276
9697 81
9802 276
331 136
1014 136
3477 125
3799 8
3994 167
6426 83
6812 182
7250 86
9635 136
3009 146
9598 231
9882 146
698 160
1051 224
1130 253
2696 196
3359 83
4930 60
5458 87
6927 196
334 206
769 263
1061 61
4091 206
7120 243
8968 144
9173 101
9342 206
3489 305
3508 61
5222 185
7101 304
7421 139
336 42
2035 21
3008 42
3966 286
4273 42
5247 17
7738 287
8165 253
9431 327
337 7
1994 228
3307 73
5875 172
6462 149
6629 7
7600 359
9081 362
9827 7
5361 104
7564 70
9673 36
9714 125
339 76
559 95
1672 256
1911 76
6129 37
6259 76
6439 95
8249 76
8269 277
8816 28
9958 117
340 2
460 2
760 88
1254 31
3274 2
3321 2
3978 356
7653 240
8353 92
9788 235
341 204
456 213
2679 183
4455 25
4538 269
8913 226
9546 235
9745 204
342 177
1828 354
2015 56
2172 177
3196 78
6502 307
8208 11
9976 36
3091 304
4286 241
5261 255
7479 255
8607 255
9129 250
344 62
943 62
3093 89
4185 42
6106 350
6512 62
7350 32
9659 357
345 364
1431 364
2826 68
5054 37
6536 364
9102 364
9421 42
346 71
3701 217
5257 115
6721 241
347 156
1765 357
2908 221
5461 176
5880 156
6225 268
8194 77
8218 156
8715 156
348 191
1877 346
4243 191
4438 191
4574 246
5157 26
6916 191
7649 289
8250 323
349 366
2856 285
8223 237
350 110
958 20
9096 110
9336 110
9481 110
9593 95
9789 103
351 40
4508 40
5035 306
5670 224
6412 40
8888 40
9964 145
352 79
2915 281
5105 79
5356 134
6844 179
7558 79
8374 28
353 106
362 42
4466 66
4481 39
8569 7
9267 197
354 104
1395 37
3752 104
6240 299
6296 95
8537 104
8763 79
9007 36
9455 25
355 339
1441 76
5803 347
6501 41
7465 280
8619 339
8862 329
9474 339
9624 339
9689 248
356 46
5286 36
7289 46
7903 48
357 92
710 62
1400 30
2292 92
2889 146
4050 360
5503 108
6436 216
9886 92
358 243
1362 39
5507 243
5989 292
6314 16
7489 122
8022 243
8323 243
8417 241
359 352
2749 352
7769 12
8444 282
9133 352
9207 45
9799 373
9945 352
360 233
1867 306
3275 233
5850 14
7836 81
8810 7
9571 9
9944 220
361 349
6970 171
7390 349
7857 269
8275 125
8717 145
9990 273
3886 251
3904 42
4025 249
4835 42
6331 42
6386 21
6420 7
8703 167
363 309
455 309
1316 21
2631 10
4049 41
5734 199
364 7
837 202
1159 7
4871 25
5068 96
6965 260
8706 7
386 135
4902 296
5949 244
6070 142
7851 30
9904 209
366 107
450 291
1486 163
7940 107
367 273
1082 273
3028 314
4746 42
8683 273
8895 273
368 292
4859 366
6915 292
6950 7
7616 277
8210 338
9273 64
369 97
689 127
4297 355
7037 97
7307 92
8186 160
370 176
673 255
1686 176
1997 176
2157 371
3617 285
7484 176
8009 7
9118 100
371 248
1000 28
1149 373
1282 146
6224 248
9936 248
372 65
2178 117
2261 165
3294 273
3941 65
4590 65
5078 308
7029 65
7547 173
9777 86
373 263
1952 263
2252 263
2469 8
2637 180
5344 195
7377 165
7627 135
8400 263
374 71
2104 106
5038 306
9355 61
9837 71
375 4
427 365
6882 175
8653 297
9518 188
376 156
1047 46
2855 156
3938 269
5882 156
7436 236
9658 209
377 261
1364 299
2670 261
3202 68
6067 261
7126 146
8852 311
9424 250
378 30
2535 274
2710 237
4199 30
7652 286
8038 84
8347 287
9126 196
379 295
2457 265
5899 295
7412 99
7467 295
7747 77
8211 295
8376 180
8940 271
9384 237
380 230
3476 193
7327 330
7415 326
8978 230
9390 367
9883 230
381 180
603 105
1968 10
4229 26
4960 180
6561 25
7475 47
8083 39
8442 180
382 83
6349 357
8403 307
8437 83
8455 181
9550 83
9744 83
9896 166
383 203
1306 77
1371 16
3656 319
6526 203
8507 203
8587 214
9231 77
384 273
1004 249
8099 273
8592 273
8625 52
385 74
1313 305
5238 294
6775 267
7895 373
1669 14
2288 44
4410 340
9214 135
9907 349
387 318
2667 313
3641 208
6307 42
7011 318
7835 197
8981 341
9244 318
388 200
1045 189
2719 189
4588 182
6568 331
7099 144
8719 200
9684 146
389 41
2301 75
4075 163
5883 7
6710 362
8011 41
8281 41
390 370
6639 370
7830 98
8794 370
9074 52
9368 273
9891 45
391 83
5838 83
6823 311
6832 222
7722 83
7865 51
8050 5
8202 273
392 239
486 356
1173 137
1240 131
2306 36
8229 262
9488 239
9954 36
393 260
2338 0
7119 193
7185 76
8402 260
8466 66
9804 86
394 77
1563 168
4989 77
8575 29
395 100
534 107
986 184
3395 161
5933 100
6949 154
7318 340
7575 100
7803 135
8317 16
396 25
1284 257
3732 337
3747 146
3817 25
4272 25
7889 6
397 99
2065 188
6921 357
7168 99
8128 113
8401 99
9816 249
398 60
6139 321
8923 25
9299 60
9321 140
9348 149
738 67
3030 139
7121 242
7309 64
7497 7
9070 357
9234 355
400 87
4560 241
4600 281
4996 304
5033 353
5852 122
7471 87
401 293
5685 286
5920 122
7225 135
7871 316
7957 293
7993 293
9389 246
9640 293
9912 35
9942 206
402 122
576 98
2443 26
3071 73
6128 122
7647 122
8503 293
8841 187
9867 224
403 132
458 193
1930 132
3793 209
5363 37
5402 354
404 114
5628 192
5897 196
8922 114
9128 114
9493 114
9790 34
405 88
2847 79
4543 152
6257 349
7933 77
8419 88
9855 117
406 205
1730 134
3390 62
4201 205
5207 187
8124 319
8961 205
9794 275
407 28
5281 4
7429 28
8305 269
8915 253
9687 149
408 296
4759 166
6884 195
9346 21
409 338
1174 355
7427 133
7997 26
8342 325
9377 338
3037 346
5352 144
7927 304
8036 293
411 92
435 166
1040 92
1546 88
2481 96
2928 80
5076 143
8264 92
9923 92
412 241
4228 241
4749 66
8545 241
8948 194
9091 256
9276 19
9604 144
413 62
2401 249
2959 13
5992 65
6281 229
6528 192
6607 62
8025 213
8056 163
9914 62
414 312
1417 374
4101 86
5432 312
5658 342
6174 36
7266 93
415 82
4425 342
4898 292
5981 82
7967 82
8274 82
8354 218
416 229
1243 92
6085 7
4284 3
6932 149
8334 25
9285 46
9464 341
418 302
3867 302
4707 316
5307 64
6286 364
8704 302
8999 140
419 156
3289 160
4237 156
6980 156
7172 319
7576 185
8045 117
8684 290
9275 109
420 77
4195 273
4515 77
6332 131
6487 95
6763 40
8413 162
9165 77
421 273
2298 315
3060 260
9107 223
9358 271
422 61
4212 207
5369 61
6099 126
6163 61
423 354
2377 354
2711 76
3548 354
4572 287
7931 99
9850 66
424 83
1334 83
2954 83
4868 155
5447 310
6164 299
6551 152
425 62
2312 62
7380 162
7923 173
9528 294
9683 256
426 74
2612 256
5465 74
7951 324
3403 250
3937 114
6854 314
8084 365
9925 10
428 10
3139 36
6003 78
8216 167
429 98
3051 26
4975 129
430 337
5269 337
5397 216
7311 105
8204 337
431 47
6145 47
6699 301
8517 47
8760 256
432 273
3123 221
3387 270
3505 273
8136 7
8177 273
8198 220
9255 273
433 360
3284 109
4342 57
6068 363
6458 360
7729 89
434 184
975 362
1054 184
1332 184
2321 64
3342 315
3719 1
5460 184
7229 340
8826 184
4519 219
6768 166
9631 166
9787 100
436 93
516 29
4254 127
4393 31
4842 93
8944 55
8946 93
9402 256
437 350
2607 350
4110 77
4876 155
5234 350
5770 350
6506 124
8091 36
9596 155
438 69
2247 129
5444 346
5827 92
6168 69
7066 70
8290 69
8528 347
8543 256
8736 297
439 224
746 122
1783 81
6818 238
9648 224
9915 224
440 178
473 146
747 12
1228 183
2829 84
4059 178
4949 178
5665 178
9460 197
441 89
1354 44
1369 271
8560 162
9499 89
9889 89
442 220
1816 289
2373 117
5824 81
7801 337
8535 113
8889 324
9021 220
443 112
3211 71
5313 39
6564 220
8117 112
8159 282
8584 150
444 99
1657 182
5341 9
5407 209
5963 99
7047 125
7720 55
445 36
2773 92
4571 165
5743 36
6685 281
6866 15
8589 98
9831 36
446 21
2231 290
2426 26
5154 21
5219 70
6529 21
7002 142
447 173
4586 173
5385 7
5511 343
7964 193
448 185
819 113
1046 336
3868 185
4602 116
8843 185
8974 81
449 62
848 281
3170 138
3911 62
6532 22
8012 213
8066 166
8193 72
5214 59
5364 245
451 117
2907 238
4578 316
5303 243
5999 240
6613 54
9634 117
452 262
2472 77
3421 262
3530 262
5530 262
7861 0
8753 210
453 235
1894 197
3128 256
5299 190
5476 241
6301 20
8116 153
8247 116
9140 235
454 219
5832 187
6895 265
9087 219
9693 219
724 25
3851 234
8939 335
3896 262
7806 213
7984 213
8322 155
9570 137
457 156
2124 81
2179 223
4593 261
7975 366
8428 156
9434 327
1942 24
3173 328
5273 193
8761 61
9786 174
5285 172
7210 99
7655 147
8951 288
9301 325
9938 81
3860 14
6392 2
7716 46
461 356
726 356
2796 66
6126 218
6550 356
7977 290
462 19
3515 31
6091 19
6179 19
9720 311
9874 19
463 348
519 190
995 130
1555 32
6762 348
6811 13
7978 348
8963 241
464 31
2348 330
3890 31
5620 251
6530 31
7224 31
7291 46
465 215
750 334
1127 215
3635 215
4289 215
4863 93
8122 175
9796 237
9813 288
466 96
1757 76
4887 195
5662 84
7752 91
9439 96
873 89
1094 261
2520 61
6913 125
468 123
5159 172
6249 123
7462 123
7745 12
469 277
1378 36
2016 277
3346 42
6461 85
6712 332
7854 277
9732 92
3511 7
6053 7
6112 6
6398 7
6537 263
6606 62
6650 317
471 333
6016 333
6900 333
7362 17
7569 272
472 140
2761 364
6459 140
7203 132
8072 89
9833 209
2633 83
4505 146
5254 99
6623 17
6753 305
8591 126
8778 146
9248 256
474 329
2617 252
5740 329
5998 329
6042 91
9090 162
475 43
6438 297
6513 43
7245 7
8548 43
9913 273
476 105
3398 371
7170 1
7853 190
477 306
4193 140
4573 275
6347 241
7629 26
7706 306
9483 152
9989 306
478 106
1878 196
4967 121
6495 106
2687 92
6830 70
7827 208
8085 78
8286 78
6624 92
8390 301
481 78
1401 78
2666 78
5854 150
6201 175
7832 133
8255 162
8572 305
482 117
834 88
3237 130
6453 180
7090 345
8251 236
9695 117
483 31
2514 121
3469 189
5576 27
6570 31
6590 146
8254 105
484 202
2171 109
4534 198
4765 116
7134 21
8777 202
485 187
2110 322
2573 310
4152 290
5116 187
6232 76
8887 148
5869 85
6724 335
6842 62
7130 358
8150 356
8168 356
487 153
5311 10
5362 153
5379 153
6671 153
7125 111
8365 7
488 49
4447 2
4840 49
6992 314
7223 263
7491 180
489 373
2914 204
5394 9
5423 373
5477 373
6979 373
490 8
3965 358
8040 8
8445 130
491 69
891 189
1058 273
3341 69
3864 345
6056 69
6394 262
6618 69
8224 69
1931 7
4187 26
5494 250
5759 26
9059 168
493 29
1007 92
4018 29
4420 314
6848 356
8742 70
8983 180
494 174
2044 17
3156 342
4694 174
4870 166
8567 174
495 307
2449 20
6368 74
8632 155
9927 307
496 351
1344 27
4423 200
5919 41
6795 351
7251 34
497 7
2961 269
3229 298
6284 7
498 309
4998 84
6586 43
7684 137
9171 78
499 231
3745 359
6060 65
9352 231
9366 231
9383 303
9735 263
9752 231
500 361
983 374
5378 361
6065 361
6415 319
7633 361
8189 36
9391 125
501 168
1098 168
4615 227
5112 130
5418 41
6906 260
502 23
1219 23
3230 88
4046 23
4418 89
5976 23
7802 282
8627 64
9251 36
9920 109
503 101
535 101
1210 125
4095 107
5736 256
6154 358
8393 111
8398 11
9737 102
504 36
1513 20
1607 92
4140 36
6231 36
7180 291
9258 298
9465 36
505 134
3963 218
3998 281
8663 134
9314 134
9899 341
506 219
1733 110
4888 219
7046 219
9376 340
9974 64
507 69
1419 69
2186 136
5509 69
6524 285
8277 274
9832 235
508 69
1137 27
5320 69
7242 275
7605 332
8021 315
9906 25
1689 69
3810 61
6300 201
7887 155
9672 69
9792 293
510 85
1604 85
3865 155
5419 85
6243 357
7454 85
8624 113
511 144
3253 27
4426 189
4729 343
6310 298
9569 144
9943 235
512 321
670 321
3598 372
4370 273
6423 321
9739 274
513 263
961 28
3724 263
4696 187
5206 288
5328 263
9261 288
4421 20
5000 271
5244 58
6207 208
7731 20
8493 0
515 294
2704 323
4416 17
7032 294
7561 234
8650 17
9446 69
5790 42
6245 29
6327 212
6847 266
517 7
4769 305
5231 162
5745 123
7872 7
7926 99
9086 7
518 109
3930 370
6698 215
8000 119
8702 348
9445 109
1053 14
4934 190
8356 43
520 220
527 221
6105 369
9060 253
9865 100
521 104
1261 87
5202 352
522 69
3498 36
6203 342
6665 69
6883 69
7048 31
8160 344
9120 22
523 19
1493 250
3465 66
9186 19
524 81
4512 234
5521 30
5650 281
6716 314
6902 145
8989 159
9353 81
525 22
2747 196
7721 319
8491 171
9252 217
526 98
2678 346
2695 98
4240 200
4371 311
5609 246
7426 98
9655 100
1216 221
2932 189
3910 27
4583 28
6409 221
7287 125
8368 221
9859 86
528 77
3154 355
3522 27
5592 258
8697 77
9296 77
9423 77
9451 251
529 121
2500 88
3400 286
4016 121
4655 121
5057 233
7003 267
8435 2
1492 67
3568 3
6089 28
6190 36
7881 64
8529 198
8722 107
531 169
1635 212
6924 328
7395 169
8902 169
532 26
6430 26
6908 241
8490 321
9270 61
9485 103
9992 26
533 282
1466 304
4340 17
4857 39
5051 282
5541 260
7525 66
8677 282
4090 173
3416 101
5699 267
7482 94
7749 18
9660 228
536 205
2722 205
3545 205
3893 345
5386 286
8234 187
9269 178
3339 144
5094 82
8088 199
538 14
616 15
627 330
828 14
1901 35
4260 14
6167 14
6500 140
539 144
884 144
3871 38
6833 136
7557 121
7986 144
9578 143
540 301
5052 203
5893 301
9033 300
9699 301
541 42
1917 188
5414 85
5562 42
5693 81
8657 20
542 198
1429 17
5015 92
5927 347
7207 193
543 338
6237 338
7268 103
7431 43
7670 62
544 284
5011 284
5947 205
8712 354
545 125
1273 9
3371 125
7726 78
8636 357
9861 204
546 332
716 292
5403 332
5807 79
6582 146
7358 332
8904 332
547 161
755 161
5377 374
6752 202
7619 80
8739 286
8990 161
9039 181
5915 44
6780 113
7773 43
9113 0
549 288
1255 49
3116 288
5482 134
9917 288
550 104
762 152
1396 104
1958 104
2877 8
6598 21
8815 356
551 295
2333 166
4045 295
4361 74
5982 139
7408 204
7935 276
8407 295
552 231
3880 228
4709 43
4823 334
5107 251
5805 61
8450 69
553 277
801 278
3507 263
4332 42
4387 65
6090 262
6447 129
6515 277
8602 277
8986 277
554 220
2011 239
3543 296
4092 59
555 101
2476 204
5817 93
6547 336
6880 139
7244 194
8791 36
556 46
2948 307
3427 32
4259 244
5089 127
7026 46
557 161
1753 20
2757 161
5047 42
7563 327
7700 26
558 82
6358 78
7000 82
7466 163
8631 3
4928 362
6118 143
8016 251
9374 42
9982 95
560 137
6427 137
6548 212
7071 45
7177 237
9670 137
561 244
2236 69
4151 364
4712 244
5725 339
6971 5
8055 105
9197 244
562 350
1277 46
2577 233
2921 117
3608 238
4225 1
4700 350
4806 69
9836 350
563 193
2970 157
3213 166
5025 237
7414 193
7591 72
564 7
2471 7
3751 328
6367 66
7733 169
565 55
4474 55
8789 336
9066 78
9587 55
566 150
6391 150
6652 210
6923 354
7269 26
8252 57
9652 150
567 145
608 145
2588 13
4246 170
5830 145
5945 319
6322 145
568 362
2166 99
7211 352
7714 72
569 172
3152 105
4598 365
5823 63
8101 172
570 14
1117 14
1760 59
6191 91
6573 166
8832 152
9734 14
571 99
5318 230
5404 368
8020 99
8052 98
572 26
3521 26
4532 238
4704 87
6280 275
7040 26
7157 149
9893 195
573 273
6723 325
9873 273
574 220
2411 92
6610 358
7179 131
8031 315
575 69
889 69
1552 160
4636 2
5578 276
6428 80
9331 69
2020 32
3619 341
5776 75
577 25
2077 25
8934 236
9075 153
578 69
2646 362
3282 20
7161 69
8303 352
9717 69
9898 69
579 276
5664 17
6787 80
7904 197
9407 343
580 17
2080 352
2508 27
3636 281
6777 20
7671 17
8434 17
9036 46
9828 17
581 310
4386 310
6252 22
8138 268
8175 339
1203 321
2982 99
4978 321
7969 362
1030 31
1181 332
3808 332
5022 332
6210 213
6662 116
9765 256
584 30
1307 97
4300 186
4926 30
6660 338
9435 321
585 321
6295 321
8498 117
8792 321
3928 7
5420 330
5654 10
587 25
695 69
2422 28
3797 162
7178 238
589 213
2899 213
5401 92
6517 210
590 96
1350 96
4004 64
5572 96
6130 157
7149 143
8063 316
8830 96
591 204
2307 93
3816 183
6048 77
9287 204
592 99
915 119
593 372
2672 359
4639 183
7814 372
7880 251
8140 372
594 93
3130 331
5971 157
6489 342
7723 319
7728 93
9250 102
595 25
1368 78
1971 347
5226 334
8142 162
8242 101
596 149
2764 280
8343 228
749 176
1171 319
3558 56
3869 101
6617 176
7259 145
7944 145
598 294
4435 177
8366 294
9467 7
9504 294
599 288
3471 338
5802 51
6083 369
6829 206
8513 288
9135 327
600 200
4875 361
5098 304
5282 105
5602 0
5902 200
6941 146
601 4
3811 52
3835 13
5782 276
8139 4
8299 25
1864 74
4296 121
7288 92
619 105
3992 97
8278 224
9506 162
2916 245
3758 249
6835 263
7452 245
7507 245
7916 206
8179 348
605 148
4207 254
4215 293
4772 264
5538 77
6431 83
8104 148
9627 66
9980 148
1410 80
4381 163
4504 251
5103 251
9762 92
607 263
1578 263
1964 262
2169 275
4506 333
4546 64
6318 205
5133 95
5557 348
6865 294
7264 255
9335 373
9461 145
2372 115
6972 308
8164 132
9177 308
610 203
4241 203
5771 42
7490 110
9020 69
611 179
1016 179
2994 77
6299 179
6851 331
8098 95
612 95
8237 176
8327 103
9633 95
613 238
1861 175
3456 238
6632 65
8167 81
730 108
2259 169
3721 46
4716 46
6628 301
615 213
5413 213
5637 272
5799 51
6592 231
7370 273
9145 72
4147 18
4711 245
5329 290
5837 15
6134 165
617 149
1702 7
1785 55
2683 252
3506 153
3665 77
7673 236
4525 20
5048 188
5709 139
6554 240
9380 271
1790 105
3333 29
5300 131
5571 204
9027 351
9918 294
9962 95
620 190
1882 311
1898 7
4335 249
5656 113
621 1
9095 1
622 17
3986 17
7301 336
9617 266
3722 187
4726 37
7270 205
7804 50
3547 200
6731 176
9625 160
656 317
1067 155
1750 361
3404 339
4516 339
6239 296
626 199
1803 199
2103 99
4545 35
7181 165
7422 199
4503 61
5459 58
8502 337
628 34
6658 70
7285 213
9300 34
629 173
3023 3
5384 7
6904 261
630 213
1353 175
4436 213
7437 213
7448 45
8399 64
9404 194
631 305
1774 227
5898 22
7310 305
5391 116
8621 208
633 356
1276 237
1319 203
6782 108
6945 26
8113 356
634 48
2260 10
5566 196
7876 48
8618 187
635 326
4733 139
6172 160
6467 77
9495 326
9824 326
2495 202
5322 342
8162 20
8464 84
637 183
3276 281
4618 364
7282 6
8131 76
8183 197
9009 183
9227 10
638 33
851 92
9049 33
639 282
1195 195
4159 121
4432 76
4793 179
4917 33
640 362
4628 7
5177 362
641 126
6535 59
7660 353
642 17
2185 92
5903 128
6212 17
6733 333
6952 80
9071 178
643 151
1205 175
3318 247
3809 99
8609 328
644 205
739 154
1172 171
3145 205
7549 205
9176 340
645 167
2690 77
3295 123
4169 292
4688 167
8504 140
8994 167
9220 167
646 197
3642 317
7748 197
2876 126
3181 185
6378 77
648 39
1457 198
5789 7
7333 166
7552 323
649 337
822 107
1570 230
6050 253
7062 337
8310 25
650 221
718 113
6507 221
6800 151
651 43
3255 288
4485 192
9411 43
9448 43
721 58
2793 256
5255 261
9051 303
653 270
758 199
1789 180
3644 270
6917 263
6987 26
8344 270
654 183
1071 183
3814 78
5335 183
655 44
2893 20
5330 163
5878 247
6297 279
6064 368
8995 317
657 301
9115 363
659 20
3626 66
4459 336
9854 20
660 129
4365 219
6925 113
6938 125
7131 129
7979 80
8308 162
9656 129
661 81
5117 101
9067 277
9082 132
662 70
3098 324
6393 118
7410 70
8598 271
663 370
7659 370
664 329
4705 329
5251 265
7022 214
9983 10
665 26
2128 26
4192 105
5138 311
5409 42
7713 26
666 45
6115 116
6988 286
8593 45
667 129
900 143
2047 58
6173 134
7568 305
9572 129
668 312
2870 46
4224 26
4885 171
5512 281
6138 312
1523 203
2195 348
4271 102
5431 321
6522 49
8332 261
9041 51
9782 187
671 60
6853 60
7317 101
8425 76
672 254
1202 69
2356 23
3110 359
5916 141
8755 254
980 240
985 180
6419 102
674 370
5079 220
5405 160
7859 38
714 34
950 61
1981 223
7868 326
8738 185
676 304
859 304
919 184
1940 244
4182 11
6838 153
8860 94
677 281
7365 280
7699 266
9153 281
678 194
1913 23
3143 233
6929 131
9134 66
679 10
3085 90
3748 170
5160 10
5243 128
5763 10
7142 186
680 125
765 125
1153 77
3099 200
4305 96
5008 343
5085 362
6881 125
7254 36
681 248
2233 163
3627 174
3988 101
9023 29
9988 248
682 219
4770 248
8492 251
8912 218
683 289
1010 373
1450 236
5677 289
9237 289
684 217
3021 249
4390 346
6751 186
8804 217
9137 217
685 169
968 133
1616 36
3700 169
3826 229
4217 34
7930 169
686 206
4178 69
6651 330
7403 172
8695 206
8751 206
9100 206
9284 187
794 165
1348 115
7601 184
7794 217
8509 184
9280 231
688 23
1912 196
2774 23
3945 176
4033 23
4662 120
7275 41
8172 288
8787 349
3436 372
4359 33
9702 35
9922 197
690 270
2740 270
3504 121
3735 20
4982 10
8028 270
9057 209
691 124
905 23
2425 283
4659 126
6520 166
7383 124
7555 142
9409 124
5884 285
693 151
4499 153
7449 98
7654 151
2898 72
6555 298
8874 130
9924 49
5204 69
7753 328
8372 240
696 132
1275 216
6819 207
9211 20
697 260
2957 258
5151 308
7596 141
1373 84
1859 362
3990 160
9330 72
6116 142
7768 240
700 145
3185 70
5042 145
6948 344
9710 141
701 169
942 191
5625 246
6928 139
7056 7
9537 169
702 3
2917 114
4768 3
5595 26
6611 3
7932 81
8896 257
703 24
893 106
6472 24
7809 24
8240 22
8364 24
704 76
4115 367
6764 76
8059 11
705 10
1129 177
1777 10
4373 99
5564 101
5846 10
6156 79
7017 10
7506 177
706 57
2858 30
5585 73
7918 57
8109 193
9249 57
707 146
3114 149
4102 146
7690 256
8628 295
708 346
2583 49
5280 346
7795 77
7852 130
709 67
4441 67
5200 115
6567 100
7316 67
8701 236
9317 187
2257 313
3135 70
5339 301
5615 285
711 344
3908 171
4802 344
5236 363
5995 104
8756 265
2616 61
6075 250
713 137
5715 137
2193 199
5972 332
3073 345
6677 147
8988 147
6910 292
8785 292
717 52
2026 52
4808 275
6609 336
9692 52
3270 185
7807 374
8957 113
719 96
2165 228
4141 233
6320 10
7128 160
7642 187
9210 50
720 364
6188 364
4493 58
5517 58
8107 117
722 96
4227 11
4971 96
9428 175
723 52
1096 127
4748 130
8675 268
2575 211
5993 289
725 132
1832 170
4384 10
4942 210
6794 304
7319 362
1052 108
3560 325
5767 356
6871 17
7516 356
727 199
1087 93
8013 166
8267 59
8798 374
1297 303
2249 326
2407 276
2758 81
7060 127
8553 187
8656 371
9054 339
1727 96
2256 298
8319 85
731 267
3445 134
4882 267
7924 37
9614 196
732 182
1869 182
6316 268
8875 193
733 37
960 37
1038 175
2246 208
6434 180
734 287
795 287
2643 242
6541 230
7866 23
735 295
2143 196
3852 295
6255 295
6799 209
7493 198
736 361
992 361
4610 301
7685 361
737 17
1847 17
2205 343
7286 41
7638 347
7520 25
2669 73
4142 72
6667 270
7087 154
740 203
6684 11
8200 203
8386 283
8745 225
9525 256
741 329
2925 117
5218 314
742 187
3975 78
4468 93
6484 187
7824 328
743 266
744 148
2638 299
3875 212
5822 266
7630 140
8383 64
9297 86
1814 304
1933 196
4088 5
2027 59
2519 268
6727 59
7076 14
7280 343
7999 59
2596 181
3280 299
5705 122
7363 55
2313 286
3646 372
6563 12
7214 201
7724 12
748 243
2189 92
2635 62
4214 354
4916 243
8078 243
8847 279
6494 176
6585 176
926 334
6664 373
7900 374
8273 334
8700 220
751 259
2792 259
7938 321
2106 286
6051 10
8851 318
753 80
1060 59
2421 80
5978 214
6155 86
9718 373
754 266
5290 266
5877 266
7299 162
8551 49
3273 272
4817 273
7813 272
8093 77
8955 161
756 162
1253 70
1339 76
2861 162
5408 162
7006 162
7406 17
757 295
1514 295
2078 295
2181 92
8379 359
9235 347
2885 41
5766 236
6141 199
759 171
7357 369
8954 171
9035 171
1910 29
3375 271
6876 144
4936 166
6072 359
7324 163
8380 139
8733 166
8942 166
9482 162
952 149
1587 17
3052 361
4521 204
7534 152
763 356
1106 119
3419 155
4869 1
1352 101
3165 40
5689 310
1473 57
4307 125
4350 241
766 330
4796 264
6196 330
7686 41
767 77
3551 77
3892 77
7042 18
768 163
2239 304
2358 268
5683 80
9141 87
9872 163
1623 26
1922 263
5749 213
6646 263
6839 189
770 249
7597 116
8433 249
771 196
1142 224
6505 131
8232 133
772 131
1797 105
5209 109
7692 358
8201 131
773 130
4249 10
7115 245
7754 167
774 68
4865 68
775 344
1756 356
3566 344
3956 24
7140 344
9450 76
9977 77
776 241
3882 241
5275 269
6019 302
6031 241
7472 136
777 277
1856 236
5617 277
9987 277
778 195
1761 176
9560 241
9644 195
779 211
1688 211
2025 287
8859 227
1018 372
3479 28
9245 27
781 35
1244 117
3322 211
5150 149
5441 6
8919 35
782 57
1157 57
3948 175
4629 57
6413 57
8828 122
783 359
883 359
2707 37
7819 86
8311 61
8405 359
1133 164
3654 216
6887 16
785 77
2118 77
2327 291
4274 77
4673 368
786 29
3112 29
5786 345
7166 160
7344 118
8879 167
787 162
4012 139
5050 162
8520 229
788 188
5183 155
6571 232
6729 188
8911 300
9030 9
789 24
1654 138
4563 256
5695 24
8597 24
790 338
791 145
1498 209
3126 295
5980 244
7396 179
8018 91
9486 186
792 326
5577 282
7367 149
793 77
5162 66
6097 56
6182 77
8030 54
7376 297
7450 364
8499 165
9712 117
2362 287
6885 235
9160 19
796 303
3757 131
7602 285
797 304
3563 304
5700 179
5953 304
9283 249
798 66
4564 178
8550 218
9279 66
3803 42
9309 84
800 49
1166 154
6416 49
8209 21
7707 278
8014 10
802 125
1158 63
5535 144
5909 125
803 359
1872 114
3570 36
7504 273
7913 183
7922 359
804 95
4378 237
6262 66
9117 277
2613 65
2619 27
5957 262
806 159
2904 260
3297 235
5575 64
5706 171
3474 39
808 304
1929 304
2302 14
6293 36
7004 270
809 214
2135 347
2208 214
4104 47
4403 110
8188 153
9443 218
1820 356
4220 273
5514 193
5987 266
7641 193
812 286
1197 16
1469 343
3583 182
7019 3
813 47
7092 47
814 17
2102 289
7765 25
9311 282
1771 143
2515 56
816 179
1852 146
3825 283
5984 274
6396 105
817 17
839 271
6875 17
7577 240
818 118
4715 3
5274 142
7088 146
9198 92
2955 144
4831 113
6962 346
9393 113
820 295
3503 295
7523 148
8486 136
9429 258
821 238
2045 238
6149 367
6600 351
8758 143
2032 129
5091 364
5345 107
8243 157
823 205
1723 192
2912 133
6422 205
6998 150
8134 173
8729 155
824 146
1943 146
2894 200
6131 146
6457 146
6872 64
8153 108
825 286
2160 332
2980 337
6336 286
826 117
1665 241
1729 331
5860 69
7360 117
827 337
3668 100
5513 353
3855 14
4511 347
7041 256
7810 143
9350 248
6959 102
8391 68
830 11
1005 11
3406 63
5611 243
831 249
4582 249
5671 249
832 267
4760 354
6704 28
7939 367
9806 329
833 252
3070 229
1487 88
2311 69
6185 88
8023 88
835 146
1048 146
2385 29
7097 81
7651 146
8026 83
9294 42
836 101
1036 140
3108 276
4614 81
5342 66
1966 202
4242 45
1619 32
4923 40
6874 343
3069 281
8469 271
840 341
2096 252
3434 322
9628 341
841 201
5610 174
7033 195
8294 92
842 187
4889 187
5792 77
8854 95
9047 166
9097 187
843 228
4044 42
6177 17
6711 195
8219 228
844 42
6298 42
8603 42
8834 119
845 73
2938 119
4674 73
5942 73
3605 41
4905 268
847 332
6263 301
7798 261
8568 283
3743 113
4189 256
8185 280
8438 281
849 105
5134 269
7112 105
850 87
3155 133
3283 86
5925 66
6206 50
7917 173
8800 222
9127 87
6638 109
7646 355
852 303
1821 50
5788 171
9363 7
9884 303
3041 158
3217 87
6047 87
8652 143
5069 13
6443 125
9629 2
855 14
1070 177
5195 337
7197 270
8458 14
856 273
3488 295
5189 276
5570 284
6996 273
8824 273
857 47
7167 99
9440 256
858 118
1356 282
2390 321
4218 186
5422 118
6681 118
8489 273
8555 118
8784 86
3078 250
3995 286
8820 67
860 342
3459 342
4190 67
7113 342
862 90
4374 96
7018 82
8511 90
863 66
3683 241
6482 66
6796 13
8768 38
864 21
1553 11
3710 351
4002 146
4855 21
7841 21
865 295
6450 154
7163 346
7221 195
7458 42
866 295
7187 323
8633 147
867 76
3578 114
4717 235
5305 76
8595 323
9487 222
868 16
2017 195
2105 230
4164 99
7509 260
869 25
5940 251
8181 211
8358 25
4030 237
4850 196
9880 95
871 103
2940 162
7840 103
7991 103
872 138
7135 138
7607 109
1988 271
5584 89
7023 138
7127 316
7849 175
7920 79
874 99
2397 99
4411 188
6654 209
8858 36
875 30
2628 144
7775 30
876 56
5158 232
6023 56
6557 180
7553 56
877 30
2875 163
5258 30
878 53
2201 166
3228 369
4853 70
7234 105
7755 86
9418 53
879 245
2339 268
4132 245
8361 245
8408 245
8411 254
9708 139
9767 187
880 101
4351 156
7124 84
881 273
5812 101
6009 196
10000 273
882 241
1232 330
1990 284
2817 11
3124 182
1539 359
4339 359
7110 249
9138 221
3420 158
6575 151
7372 25
7976 144
885 268
7513 193
3299 104
4235 166
6770 2
887 92
3392 155
4569 330
9781 92
2335 82
2375 263
6351 72
1766 221
4677 69
6002 362
6304 260
2686 146
2945 59
6123 189
6381 78
9730 166
3737 145
894 20
5390 204
895 125
2976 125
3048 127
4008 133
4038 125
896 156
1770 2
9868 113
897 52
1134 270
2539 202
2929 368
3460 209
4264 52
5849 77
9228 52
7165 146
899 128
1445 128
6491 128
3582 143
7708 143
8037 143
901 116
3921 191
4216 208
5762 262
7034 116
9932 171
902 208
2782 208
4880 208
6095 236
8606 243
903 265
1974 77
9819 265
6032 160
7049 13
7712 254
1813 278
6464 146
906 237
1108 169
1739 29
3500 117
8610 144
907 221
2237 43
5435 7
6914 221
9315 221
1393 289
909 61
3089 227
5387 61
9162 33
910 36
2780 41
6479 195
911 239
2978 359
4567 324
6732 12
912 68
1883 318
2297 68
3623 168
3690 305
8205 35
9196 68
913 254
1263 224
4453 17
4645 99
5682 19
8916 254
9842 254
1618 288
2768 328
6771 162
7672 171
8432 12
1606 351
3040 340
3247 322
5375 92
2790 365
4558 186
8133 350
917 146
2059 173
3712 302
5268 146
7133 146
8095 190
918 193
3612 75
3689 74
4827 302
8688 290
1402 277
3728 253
3782 89
4039 191
920 269
1015 74
6635 269
7216 332
8291 36
8604 269
921 295
1143 80
6022 295
6858 344
922 129
6010 216
9897 274
1524 299
5605 299
6706 299
8774 86
924 216
3431 249
4553 277
4657 282
7744 288
8257 216
925 252
1455 224
6955 125
7500 139
9500 84
5142 202
1403 245
1684 69
3044 68
7662 322
928 57
2748 190
5567 57
7886 57
9986 6
929 340
2387 193
2947 340
3166 107
8960 340
930 42
1115 42
1637 60
3662 204
6343 156
6471 40
8416 253
9174 11
9433 42
931 62
2134 222
2852 86
932 57
5376 57
7236 265
8409 295
933 273
1812 41
5801 48
934 167
6265 343
6283 215
7715 61
935 321
2001 321
5185 133
2463 278
6549 92
9517 243
9722 163
937 170
7297 264
7883 143
938 270
2630 270
4166 81
5501 137
5653 356
8964 270
9343 140
939 286
1500 304
6397 286
940 235
2197 235
2228 7
2368 217
3502 48
4258 105
5096 235
2972 81
5986 7
8041 237
4579 183
5114 66
3433 219
5600 300
6405 66
1008 59
3693 107
4974 99
9725 99
945 74
979 121
1029 166
1647 155
1843 34
6214 293
946 129
3544 129
4500 129
7393 159
947 122
1706 122
2031 25
4400 218
4557 171
4626 122
6656 115
6738 122
948 200
3227 85
4592 233
7353 197
949 151
3973 133
1309 284
6147 241
7667 61
7111 174
9549 130
3932 149
4780 149
4833 273
4910 100
1541 40
2140 127
2273 247
4884 32
6124 257
6418 127
6951 211
9183 127
954 10
8429 265
9058 10
955 136
4247 75
4909 234
6432 253
7394 148
956 325
1229 166
2322 72
4316 236
6425 325
6477 259
957 255
2808 162
4058 255
4837 165
7996 255
2799 226
3856 235
7579 329
959 333
1521 69
7532 333
3326 355
3599 85
4158 74
7587 37
1613 28
2501 102
4319 7
6986 28
7855 28
8699 6
962 301
4451 44
963 79
4253 351
5495 79
5808 47
7074 79
964 40
2280 362
2981 146
6352 49
7063 40
9601 40
1645 32
7634 32
8932 283
2235 312
3796 109
6808 278
8975 25
3785 154
8360 189
8945 335
969 76
5312 120
5698 131
5730 288
6668 76
7338 78
8541 76
970 166
4388 345
4699 110
6109 91
971 144
7503 34
972 279
1972 90
4353 279
9704 285
973 176
5674 354
9812 64
974 191
7054 183
7446 35
8239 293
8260 191
9471 248
1751 371
4874 62
6469 53
976 226
2952 352
5839 118
977 43
5337 40
5590 43
7709 43
978 293
5688 20
7689 133
2556 319
2656 121
3301 346
5842 200
6407 331
6608 254
8762 121
4991 193
6120 240
6350 240
6836 301
2214 207
7261 138
7702 97
7815 138
7846 349
982 294
2999 222
5370 152
6934 294
2413 206
7240 166
984 35
5090 195
3920 78
1044 21
1156 35
987 185
2562 353
4477 195
7038 155
7195 185
9900 89
2412 63
6519 236
7961 7
989 330
3740 330
5368 330
7455 324
990 30
4805 361
5351 120
7109 162
991 125
5761 321
7208 36
4310 127
9970 152
993 365
1484 223
8276 313
9224 21
994 7
1248 7
1527 198
7103 263
9772 7
2396 180
5895 130
7192 177
996 6
1719 42
2968 21
3647 32
2910 71
998 54
2418 175
3365 138
999 178
4137 178
8533 245
1057 62
8076 28
8539 368
1001 245
5918 354
1002 23
2258 23
3372 295
4635 345
8082 140
1003 268
5007 351
9690 141
7313 72
7983 249
8123 283
9222 249
1511 11
7451 224
8822 25
1006 214
3367 214
9780 61
6424 92
4814 59
6687 59
8427 288
1009 61
6625 107
9529 289
1049 164
7648 174
8647 373
1011 173
2654 72
4308 359
4487 146
5861 301
3325 174
5739 38
1013 368
3279 368
8665 368
2594 302
5442 196
6696 285
6079 275
6860 74
5301 340
6337 179
6891 113
7890 265
7956 98
2229 372
4596 372
8170 4
8642 372
8865 257
1019 195
2769 195
4086 195
5030 50
5190 219
8106 195
1020 13
4336 46
4679 13
1021 224
2132 224
2254 39
2435 224
4483 213
4638 349
9746 49
1022 364
3493 249
3889 364
1023 165
4395 229
4895 337
5780 258
5813 165
8914 195
1024 14
5382 354
8199 166
1025 184
6793 277
1026 116
2466 262
2531 130
3741 334
7171 116
1027 314
1717 207
1028 154
1407 280
2753 69
3067 26
4701 154
6294 278
7635 154
8312 276
3480 166
9143 187
9189 28
1031 66
3186 87
4719 66
4800 66
5113 53
5428 123
1032 275
1759 346
8565 150
9316 275
9653 275
1033 316
2084 269
7152 303
7767 316
8893 367
1034 96
9778 236
1035 75
3264 75
6452 75
7486 307
6868 140
8692 140
1037 104
1690 104
2354 229
3304 270
7411 25
7985 314
3792 299
5917 133
1039 263
1080 317
3366 136
3573 79
7645 263
5950 92
8008 196
1041 136
2760 235
8029 138
1042 187
1119 62
1165 87
1731 187
2502 156
9040 283
3407 162
4162 21
5481 189
6974 189
3383 282
5179 201
8519 4
4541 164
7915 164
8457 342
1050 321
5958 321
8617 341
7697 25
8320 224
8966 256
1891 22
6605 69
6778 108
4920 110
6061 14
8126 154
2364 184
5232 174
1055 25
4828 114
9556 20
4116 126
5380 250
5988 125
7567 126
1064 277
3092 305
6132 56
1495 59
1600 116
8065 320
8315 273
1059 232
5634 46
8861 66
9199 232
2331 321
2623 181
2997 229
5594 61
5773 232
8941 256
9997 193
1062 373
1556 206
8674 107
8698 154
9042 9
9194 373
3409 69
8495 280
8783 350
2995 230
6767 299
6827 56
7925 277
1065 61
3451 366
7793 93
1741 343
4940 206
5729 171
7929 171
8440 260
8691 171
4330 240
5131 362
8752 155
9612 288
1068 161
2566 161
4439 161
7055 195
1069 24
7811 285
1904 177
2340 59
3694 127
9703 177
1090 366
3457 26
5532 98
9664 140
1072 83
1131 312
5645 83
6817 174
1073 303
1104 60
6151 187
7921 274
1074 62
3753 194
5601 5
8463 62
1075 241
2779 273
1076 3
1703 46
1744 3
1999 346
6356 349
1077 345
1983 345
6277 345
1078 304
8054 258
8766 367
1079 239
6315 42
8161 239
8779 126
3381 126
1081 129
3100 129
4518 15
6261 40
1083 188
3443 188
4080 188
5560 8
3960 139
4958 126
5317 155
7696 61
9305 269
5466 160
1086 273
6382 26
5692 60
6285 213
6360 93
1088 223
7612 223
8385 307
8532 223
1089 193
1569 193
2715 186
9543 193
5334 366
7213 102
3923 81
4555 69
6385 256
1092 319
1682 44
1824 22
5613 14
6376 319
8094 123
8288 319
1093 102
3453 215
5109 260
6595 134
7711 102
7584 262
9661 288
1095 285
3364 8
2308 187
7347 142
1097 157
6813 157
8554 157
9192 320
9589 283
4795 168
5586 22
1099 271
2692 100
1100 373
6176 373
1101 358
2123 255
4482 89
1102 282
4036 72
9324 188
1103 250
1745 39
3415 348
7959 276
1105 35
1366 139
3532 5
8197 47
3707 7
1107 308
4536 69
5398 291
5821 308
8384 260
9004 166
9519 319
3414 26
3577 182
5865 32
1109 133
1737 232
3900 266
7315 351
1110 145
1906 142
6312 46
7751 145
1111 19
8626 300
9266 145
1112 260
2605 113
6678 361
1113 162
6018 162
1114 280
1844 63
2498 56
4009 280
1116 118
1949 302
3907 103
4427 118
4595 256
5678 75
7175 118
7148 195
8110 241
1118 247
3585 270
4015 352
4267 142
8024 247
3470 123
1120 78
1155 25
1788 156
2056 7
2659 88
2691 78
2891 78
1121 4
2010 97
5819 361
7515 4
8330 273
1122 207
3188 350
7829 207
1123 373
1425 114
3190 61
5340 144
5519 271
9028 100
1124 24
2626 24
2714 298
3199 24
4107 40
1125 105
7337 105
9361 288
1126 38
1269 368
2717 88
3763 105
2624 20
6492 237
1799 73
6674 358
7501 75
8771 177
3214 253
4449 253
4368 312
7397 81
7877 288
1132 264
3819 300
7621 166
8481 1
1617 277
7028 245
2445 270
8549 270
1135 108
1537 14
2527 69
3795 108
4829 247
5568 363
8525 108
8375 36
2878 89
7039 27
9531 262
1138 251
1391 108
2718 251
2987 287
6840 213
7481 251
1139 232
7487 163
1187 176
1560 20
7194 71
1141 66
2100 99
3942 277
7546 66
2287 79
5248 193
3250 62
6046 146
1144 241
4794 53
5550 256
6324 81
1145 44
3074 222
3815 44
6451 180
1146 292
1406 292
3525 10
6187 53
8527 292
1147 186
1836 186
3224 230
7762 186
1148 119
5619 67
7320 240
2632 146
7064 230
3905 73
4321 271
6670 21
7495 187
1151 207
4324 364
1152 26
4146 252
4913 26
5623 165
6669 26
7399 273
4401 263
4811 160
5815 77
5857 287
1154 279
4168 372
8574 279
1806 207
2068 120
9911 25
5608 35
2475 62
4689 239
6041 240
1815 294
4530 63
7476 368
7661 63
9161 260
3677 7
3682 166
1160 323
1343 332
3059 225
7232 323
7442 323
1161 24
4561 374
5044 269
6342 139
1162 38
7083 97
1163 41
3231 41
3266 40
3947 107
7153 41
1164 263
3162 222
4498 75
4790 340
8876 263
3046 148
5031 298
5955 125
7391 154
8261 348
8952 0
7162 201
7580 328
9580 328
3087 66
4183 371
5828 240
1169 177
7897 112
9179 61
2975 268
5853 252
7583 132
3957 85
4170 363
5931 133
6514 335
6909 171
7908 135
1608 325
4181 100
7005 99
3832 54
7543 355
8300 35
8713 355
1586 261
2238 198
3597 230
5724 268
1176 41
4128 344
6071 313
1177 261
4205 295
4605 261
8662 230
1178 61
4637 79
1179 36
3972 20
1180 348
1909 348
6348 62
9926 100
1531 166
3593 358
5480 274
1182 325
2153 5
2381 36
2700 253
3031 5
4100 332
3354 51
6102 51
7535 369
1184 187
1718 368
9654 187
1185 11
5059 139
1186 43
3541 50
4529 61
5914 181
2107 355
3876 86
8333 56
1188 241
8146 139
9498 36
1189 174
6490 174
7531 75
7902 174
8046 288
1191 7
3674 165
5389 166
1192 228
2828 307
3634 81
3639 228
3680 81
3756 250
5639 196
8263 228
1193 42
3418 42
5037 359
6039 188
1194 115
2220 2
4727 268
5235 62
1272 195
3824 127
6220 348
1196 59
4620 347
4937 324
6142 59
6831 327
8420 59
5087 248
6783 16
7352 363
7911 16
1198 245
2853 40
4867 134
8671 248
1199 141
1421 269
3510 256
5948 202
9949 141
1200 96
4424 305
1201 110
1305 80
2125 73
3345 269
3776 221
5938 110
7970 258
5186 69
5294 284
7364 69
1326 7
3704 306
5549 321
1204 82
5121 82
5315 269
6683 320
4344 47
5326 148
6516 28
1206 69
3013 69
7434 299
1207 121
5343 121
6014 361
7430 92
9055 245
1208 180
2584 312
4117 180
5176 180
9372 109
1209 248
7428 318
7492 328
9000 227
4652 125
1211 78
4496 280
1212 326
8371 374
9180 76
1214 241
5332 283
7036 241
7860 308
4661 96
6193 99
1447 145
4109 302
6248 221
8967 294
7052 334
7392 118
8898 196
1218 69
5675 288
1653 350
6919 22
7464 197
1221 269
3063 269
1222 166
7906 64
9308 166
3210 210
4725 37
6694 2
8284 37
1224 358
3385 145
3529 358
4062 358
5636 26
1225 210
4609 148
5500 195
9458 36
1266 255
4276 186
9459 239
1388 294
1666 0
2219 65
3708 183
5421 183
5873 314
2459 51
2736 277
3182 76
8588 61
8612 166
1230 173
3064 41
1231 308
2087 308
2777 215
6043 265
6241 308
7512 74
7496 330
1233 368
5245 213
7239 187
8003 368
1234 122
2730 109
3129 205
5270 174
1235 250
2234 286
4457 214
4797 2
8910 250
7971 7
3161 166
7072 336
1238 295
5800 139
1239 29
3940 89
4165 29
1336 83
1448 131
3215 17
4973 192
5075 287
8651 20
1241 67
3319 36
4402 67
5520 102
1242 301
6081 40
8345 71
5229 133
6063 60
2681 20
7590 179
1245 224
4932 29
5686 291
7691 72
1246 274
4708 223
5559 198
1247 103
2283 103
5324 335
7893 7
1249 16
1458 16
2295 72
3853 302
1250 63
6560 63
1251 14
3452 14
5591 302
6178 178
9425 269
9584 171
1252 11
2115 152
2341 11
2491 11
6859 11
7401 314
5166 255
7953 114
8359 70
9610 125
4442 286
3845 49
1256 18
6258 107
6898 18
7545 18
6485 19
1258 335
7656 335
9542 335
9901 335
1259 165
1392 174
7875 165
9838 81
1260 196
3308 21
6388 139
1985 203
7447 163
2590 193
5629 144
6820 40
3534 224
5478 164
1264 105
1461 105
1265 61
2849 273
7283 61
5569 81
1714 370
4776 19
4962 370
6703 169
6713 69
5889 297
1270 194
1996 12
5446 17
8530 194
2488 77
7086 77
2918 335
4471 195
9338 260
9410 79
8325 9
8979 9
1274 113
7456 22
8660 148
7839 216
4060 292
7710 237
7862 293
1804 76
3787 274
4804 25
1278 362
2967 30
4744 362
1279 88
1423 226
3976 295
4096 242
6481 277
1280 248
6087 94
6135 248
8730 92
3716 163
6961 163
5194 373
3104 170
6437 303
6935 257
1285 65
3076 357
6202 62
6442 65
9236 81
1993 77
2844 166
3967 166
1287 87
4945 182
1288 318
8788 318
1289 313
3332 229
5199 83
5612 313
2569 332
5253 26
2002 127
2706 81
1504 270
5973 124
8558 270
9971 269
1293 61
3909 153
5583 25
6401 148
7373 95
2524 113
4678 7
1418 25
4866 290
1296 288
6737 67
1468 179
6057 0
1298 332
8453 297
1299 75
3005 368
4514 64
4903 198
6074 75
6989 12
1300 146
9454 146
1302 108
2983 206
6857 142
7184 108
6521 79
9760 25
1304 137
1370 237
3016 137
2177 304
1446 328
2243 77
2895 77
4277 171
5023 59
2069 93
1308 188
9164 188
8337 53
1311 334
2786 102
4301 92
4941 108
1312 168
3286 136
5252 332
5901 168
6275 168
8077 42
4256 181
5944 271
6029 256
9052 75
2008 21
6111 21
6619 249
7300 115
1317 178
5230 302
6084 273
1318 256
1700 225
2004 71
5192 256
4883 260
6976 196
1320 86
5106 212
8496 86
1321 10
9866 7
1322 208
9125 64
1323 265
1494 21
4343 265
7044 126
1324 234
3201 80
3778 148
4464 196
4226 100
4491 209
6435 100
3606 205
4268 21
5062 155
1327 200
4781 81
6325 195
1328 148
2030 346
3554 171
4382 148
4918 19
1329 172
2464 20
2478 11
3263 335
4751 214
1330 142
4443 49
6686 17
9771 285
9935 142
4526 147
6814 358
7158 120
8546 141
5215 181
5833 83
1335 74
4654 150
3847 333
5499 83
1337 215
6444 256
1338 84
3107 32
8571 84
2860 257
4304 76
1340 203
3131 248
6542 307
7888 113
8005 204
1341 120
4463 54
5622 42
9727 187
1342 166
2737 32
2217 332
2662 332
6957 181
1345 89
1681 26
3066 216
1360 92
1464 122
5086 100
1347 321
3611 71
6946 112
7617 321
1432 19
1349 324
1475 324
2521 284
5119 161
1850 232
2540 35
8362 248
1351 256
4323 134
4355 256
5156 7
1656 240
4577 101
4799 312
4893 101
3638 4
2609 44
3984 44
1355 330
3527 374
6253 330
8154 183
6627 282
1357 193
2079 197
1358 150
4848 150
1359 142
1705 142
2332 107
2660 98
4221 83
4587 66
2775 35
5732 92
7539 188
1361 362
3036 166
5631 251
6370 124
3600 51
9110 86
1363 107
2977 357
3672 197
5141 299
7231 299
9993 363
1365 21
4452 341
7388 257
9934 139
1367 350
8552 5
9151 246
6791 164
2599 237
5781 100
2942 92
1374 349
5014 370
7676 263
9503 349
2082 260
1376 54
2196 64
4083 18
6781 304
1377 196
1488 183
2429 250
4631 196
6346 248
7831 196
5582 228
8253 248
1379 333
2675 169
7045 13
1380 109
3220 342
4288 310
1435 178
3313 26
4854 38
5118 55
5372 183
1382 227
2263 289
3762 0
9038 227
1383 371
5168 371
5267 54
7043 174
9175 371
1384 62
4139 349
4326 328
5809 62
1385 310
4922 353
1386 66
5137 141
1387 87
5552 279
7027 236
8596 285
4433 212
5182 354
6758 367
7068 294
1389 123
3150 231
4640 208
6150 146
4520 99
6184 205
2072 193
4642 174
6251 321
1454 289
5358 249
7644 299
4414 190
6334 43
6967 20
8573 324
5126 214
1397 56
2180 56
3178 232
5487 285
6645 77
6852 56
1398 374
3559 374
4947 36
5319 213
9477 61
1399 335
7335 141
1784 157
3374 277
4489 245
1534 245
1736 245
4680 348
9975 195
1405 150
3697 3
3725 96
2770 147
2840 105
4825 76
5755 280
1408 148
5765 98
1409 143
7341 295
5599 81
1412 48
7477 48
1413 110
3788 110
6593 110
7470 66
7526 183
9018 230
1414 155
1649 126
2043 343
5708 155
1415 345
1416 237
3894 237
4024 174
5555 14
9490 18
4019 143
5066 374
5814 374
4767 203
9597 25
7833 246
1420 370
5140 264
7117 56
7766 163
8538 1
3759 269
7106 11
1422 255
2807 20
5985 345
6497 83
9282 226
9577 211
1424 319
4841 236
6205 273
5295 163
9621 114
1426 69
3731 69
1427 112
5816 112
9108 236
1428 162
6621 77
7610 116
3296 17
2863 139
3878 339
5143 171
1932 352
3531 51
2209 19
4761 225
3184 42
6999 159
1434 248
1536 96
5065 209
1574 42
6504 286
7822 192
9386 113
1655 85
3140 201
5450 85
1438 141
2965 358
4007 93
5493 64
5930 15
1439 235
3661 222
7682 235
1440 332
6073 273
6390 201
7797 363
2400 76
5242 165
1442 361
2212 280
3806 8
1443 221
4281 78
1444 11
7202 206
2966 134
3083 319
1449 119
1827 336
2832 327
7249 119
2218 166
5016 75
1452 58
3557 58
1453 300
3462 273
5024 272
1456 191
3267 25
6601 320
7435 343
4338 16
7698 41
1459 277
2516 39
5072 144
1460 76
5415 191
6478 38
1462 186
2766 172
9219 186
1463 105
5921 25
6709 161
1465 66
5772 171
5840 66
1926 304
2827 205
1467 170
2314 170
2343 174
3790 179
8836 143
1470 29
4094 253
4721 275
6021 69
1472 38
6045 77
6978 286
1474 7
4665 26
7521 273
8042 244
6148 124
1476 32
1596 127
4026 32
4283 187
4723 336
5111 296
9785 32
3369 20
1478 284
4322 284
4479 222
5259 284
6001 271
1479 324
2309 137
4886 30
1480 305
4668 305
6144 305
7262 305
8129 305
1481 235
4155 235
5793 217
1482 69
3914 69
1483 100
1561 100
3475 223
3717 132
4206 243
1485 242
6264 242
3292 77
4488 329
5834 163
6693 163
4527 88
3983 195
8921 166
1489 337
5546 337
8531 337
9682 195
1491 108
2290 36
4003 333
5647 92
3467 144
4877 94
3906 78
4445 289
8648 146
6893 221
4114 105
6192 53
7073 105
7290 196
1497 227
2989 209
1499 258
5754 113
1708 122
2503 304
3565 323
1501 181
3391 70
7330 32
1502 166
1991 292
6313 166
1503 261
6741 280
6954 342
9190 306
1830 328
3651 271
9347 77
5496 359
1507 263
1591 37
2192 263
6634 154
2282 92
4478 184
1510 95
1678 240
9557 145
5396 195
6525 254
1512 123
2545 149
3019 142
2953 295
4873 369
1515 83
1516 99
2869 81
3486 1
7314 99
1517 216
1848 243
3961 146
4815 216
1518 188
9362 188
1519 275
3241 158
1520 331
2109 103
6562 155
8097 331
8415 57
3360 316
5627 144
1590 144
6006 203
2112 240
3285 75
5021 313
5960 289
1525 15
3315 38
1526 93
2266 266
2325 89
4440 232
1529 181
3524 363
1970 231
5472 237
1621 163
2371 166
1532 56
2299 256
4663 294
1728 21
1905 318
3242 69
4983 325
7533 199
4994 245
1535 285
1721 285
9711 283
4484 229
6867 34
6920 366
6533 132
1540 298
4262 308
7271 215
1612 178
5073 83
1542 343
2587 343
1543 301
1544 12
4047 75
1547 294
6170 44
7511 347
1548 92
1650 105
2451 298
1549 7
2751 7
3015 255
4670 36
8064 283
9399 25
1550 49
3750 122
6195 272
7800 49
1551 278
3800 170
1692 277
7540 195
3926 178
4430 11
4660 243
3640 371
8349 86
4397 206
4422 96
1557 69
3323 212
3607 200
3616 242
5080 111
6037 243
1559 108
5308 55
5666 246
3490 45
9663 133
2281 329
2595 8
3118 287
1953 51
4929 222
1564 224
1802 50
1565 270
7199 270
1566 273
2544 332
6086 147
3430 196
7980 296
1568 244
3615 244
5565 244
9947 285
4608 10
3442 62
5095 173
1963 47
1572 17
4758 196
1573 244
4666 156
2824 110
9144 105
1575 49
2326 190
4672 80
6000 49
1576 36
4509 330
4803 99
5193 187
1577 368
2470 17
5587 15
8449 354
1579 143
1914 159
3072 118
8206 152
1580 8
4476 7
1581 171
4549 171
8452 171
1582 111
6121 4
1583 217
4911 11
5049 148
5887 76
6027 217
1584 152
5996 293
2485 25
5373 25
2394 144
4160 24
7623 177
1588 16
5722 314
1589 127
3726 277
5333 127
5348 281
7081 307
2673 42
9172 144
2873 37
1592 194
5302 338
7198 194
8782 221
1593 131
1594 0
1595 331
2487 7
8318 253
1598 93
1978 61
6691 93
9062 243
4144 58
7021 247
2360 208
5287 6
6403 116
1610 125
4028 211
9154 211
1603 263
4597 360
2745 267
7122 168
1605 328
2127 328
6292 351
2014 92
7277 92
5524 293
1609 67
1787 229
2818 368
2931 118
4589 86
7228 81
1611 174
1627 225
6773 6
3594 178
4248 109
5818 216
2484 28
5152 119
6789 241
1615 70
6244 70
2755 36
2070 32
4119 137
5891 69
6076 163
1622 59
2765 183
1624 308
3985 308
5804 308
1625 144
2731 228
1626 236
2791 236
1628 187
3206 171
4314 285
6194 187
1629 92
2926 130
6101 124
1630 248
5122 363
1631 211
3397 349
5991 211
6803 211
1632 139
4952 355
4990 250
3244 47
3388 212
5426 212
1636 254
3157 70
1849 20
8655 60
1638 356
2294 231
3232 35
3863 42
3934 356
1895 76
1640 107
4029 107
1641 50
3658 66
1810 346
5526 210
2222 54
5099 4
5522 223
7169 155
1648 9
4197 99
1651 96
2465 103
1652 81
2702 81
3833 286
5758 259
2361 353
2949 138
6747 85
2386 5
3449 182
3774 133
1658 288
1715 238
3749 77
6779 245
1660 304
1661 278
1998 259
1957 330
2801 271
5779 271
8620 271
1663 302
2597 302
1664 66
2969 66
4728 81
5271 343
6169 355
6765 49
7688 226
8938 0
1667 221
3033 224
1670 292
6756 163
7759 256
1673 144
4656 232
4890 267
8926 91
1674 79
1675 277
2671 338
3625 259
1676 134
1776 87
4906 134
5424 106
1677 36
2061 372
5153 1
7636 260
2958 314
4331 21
5455 197
1679 33
3034 13
8658 33
2665 55
6697 123
2846 24
5926 159
6291 121
8506 144
3679 69
3843 355
4697 314
9132 230
1687 80
3917 231
4428 211
5412 326
7082 170
5451 359
5951 20
6739 81
1693 252
2034 125
8439 252
1694 320
1695 134
2507 20
3603 85
6688 209
8468 76
1696 63
1889 148
8473 63
1697 147
2319 46
8576 147
1699 234
6801 129
5502 64
7075 225
1701 99
2162 200
5910 265
5453 25
4042 142
8382 101
3613 142
1707 62
4999 236
2985 169
1709 234
8314 162
8797 177
4061 187
4651 303
1712 367
2973 125
1713 276
2462 87
3602 238
1716 323
3204 133
2868 207
5292 207
4507 354
1720 155
3081 53
1722 299
3952 231
6725 49
5262 20
7719 192
1724 51
2513 232
4963 216
3709 209
6254 91
1726 44
4812 198
1860 373
2762 229
6682 134
4838 187
7742 343
1732 365
2850 110
5406 61
6062 110
1734 66
2639 66
3979 66
5848 108
4953 232
5908 63
9400 189
1738 123
3903 50
5962 154
1740 281
2136 281
1775 288
1743 249
2058 352
6804 86
5336 233
7257 3
3424 26
5703 35
1746 79
1747 373
1749 88
2697 180
6647 40
8586 361
1846 7
2725 371
3194 26
5139 284
7527 105
7559 329
1754 333
2241 65
7485 111
4087 107
1758 27
1837 306
2993 27
6183 27
3874 230
2145 176
1762 271
7420 362
1763 250
1979 250
3195 250
3386 277
4375 36
1764 346
2490 119
6468 95
7118 39
9289 72
7182 281
1767 171
6577 171
2116 183
2323 236
2440 187
4161 351
4904 258
1976 143
4233 47
1772 193
2729 310
3187 193
1773 144
5544 176
2836 288
3610 53
1778 196
6082 196
6260 193
6870 342
1779 255
1780 256
3783 267
4010 253
1781 175
4822 175
1782 75
2797 236
6931 222
3789 158
4993 205
6719 157
9203 94
1786 110
4658 241
5885 337
8321 278
9563 9
4035 178
5448 87
3405 15
6730 165
1792 153
2582 182
4000 89
4591 184
5643 21
1794 100
6143 280
1795 32
2857 273
3259 32
3829 32
1796 341
3251 66
8034 166
4302 236
8346 363
1798 135
4245 128
5355 223
4912 166
1800 174
2837 174
7419 72
1801 337
4977 116
5534 209
7562 50
3659 273
3879 296
1805 245
1831 245
2089 256
4303 347
8790 363
1808 195
8089 206
1809 78
2131 94
4032 81
4524 61
5045 346
2960 281
2019 29
4131 118
2477 201
3687 133
5097 289
6509 6
3859 196
4261 25
5395 150
1818 280
6383 321
1819 88
4313 117
5417 42
2655 226
8266 50
1822 230
3715 118
3208 135
5296 358
1825 368
2496 21
5411 368
6659 178
6958 186
4255 354
1829 299
5768 86
4407 197
4461 81
6518 116
1834 162
5687 123
1835 20
2593 68
3293 294
1838 117
4379 256
4431 322
1839 298
6748 25
1840 196
1842 367
2211 69
1845 162
6594 343
6311 278
3999 17
4072 258
2173 206
3062 251
6746 84
2210 82
2831 232
3271 232
3595 232
8623 352
1851 81
1855 42
3949 81
4037 5
3688 146
1853 67
1854 20
5626 40
6918 321
6044 36
7962 42
8304 362
8461 240
1857 224
4279 333
5498 355
7763 96
1858 38
6894 166
3144 258
4053 159
5856 273
6271 319
1863 86
4647 259
8689 259
8899 162
1866 107
3887 106
1876 306
6209 273
1868 268
6234 47
1870 174
2284 7
1871 154
2509 148
7137 154
4986 105
1873 160
1874 145
5224 129
1875 370
2854 83
6218 158
8307 346
3394 196
5225 107
1879 141
3888 71
6127 253
1880 192
3714 192
4601 167
1881 66
3935 72
4054 180
6267 66
7779 10
3306 195
5233 74
1884 7
7878 7
1885 194
3000 283
3348 47
1886 141
2204 199
3458 199
6108 18
6361 166
6864 148
1890 228
2337 197
6221 197
4981 310
6103 160
6308 156
1897 224
8387 57
8857 271
1899 10
1900 101
2350 345
9286 35
7473 162
1903 63
3142 92
4404 63
7107 367
7342 358
2037 235
4966 166
1907 109
1908 65
4584 65
7480 65
4067 348
2486 43
6679 295
3024 372
3738 256
6534 25
1916 341
3191 212
3828 235
6493 220
4821 188
1918 154
3408 22
3901 52
4755 346
9002 185
1921 92
4251 92
2370 277
6054 125
1924 25
8187 236
1925 52
3848 64
2709 146
2902 183
2974 322
2651 132
4175 14
2055 268
4851 217
4409 89
5618 26
7116 245
3822 367
4956 196
5310 198
6465 66
3153 66
6059 322
1936 88
4788 254
2795 302
4554 43
1956 96
3138 3
1939 129
7151 129
7538 129
4690 355
1941 7
2629 7
3012 185
7058 146
1944 76
3877 279
1946 61
3216 259
1947 262
2073 262
5872 41
8348 262
9136 302
2483 26
3686 26
3621 206
1950 286
5260 286
6597 186
6303 295
2532 51
1954 140
3836 289
2708 81
3968 25
1959 308
2159 308
1960 231
7760 231
1961 221
2693 35
1962 289
5491 19
8053 51
6886 271
7281 122
1965 190
2253 39
2990 17
5974 209
1969 16
2834 16
3786 14
1973 173
7777 265
3349 75
5169 77
1975 223
2896 321
5563 72
1977 224
7805 124
3555 197
1980 251
4167 251
2442 139
6020 223
1982 348
1984 49
3029 23
5713 328
2746 328
5020 203
1986 271
3552 10
5906 329
6574 358
3512 217
6807 163
8670 256
3549 354
7598 271
1989 68
2688 296
5163 241
3958 31
1992 297
6890 297
5250 7
7371 265
3891 191
5438 1
5528 118
5543 219
3164 352
2703 103
3483 161
2000 70
7756 70
4318 12
2003 107
2250 310
2538 103
5083 364
6735 7
5558 238
3410 99
5630 97
2012 290
2816 75
8147 290
2013 95
7404 52
2547 36
3422 299
3692 76
2018 193
2800 66
6448 77
8505 193
8516 256
2887 32
5904 26
2021 12
5525 12
2023 223
2024 61
4646 61
4612 273
3183 145
2028 137
3020 137
2029 140
8047 140
2090 117
3435 129
4317 267
2033 108
2677 228
3218 15
4145 21
8746 32
2036 242
3838 242
5081 233
6344 242
4040 192
2038 33
2039 41
4987 36
2041 230
2694 306
2042 336
4362 75
4731 114
5360 158
5056 91
2046 155
2964 261
9864 155
3943 303
6441 58
9260 10
2048 286
6186 140
2049 325
4230 36
2050 191
2399 191
3918 6
2051 167
5777 328
2052 319
2053 77
2054 75
4897 75
3363 306
5041 333
2057 148
3441 148
2428 332
3373 147
2060 229
2226 136
2062 294
2063 249
3538 292
6153 249
2480 243
4542 206
2066 100
3769 100
2067 314
3412 36
5367 144
2848 270
4223 32
2071 217
3086 318
3831 262
2074 151
4881 117
3032 343
4738 45
5796 288
2522 105
5760 22
6702 295
6700 125
4568 115
5922 54
2081 64
7260 113
5635 335
5783 66
4198 84
5346 269
7204 140
7785 103
2085 147
2088 242
4156 242
4621 12
7303 266
5537 256
4196 25
2091 295
5452 13
2093 309
2154 309
3265 193
2095 286
4118 321
2640 208
2097 91
2996 97
2099 28
3840 28
4265 185
2101 302
2851 81
5088 191
6035 302
7193 141
6421 135
6968 103
6740 196
7776 103
2111 113
4085 75
2113 147
2423 147
2114 250
3001 250
3484 138
3592 170
2117 354
3003 10
7267 98
3913 76
4522 2
3629 116
7536 95
2121 255
2122 266
4581 266
7637 266
3546 175
4392 188
2202 135
8585 371
3509 347
3733 296
2126 278
6408 206
2129 92
2255 174
5173 146
8141 235
5129 365
4844 42
3389 286
2138 216
2139 359
2324 359
9378 322
3101 238
4022 25
6228 127
2142 80
4153 80
6119 206
2754 196
2144 247
7374 203
8563 247
3177 173
2146 121
4056 153
2147 294
3075 43
3818 49
5720 294
2148 156
2149 294
5547 31
6631 265
2151 109
4154 244
6474 151
3014 217
6759 5
2155 47
4097 216
7441 162
2156 317
7639 84
4129 371
5746 110
6788 76
7845 288
7400 120
2862 75
4925 2
5291 210
2161 140
2344 223
2163 332
4702 332
7150 144
4469 194
2653 30
3312 262
2168 138
7159 116
7898 273
2170 232
3240 349
3718 316
8805 109
7508 322
4191 162
8870 344
5673 139
2175 253
4627 100
2176 57
8661 57
4291 50
3777 250
8060 244
2183 44
7679 81
2184 313
3520 62
4417 7
2187 162
2188 147
3624 253
5497 147
5829 69
6863 146
2190 82
4282 298
2191 79
2833 155
7386 204
7941 17
3780 68
6956 315
4820 64
3426 65
6483 7
8817 287
4266 256
3872 166
5427 166
2203 243
3355 187
5002 283
6912 265
6113 298
2785 263
7657 258
2215 223
3734 282
5556 332
7226 205
2221 217
3567 352
4594 54
2223 251
3439 320
8057 311
3080 358
2962 367
3133 350
6028 136
6942 167
2227 274
3950 324
4775 227
2230 131
2986 290
5784 277
6615 351
2232 29
2674 29
2883 205
3423 81
4078 132
2410 43
3269 18
4076 178
3300 198
2264 64
2240 113
5102 339
2242 56
2305 235
2499 120
7215 236
2244 89
5831 68
7848 138
2245 245
2461 254
2248 115
3706 372
3685 153
2251 166
4327 162
4394 45
4992 241
3160 255
6545 10
2262 233
5707 235
2568 289
2430 64
3055 349
8027 320
2265 87
5979 81
2267 7
2268 36
5239 36
6011 352
2270 117
4791 122
2271 25
3223 66
2272 79
5001 243
2275 296
5263 296
2526 77
2278 66
3622 43
2279 104
2645 140
2289 212
2713 54
5241 374
4779 79
7788 79
4997 131
6527 305
7235 219
7764 193
8523 36
2291 223
4544 13
3804 234
6983 332
2293 372
5058 21
2296 364
7650 152
3955 273
5486 340
6579 245
2741 132
3977 75
5593 45
7200 28
2304 183
6269 102
3193 195
5935 93
8601 273
6588 251
3632 350
2474 190
2315 81
3347 210
2317 358
5757 17
5835 358
2318 143
3761 46
2320 47
2825 178
3035 196
3516 133
4611 69
4113 247
3256 89
3095 101
4551 190
9405 273
2329 165
4535 165
2330 154
4467 265
5774 11
2334 58
2345 58
4735 254
2434 211
2347 293
5907 102
2349 70
2809 345
3045 13
2352 327
2353 204
2479 260
5443 178
2543 23
7586 126
6630 246
8579 186
7292 208
2366 195
2363 334
8120 219
2865 157
5851 39
2367 50
6546 369
6673 13
2369 13
2482 39
6744 12
3678 306
4734 252
4209 50
2676 169
3002 264
3895 62
6496 293
4832 31
4081 242
6122 161
2391 240
2756 242
2392 187
3163 187
4523 187
2393 231
5187 254
2395 108
3820 363
6411 25
2398 239
2436 97
4778 70
4312 249
2402 336
2403 271
3189 328
2404 347
2405 193
2406 113
2408 314
6879 314
7196 314
2409 247
3499 256
2880 301
2414 35
2576 216
4013 99
4686 218
2419 12
4533 251
3767 32
4005 32
3492 245
4843 133
5338 80
4293 336
2935 291
3473 144
2427 4
6587 3
6162 20
6309 211
2433 16
3026 90
4345 27
2450 176
2437 0
6707 0
2438 76
4263 76
2439 193
3212 299
2441 146
7384 229
3666 3
2444 166
2805 286
5561 40
6556 262
2446 175
2447 83
3079 83
3739 231
3440 171
4826 85
2452 273
2453 187
2743 299
3862 13
4643 341
5469 225
2458 214
2460 220
4547 209
4933 230
7735 237
5551 25
2467 72
5181 134
6181 77
7070 17
6146 282
6323 235
2802 77
3219 138
2936 69
4357 336
6216 86
3604 235
4112 332
6926 229
3850 43
2927 253
2489 200
2493 215
3727 100
2494 77
5721 323
2497 60
8594 303
2504 253
5175 144
2505 105
5013 103
3834 27
2511 82
3539 280
5616 232
5794 202
2517 134
5304 12
2518 141
5101 278
5130 0
5596 305
2523 14
4548 293
3353 236
2528 45
3120 266
3813 25
2530 41
6012 248
7781 36
7423 92
7457 274
2536 187
3588 187
8690 125
2542 288
5810 259
3262 149
2610 20
6096 57
2548 194
2549 302
2550 182
2551 40
2552 91
8412 91
2554 3
4244 119
4619 57
2557 209
6033 35
2559 237
2560 369
2561 10
2563 262
3760 77
2565 99
4031 60
4173 218
4065 28
5032 133
6366 19
6862 223
2572 207
2574 75
3331 363
4419 99
3249 160
2579 27
8007 319
2580 186
6093 138
2585 224
6256 1
4325 241
4250 193
2591 289
2592 315
4939 92
5288 17
6661 355
6510 314
7663 250
4852 368
2600 13
2601 0
4682 0
4691 115
5874 76
2763 102
2604 287
2606 96
7233 41
2611 342
3695 36
3770 342
4604 65
7987 257
2614 335
3596 335
3136 61
2618 114
3478 204
5197 351
6553 225
2621 216
3444 248
3581 181
2625 66
3094 11
6373 355
6355 134
3317 62
3132 209
4412 77
4955 235
6612 217
6276 140
6088 242
2642 178
2941 234
7528 68
5145 302
2648 3
3082 237
2652 7
4017 241
3675 372
3830 121
6034 244
2913 36
3827 92
4103 9
4864 98
6692 98
2663 341
5778 70
6701 42
4021 169
5719 298
4176 302
4352 342
6402 162
6052 305
3537 81
2689 263
3884 126
3898 371
6233 35
4328 195
2699 72
2701 86
5718 86
6080 131
4337 89
2716 267
3472 61
2720 97
3396 256
2724 357
2742 92
3239 87
5864 133
6288 76
5479 327
2733 36
2735 294
5954 33
2738 102
4736 102
5297 9
2739 254
5164 270
3969 132
2744 283
3361 263
7631 267
7273 86
7284 321
4252 135
3861 171
2750 5
3043 5
5826 21
4743 274
2752 326
8973 6
3225 7
4231 161
2759 9
6981 259
3754 163
3417 133
5471 183
8137 183
2771 112
2776 329
5644 308
2778 224
2781 357
2784 143
5733 123
2788 317
6326 76
7206 365
5714 259
2794 62
5470 193
2798 95
6466 95
3691 77
2804 211
3846 77
4950 161
4366 283
7272 53
2950 319
2810 204
4894 204
5436 257
9001 344
2812 287
2813 294
2814 136
4405 368
2819 11
6446 328
2821 248
5437 115
2822 302
4473 11
7220 282
3526 342
3109 144
2946 82
3924 214
4517 167
2843 187
6470 160
7189 280
4625 230
5314 153
7227 259
4208 83
5462 325
2859 163
4970 248
3111 211
4334 251
4184 153
5359 12
3660 133
2881 7
7680 248
4150 237
2890 271
3523 327
3362 136
2897 26
3601 86
7050 281
2901 55
2903 217
2905 364
5474 364
7007 291
7826 66
6273 160
3004 133
3329 52
4537 204
7345 117
2919 352
2920 68
6705 154
5327 281
4676 253
2930 269
6552 196
2933 341
7102 251
3989 209
2939 150
4528 68
7183 339
2944 261
5554 307
2951 256
4069 220
3054 163
4391 230
2956 69
3648 325
4294 13
5055 238
3314 216
3576 80
5123 132
6576 65
2984 166
4501 146
6749 100
9272 290
2988 240
4023 86
5240 2
5165 118
6543 230
2998 153
4200 102
5756 153
3006 340
6199 142
6013 146
8561 146
3010 81
5640 81
8118 132
3018 282
3022 158
3987 303
3027 22
3038 320
5293 13
3991 158
3944 229
4202 157
4376 68
3050 333
3056 114
3057 95
3169 4
4320 255
4495 164
3077 193
5598 17
5171 334
4641 206
4847 249
5659 337
3084 12
4777 105
5548 33
4964 271
3277 305
3096 239
5523 256
3106 281
3936 300
3755 202
3115 90
3411 63
3517 221
5353 258
6861 36
5077 182
3127 173
5961 143
6475 18
3134 80
3309 195
3151 229
4475 133
8725 298
5505 9
3463 273
6445 195
5454 162
4171 138
4570 331
3171 0
5518 279
3772 5
4098 348
3175 49
3579 64
5652 301
3278 253
5806 76
5741 81
7243 6
4329 19
5092 219
4754 229
3881 99
4211 248
3209 36
8184 118
3222 130
4290 298
4346 311
3226 67
3235 329
3586 329
3236 111
5965 22
6208 69
3243 171
3246 344
3248 152
3382 336
6538 152
7808 218
4133 282
3257 327
3260 51
5533 335
6821 18
3384 54
6287 162
3281 239
3287 86
4540 204
3288 156
3291 199
3298 327
3379 319
3302 374
3303 62
3305 53
3310 291
5506 291
3320 235
5527 125
4783 245
4585 67
5272 192
3336 195
4349 143
3352 269
3428 269
3351 253
4188 37
4299 146
3370 50
4460 35
3380 75
5298 75
3399 211
5028 286
3425 71
4565 177
5710 237
3997 92
4603 20
4687 236
4914 56
3438 337
3746 171
7505 36
4752 56
3446 339
3481 9
4756 162
3454 166
3455 175
4969 226
3580 143
3466 35
3468 83
6213 45
3953 189
3993 193
3837 142
5751 278
3482 200
6161 147
5383 211
3494 24
3501 77
7095 273
3513 45
3514 221
4105 28
4122 363
5256 249
3528 137
3533 144
5354 50
3542 42
3919 204
6636 296
5510 28
4027 356
3556 145
5726 64
4020 17
3564 95
5115 241
3572 18
7727 254
7879 101
5621 222
4380 64
3584 41
8265 41
4785 238
4398 270
5064 358
5433 51
5029 256
7928 53
6757 326
4306 160
3628 6
3633 91
3643 263
6226 98
3652 196
3653 36
3663 0
6235 141
3664 58
4830 46
4360 343
5892 248
3671 93
4219 189
5277 166
3684 328
3916 133
3702 188
4454 98
3698 280
4849 261
3705 195
4383 362
3764 198
5430 284
3730 235
3839 221
4052 171
6463 5
3775 77
4369 327
3794 336
3798 291
4559 315
3805 86
3812 178
4043 275
5350 110
6328 363
3821 99
3823 15
4762 303
3841 174
5093 18
5125 263
6429 41
4703 64
3854 274
3857 259
4278 140
3870 329
5227 329
3873 144
6165 251
4079 87
4406 75
5968 260
4732 76
3922 66
4074 104
3929 270
4787 180
5399 10
4285 304
3946 311
3980 4
4121 113
4014 11
4174 290
4051 0
4408 79
4066 365
4070 353
4446 293
4077 253
4954 61
4269 204
4879 158
4714 294
4126 35
4354 49
6114 158
6197 43
4204 287
4213 15
5508 61
4607 345
4315 197
5911 162
5646 168
4341 94
4693 195
4834 100
5009 278
4364 186
5464 28
4456 291
6362 42
4845 154
4497 244
4562 333
4616 333
4613 246
4623 154
4684 337
5128 306
6058 188
6098 275
5983 265
8799 95
4750 198
5425 40
4818 342
4948 260
6380 307
6290 26
