1 0
4005 0
5046 0
6623 0
9684 1
20740 2
24426 0
25978 3
28866 0
31453 0
32117 0
32372 0
32549 0
33299 0
33589 0
33919 0
34190 0
2 4
6261 4
7504 5
8183 4
8230 4
10520 4
15527 4
16945 6
26192 4
26328 4
26415 4
26499 4
28020 4
31310 7
31491 4
32583 4
33041 4
3 4
1207 4
1236 4
1411 4
16777 4
22853 8
24727 4
28047 4
30270 9
31087 4
31387 10
31535 4
31875 4
33524 4
33651 4
34407 4
34478 4
4 4
2671 5
7729 4
10578 4
11329 4
14643 4
15568 4
15743 4
18621 4
20068 4
24933 11
26304 4
26819 4
29634 4
29803 12
34164 4
34539 4
5 7
7662 7
8156 10
8303 7
15172 7
21109 7
22018 7
23814 7
23836 7
25939 7
27110 13
27684 7
29928 7
30940 7
33453 7
34305 7
34461 7
6 0
1718 0
2125 14
5470 0
5525 0
7117 0
16573 0
18179 0
19339 1
23299 0
26097 0
26484 0
31470 0
31908 0
33626 0
33947 0
34229 0
7 15
317 15
1683 15
1713 15
4500 15
10223 12
10694 15
21803 15
22681 15
22949 4
25156 15
30434 15
30602 15
31101 16
31153 15
34191 15
34337 15
8 7
3474 7
7252 7
9114 11
12330 7
13374 5
16463 7
23550 7
29903 7
30066 7
30648 7
31149 7
32791 7
33419 7
34048 7
34415 7
34498 7
9 7
6840 4
6873 7
9027 7
9896 7
12700 7
14572 7
15638 7
18064 7
22978 7
24522 12
25034 7
27186 7
29889 7
30481 7
31031 7
33873 7
10 12
861 17
3439 12
5680 12
14432 12
15226 12
15705 12
18022 12
18646 12
23491 15
23979 12
27902 18
27949 12
29342 12
29925 12
33577 12
34126 12
11 9
287 9
2560 9
3574 9
8878 5
12410 9
19050 9
20286 9
21396 9
22345 9
25800 9
28019 9
30958 9
32209 10
33778 9
33847 9
33872 9
12 17
2230 17
4557 17
5649 17
6998 17
9589 17
12592 19
18846 17
24168 14
24815 17
27568 17
28357 17
29027 17
29729 17
32805 17
33883 17
34416 17
13 20
876 20
8297 20
10894 20
17635 20
18059 20
18498 16
21178 20
22323 20
25614 20
26884 21
28133 20
31147 20
33172 20
33251 20
33992 20
34045 20
14 22
1069 22
7471 22
10288 22
11762 22
12536 4
13589 22
13749 22
18432 22
19835 22
24405 22
27381 22
29935 22
29980 22
33442 1
33464 22
34469 5
15 4
482 4
824 4
3810 4
5431 4
8138 4
8841 4
11351 4
16523 4
20687 4
20793 4
24239 2
24789 1
29815 4
30137 4
32253 4
32735 11
16 8
2847 8
12104 8
13766 8
17740 8
18004 8
18568 8
20984 8
22230 10
23260 8
23575 8
23925 8
30062 8
30307 8
33176 8
34367 8
34470 0
17 9
350 7
680 9
3882 9
11217 9
13615 9
14089 9
16146 9
16978 9
17239 9
21633 9
22384 9
26249 9
27313 9
29528 7
33270 9
33810 9
18 23
7170 23
7184 23
10010 23
10076 23
10649 23
11234 23
13307 23
14006 23
15612 23
18794 23
18835 23
19200 22
19856 23
22337 23
26983 4
34083 17
19 11
10280 11
13540 11
14191 11
20569 11
25673 11
26732 21
27030 11
27421 11
28288 11
30149 11
30739 11
32463 11
32610 11
32673 11
33152 11
34243 10
20 17
4465 17
6127 17
6182 17
8155 17
8844 24
13709 17
18210 17
18572 17
19375 5
23572 17
24509 17
30144 17
31278 17
32894 17
34171 10
21 14
3049 14
5964 14
16458 8
17468 14
23240 14
23364 14
26936 14
27704 14
28262 14
30080 14
30795 14
32181 25
33381 14
33948 14
22 14
5136 14
6731 0
11371 14
17508 14
21952 0
22867 14
26724 14
26847 14
29435 14
30822 14
31177 14
32798 14
33346 14
33807 14
34445 14
34546 14
23 26
4797 26
7107 4
9648 26
13264 26
20632 26
20682 26
24612 26
26168 26
26473 27
27600 26
29576 26
32129 26
32153 26
32497 26
33290 26
34435 9
24 28
1676 28
2727 28
5719 28
6134 28
7507 28
10075 28
10230 28
21702 28
23831 21
24641 28
25337 28
25914 28
27640 28
30000 28
33399 21
33955 29
25 30
4571 30
4904 30
10485 30
10790 30
16546 0
16824 30
20943 30
21790 30
22446 30
24924 30
25709 30
26579 30
26726 30
28606 17
28879 30
29301 30
26 9
2621 9
6189 9
6821 9
13331 9
16517 9
21959 9
22186 9
22653 15
23504 9
25065 1
27267 9
28893 9
29827 9
30688 9
33901 9
34300 9
27 31
635 31
4121 31
4604 31
8113 31
9631 8
22935 2
24728 31
28967 31
31067 31
31408 8
32228 31
32409 31
32876 31
33217 31
34452 31
34457 31
28 4
3633 4
6741 4
14608 15
17141 4
18048 4
20494 4
24864 4
31003 4
31526 4
32044 4
32784 4
34329 4
34430 4
34545 4
29 14
586 14
4188 14
9575 14
10324 14
10411 12
11281 14
13208 11
16014 14
16694 10
21967 14
22398 14
24716 14
27753 14
29201 14
29363 14
30 4
3269 32
4477 21
16183 4
16709 4
18276 4
18315 4
24520 4
26988 4
28786 4
30459 4
31140 4
33424 4
33625 4
34087 4
34185 21
34540 4
31 8
3122 8
4606 8
5563 8
10054 8
15282 8
15512 8
16913 8
18505 8
20278 16
25708 8
31166 33
31996 8
32148 8
32300 8
33287 8
32 9
1090 34
4491 9
6354 9
16855 9
18770 9
19738 9
20469 9
25272 2
26373 9
27984 9
29197 9
29641 9
30084 9
31733 9
33 1
13530 1
14758 1
14837 1
20912 1
21755 0
23280 10
27384 1
28533 1
29126 1
29917 1
30679 1
31180 1
32264 1
33400 1
33700 14
33771 1
34 4
2361 5
6447 4
11793 2
13375 4
16197 4
20154 4
20971 4
23766 10
24149 4
26187 4
29586 4
32123 4
32351 4
32745 4
33598 4
34021 4
35 0
535 0
970 0
3192 0
5463 0
5872 0
12939 0
15792 8
18234 0
23404 0
29176 16
30166 0
31341 0
33315 0
34362 0
34480 12
36 12
127 0
2575 12
3435 22
4927 12
12705 12
12754 12
19338 31
20100 12
21106 12
21512 12
21933 12
22737 12
23735 12
32038 12
33064 12
34176 12
37 35
10653 35
13074 35
18482 29
21611 35
22336 7
22964 35
24532 35
25225 35
26042 35
26821 35
27297 35
28642 35
30775 35
30884 35
30971 35
34412 35
38 12
1316 12
2601 12
2672 12
9096 12
10613 12
13581 8
14096 12
18300 8
25639 12
26065 12
26811 12
31671 12
33559 12
33878 12
33911 12
34122 12
39 0
5001 11
6647 0
6666 0
8059 0
10408 0
13076 0
21267 0
26207 0
26958 0
27832 0
30529 0
31091 36
31263 0
31479 0
33668 0
40 9
1857 9
3385 5
6776 9
8700 9
10652 9
11275 9
22504 9
24834 9
27357 9
28516 7
28962 9
31695 27
32346 9
33278 9
34293 9
34347 9
41 3
3778 3
3788 3
4776 3
8961 3
14819 3
16509 3
16843 5
26519 3
27397 3
28190 21
30082 3
30964 37
33326 3
33600 3
33662 3
34405 3
42 7
275 7
1092 7
1269 1
3900 7
3921 7
10096 7
10194 7
19420 7
21686 7
26308 15
26357 7
29723 7
30494 7
33273 7
33369 7
34320 7
43 22
693 22
7204 22
10183 22
16111 22
17089 22
18188 22
18261 22
19885 22
25109 22
28138 13
29540 22
31160 22
31595 10
32003 22
33909 22
34343 22
44 5
855 5
8512 5
14106 5
21742 5
25547 5
26382 5
27468 5
28295 5
30628 5
31972 0
32828 5
32863 5
33435 5
34361 5
45 9
1151 9
1421 9
2618 9
4314 9
5293 9
5424 9
5839 9
11541 15
11781 9
13252 9
17914 9
20419 9
25990 9
26931 9
32683 4
34161 9
46 8
3562 8
6942 8
9814 8
15714 15
15784 11
16800 8
20110 8
21972 8
24270 8
25630 8
27418 18
32350 8
32537 8
33863 8
34314 8
47 0
5574 0
8340 0
8577 0
9281 16
16685 0
17974 0
18472 0
19158 0
19867 0
20703 38
22201 0
24139 0
24611 0
28335 0
34006 5
34411 0
48 4
2189 4
7731 4
9551 4
9720 4
10697 4
11141 4
13534 4
14827 4
18690 4
22091 15
22362 4
26602 4
26820 4
30668 4
30851 7
32229 4
49 7
3107 7
4691 7
5171 7
5340 7
7049 7
12286 7
16336 9
19561 7
21088 1
27078 7
27540 7
27595 7
29680 7
30612 7
32198 7
34015 39
50 1
2063 1
7626 1
13117 1
13875 1
17201 5
19820 1
20960 1
22425 1
30067 1
32052 1
33800 1
33926 1
34151 4
34262 1
34286 1
34366 1
51 4
517 4
2518 4
2902 4
6218 4
11235 4
13141 4
16186 4
23046 4
24024 4
29507 4
30151 4
30332 10
32269 4
33366 4
34067 4
34518 17
52 4
121 4
5236 4
7745 4
10488 4
17365 4
23319 7
23515 4
25076 4
27119 4
27472 4
28061 4
29851 4
34071 4
53 4
465 4
1491 4
5732 4
10080 4
15043 4
18736 16
24238 4
24407 4
25714 4
25759 11
26976 4
27192 4
27495 4
31929 4
32960 4
34512 4
54 40
822 40
3519 40
9253 40
11202 40
16120 0
16984 4
20012 40
22377 40
23559 40
23644 40
26060 40
26349 40
28943 40
31362 40
32393 40
32685 40
55 1
1192 1
1844 1
6052 17
8942 1
9464 1
17554 1
18246 1
22818 12
23033 1
23727 1
23884 1
26662 1
27920 1
27986 1
33015 1
56 9
2002 9
2273 9
6060 9
7078 9
8679 9
9870 9
13843 14
20621 9
20918 9
23534 9
23952 9
24625 9
29742 9
33516 9
34500 10
57 36
11933 36
12036 15
14967 36
16216 36
23363 36
23796 36
24477 36
28247 36
29791 36
32091 36
33693 36
33743 36
33831 6
34397 36
34482 36
58 10
6997 10
11820 10
12737 10
18448 10
19226 10
21502 10
25341 10
28355 10
28775 10
28788 10
29788 0
32829 10
33607 9
33694 10
33737 10
33980 6
59 41
1830 41
8867 12
10547 10
12699 41
13206 41
14768 41
16413 41
25485 41
26476 41
26502 41
29167 41
29187 41
29754 41
29893 41
31253 41
34053 41
60 27
937 27
3169 27
5058 27
6480 27
7834 27
11203 27
15399 27
18277 27
20945 27
24202 27
24493 27
26008 27
31020 4
32190 27
32375 21
34385 27
61 15
4319 1
5084 15
5192 15
6057 21
10022 15
10462 11
12231 15
12772 15
23388 15
24184 15
28612 15
29113 15
29389 15
30218 15
31807 15
32162 15
62 10
4743 10
9072 10
11088 10
13253 12
13775 10
18130 10
21778 10
24313 10
24376 10
28285 10
29520 7
32023 10
32542 21
33072 10
34296 10
34490 10
63 4
2961 4
3422 4
4543 4
4649 4
6397 4
6398 4
7985 4
8215 4
13994 4
17283 42
22761 4
22952 4
23723 7
26583 4
29071 4
33636 4
64 4
3068 4
3676 4
4019 4
11640 4
12468 4
13271 4
22957 4
24152 4
28114 9
28733 4
31314 4
32250 4
33704 12
33754 4
33936 4
65 22
8034 22
12657 22
14761 22
18866 22
22555 22
24472 12
25154 22
25952 22
27430 22
29061 8
30006 22
30064 22
32589 22
34025 22
34267 22
66 43
10259 43
15453 43
16300 43
17936 43
19013 43
22242 43
23224 17
25094 43
25163 43
25588 43
26037 43
27511 43
27558 43
28044 43
28614 43
30976 5
67 0
7404 0
7692 0
10398 0
13306 0
14637 0
17004 22
20331 0
24418 0
27722 0
28449 0
29356 0
29902 0
32830 0
32873 0
34133 7
34450 0
68 27
6766 27
6829 27
8966 8
19613 27
22725 27
22759 11
25050 27
25069 27
30430 27
31151 27
31370 27
31896 27
33148 27
33787 27
34013 27
34383 27
69 21
9930 21
18760 21
19024 5
19760 21
23540 21
25296 21
27973 21
28083 21
30791 10
31831 21
33353 21
34248 21
34494 21
34528 21
34534 21
70 15
7096 15
10264 15
16768 15
19117 21
20865 15
21733 15
23502 15
25073 15
25680 15
26818 15
30837 15
32588 0
33845 15
34306 15
34459 15
71 44
459 44
1168 44
2870 44
3933 44
4015 44
5128 44
5426 44
7273 44
7739 44
7748 44
9070 44
9992 44
13442 44
31705 5
34408 4
34544 11
72 5
10286 5
12970 5
13290 5
15573 5
18514 5
19450 5
23444 15
24130 5
24442 5
26297 12
27354 8
31849 5
32733 5
33063 5
33762 5
34220 5
73 8
6431 8
9461 14
9552 8
10539 8
13399 8
16092 8
16889 21
17122 45
26850 8
29654 8
30470 8
31894 8
32134 8
32855 8
33322 8
34090 8
74 27
378 27
429 27
3521 9
14747 27
16422 27
17000 27
17615 27
19904 27
29067 27
30212 27
30450 27
31429 27
31746 27
32748 12
33652 0
34290 27
75 9
9009 9
9491 9
12005 9
17241 9
19721 9
21215 10
21574 9
22335 9
22984 9
28076 9
31468 9
33130 9
33633 9
33749 13
34042 9
76 22
837 22
2076 22
4451 16
5751 22
16331 22
18684 22
18961 4
31554 22
32132 22
32364 22
33208 22
33461 22
33906 22
33999 22
34375 22
77 31
11988 7
14807 31
15859 31
16071 31
19485 36
21286 31
26160 31
28667 31
30367 31
31604 12
34272 31
34465 31
78 21
2321 21
4924 21
6087 21
13289 21
14424 21
16387 21
20371 21
25329 21
27755 21
29895 21
30504 7
31439 12
31455 21
33170 21
33367 21
34378 21
79 8
1927 8
3229 8
8386 8
9239 0
9425 8
10557 8
16540 9
18529 8
19869 8
22584 8
24246 8
26729 8
29801 8
32666 8
33669 8
80 22
5241 22
11352 22
16635 22
17940 22
19218 4
20492 22
25659 22
26504 22
29018 22
31500 22
31706 27
31889 22
34019 22
34376 22
81 7
353 7
7773 7
8731 7
11488 7
11545 7
12028 17
17811 7
18093 7
22166 7
26657 7
27866 7
32664 0
33311 7
33620 7
82 11
828 14
2944 11
6486 11
8531 4
9056 11
17146 11
19208 11
19465 11
22595 11
26076 11
28163 11
28297 11
29331 11
29469 11
30932 11
32866 11
83 0
6187 0
7599 0
14163 16
15708 0
16324 0
17479 0
18175 0
20059 4
20279 0
26791 0
28152 0
28198 0
31745 0
31821 9
32388 0
84 12
1666 12
7899 12
12466 12
12781 12
13069 12
19823 12
24404 12
24668 12
25495 12
26928 12
27629 5
28851 12
30394 12
30598 12
32327 12
32599 17
85 14
1854 14
5323 14
7953 14
9394 14
10180 4
18026 14
19131 14
22590 14
22959 14
28908 14
28920 14
29414 14
31170 14
33680 14
34530 0
86 46
1629 46
3416 46
3508 46
4339 46
7084 4
11232 46
20099 46
20412 1
21454 46
21511 46
26876 46
26932 46
27290 46
30456 46
31801 46
34509 46
87 15
2716 15
2901 10
6416 15
8044 15
15068 15
17288 0
28804 15
29718 15
30050 15
31969 15
32140 15
33218 15
33413 7
33851 15
33988 15
88 10
1076 0
1452 10
4096 10
4181 10
8899 10
12703 47
13714 10
17007 10
20190 10
20674 10
23281 10
29351 10
29362 10
31301 10
31603 10
34086 10
89 5
550 5
1961 5
5579 5
5812 4
8894 5
10339 5
11629 5
14985 5
24151 5
24476 5
28941 5
31499 21
32850 9
34031 5
34372 5
90 4
3506 4
3525 4
5876 4
6408 0
7393 4
8127 48
11381 4
16718 4
26954 4
28705 4
30085 4
31056 4
32772 4
33564 10
34543 4
91 10
3752 10
13128 10
18677 0
22788 10
22900 10
23710 10
24410 7
26185 10
28701 10
28999 21
29457 10
33169 10
34111 10
34536 10
34541 10
92 8
1414 8
8746 4
9602 36
14291 8
15430 8
21771 8
25302 8
25598 4
27456 8
28653 8
29334 8
31986 8
33318 8
33634 8
33666 8
93 27
2522 27
3326 27
3869 0
9633 27
14845 27
16052 11
17956 27
18580 27
20962 27
21001 27
22556 27
25233 27
28068 27
28315 27
34054 27
34424 27
94 14
4837 14
5942 14
6311 14
6342 14
14308 14
16846 11
21112 14
25042 14
27146 14
31811 14
33855 14
33922 0
34217 14
95 42
1109 9
15510 42
17406 42
18404 42
20283 42
24332 42
27940 42
30023 42
31569 42
32079 42
33585 42
33734 42
33772 10
33815 42
34420 42
34486 42
96 8
6728 8
12494 8
12905 8
18256 49
22463 8
23517 8
25607 8
27276 8
30104 8
31188 8
31675 8
33354 8
33355 8
34333 8
34519 27
97 12
4578 12
9994 4
11515 12
14785 12
17781 12
18676 12
22076 12
24422 12
25446 12
26492 12
30075 12
30322 12
32779 12
34103 12
34212 12
34381 0
98 16
6042 8
8530 16
13063 31
16944 16
18634 16
22481 16
22601 16
25678 16
27111 16
29603 16
31829 50
32893 16
33275 16
33558 16
33729 16
34517 16
99 9
815 21
14093 9
20085 9
22306 9
26156 9
28818 9
30659 4
31141 9
32054 9
32672 9
33795 9
100 8
291 14
9086 8
11251 8
15214 8
21873 8
22825 8
27152 8
28214 8
29461 12
29700 41
29957 8
31812 8
32200 8
32407 8
33105 8
33529 8
101 33
14311 33
18544 33
20422 33
23579 33
23711 33
25424 11
28193 33
28825 33
29656 33
30182 33
32324 33
34166 33
34260 33
34283 33
34321 0
102 9
451 9
929 9
1870 9
5522 7
9379 9
9515 9
12265 9
12932 9
14867 37
16700 9
26465 9
27365 9
27863 9
28661 9
28847 9
103 0
2275 0
9418 0
16519 0
18321 0
19606 0
24114 0
25704 10
27129 0
27488 22
27858 0
30954 0
32936 0
33842 0
104 5
1002 0
5174 5
5978 5
6729 5
12598 5
13100 5
13207 5
17423 5
22548 5
22591 21
22658 5
25245 5
28209 5
29598 5
30928 5
105 51
243 51
1550 51
2259 51
2268 51
2950 51
3301 51
3750 51
6752 51
6826 51
7376 51
7558 51
8823 51
9082 51
12605 11
18877 27
106 21
768 21
7199 21
7957 21
13550 21
14395 21
15287 21
20394 21
25660 21
26267 21
28752 21
29078 21
33113 6
33627 15
33643 21
34476 21
107 15
217 15
3717 15
8488 15
9900 21
11403 15
13718 15
15441 4
18236 15
22787 15
23756 15
30458 15
33167 15
33495 15
33515 15
33858 15
108 27
2772 27
3421 7
7546 27
9254 27
11514 27
13543 27
16086 27
18390 27
18620 16
20978 27
25325 27
32473 27
32514 21
33307 27
33420 27
33483 27
109 49
2551 49
4026 49
11376 49
13862 49
17796 49
22910 0
28258 49
29107 49
30016 49
30817 49
31264 49
32178 49
33506 49
33703 52
34273 49
34324 49
110 48
6214 48
6980 48
10209 48
11823 24
18358 27
18384 48
19239 48
22651 48
23842 48
25033 48
25111 48
30785 48
31556 48
33780 48
33840 10
33939 48
111 17
1362 17
9784 11
11711 17
11948 17
13353 17
17342 17
20113 17
25961 0
26323 15
27043 17
27331 17
30974 17
31748 17
32652 17
33102 17
112 2
4780 2
7161 2
7631 2
8734 2
9837 2
18199 2
19328 2
21939 2
27562 2
28045 4
29150 41
29624 12
29651 2
32029 2
32905 2
34433 2
113 11
5406 11
7457 11
8454 11
9460 11
17022 11
17301 11
19373 5
22071 11
25382 11
25544 4
27388 11
27530 11
30297 11
32481 11
33230 11
33597 10
114 10
3587 10
5423 10
6835 10
11654 10
13075 10
14476 22
16750 10
20707 29
21661 4
23328 10
24014 10
25228 10
27694 10
32611 10
32915 10
33166 10
115 1
1113 1
3816 13
3917 1
5870 1
6105 9
8207 1
10602 1
16123 1
19383 1
23051 1
27327 1
28415 1
31062 1
32194 1
34488 1
116 8
4171 8
7525 4
14473 8
14859 27
14998 8
15748 8
17180 8
21310 8
25149 8
26956 8
27262 8
28546 8
31117 8
31820 8
34521 8
117 9
220 0
633 9
1007 9
3051 9
7850 9
12779 9
14205 9
19429 9
21415 9
24957 9
25314 9
29566 1
30428 9
31666 9
32840 9
118 8
5405 8
7046 8
7806 8
16082 8
20315 8
20566 8
23932 8
24251 8
27210 15
27389 8
28531 8
29854 8
30167 8
30319 16
31088 8
119 4
4660 17
4763 4
18031 4
18454 4
21809 4
21919 4
22030 4
24679 4
25019 4
29692 4
29898 11
30271 4
30603 4
32489 4
120 11
7671 10
12015 11
17307 11
19418 11
23843 11
27353 11
29049 11
29712 11
32445 11
32929 11
33382 11
33468 11
33874 11
34426 5
3493 9
6435 4
10189 4
11951 4
15673 4
16501 4
17155 4
17453 4
21499 4
21646 3
22997 4
23800 4
27731 4
122 0
5973 0
8025 12
19036 0
19502 0
22674 0
23122 21
25331 0
26629 0
26698 0
30447 0
31357 15
31789 0
33055 0
34456 0
123 41
6232 41
9485 41
15097 41
16775 49
19542 41
21225 41
22263 41
28241 41
29193 41
31334 41
32036 41
124 53
257 53
407 53
587 53
664 53
1431 53
1578 53
1588 53
1688 53
1952 53
3702 53
4132 53
4608 53
9398 53
31741 14
33196 14
33489 15
125 12
3064 12
8153 12
10349 12
11474 12
13546 12
21022 12
21836 12
23452 9
23960 22
24930 12
25811 12
28280 12
32167 12
32383 12
33962 12
34277 12
126 10
618 10
834 10
1671 48
11726 10
17124 10
17607 10
18156 10
18194 6
24958 10
26863 10
27693 10
29514 10
29872 10
30483 10
34533 10
34537 10
7254 0
8641 0
11133 0
12009 15
20634 0
23064 0
26864 0
27713 0
27916 0
28141 0
30255 4
30337 0
32947 0
34099 0
128 6
679 6
3118 10
6413 6
14014 4
17665 6
18427 6
21966 6
23525 6
25818 6
26730 6
27055 6
28672 6
32315 6
34410 6
34481 6
34513 6
129 48
1780 48
2074 54
15723 48
19874 48
24999 48
26177 48
26554 12
27821 15
31139 48
31261 48
32713 48
32959 48
33479 48
33850 48
34230 48
34418 48
130 11
1268 11
9613 12
14660 11
15474 11
16007 11
16355 11
21600 11
24077 11
24290 11
28073 11
30810 11
31935 11
31941 11
32474 55
131 6
6054 6
7413 6
7775 6
9276 12
9453 36
10155 6
10428 6
11645 6
25081 6
25333 6
26314 6
28363 6
33111 6
33246 6
33342 5
34140 6
132 4
1745 4
5411 17
6053 4
7313 4
7512 4
9068 4
9437 4
11799 4
20064 4
20785 4
21333 4
24403 8
31881 4
32621 4
34423 4
133 11
1492 11
2517 11
3178 11
14663 11
16898 11
17435 8
20325 11
24979 11
28208 4
31326 11
31879 11
32658 11
33288 11
34012 11
34155 11
134 1
11716 1
14167 1
14508 1
16099 56
16617 1
17672 1
26723 1
28659 7
29216 1
29782 1
32274 1
32762 8
33414 1
34389 1
34404 1
135 7
2924 7
4276 7
6317 0
13700 7
15075 7
18411 57
21510 7
22046 7
24812 7
25286 7
25764 7
29030 7
32470 10
32498 7
34036 7
34484 7
136 47
5584 10
6131 47
8957 47
9948 10
11826 1
13198 47
14760 47
15337 47
22213 47
22862 47
23581 47
24340 47
25962 47
29470 47
29485 47
33319 47
137 52
1331 52
2284 52
11248 52
13674 52
15303 52
20477 52
22616 52
23358 16
28178 52
28188 52
30122 52
32243 52
32299 52
32554 52
33823 21
34364 52
138 0
9525 0
11134 0
11695 0
11760 0
15613 0
16378 0
18688 0
19828 0
24424 0
25405 0
25518 16
26525 58
30705 0
31347 0
139 4
9831 4
10822 4
12095 4
19035 4
20197 4
20646 4
21358 27
24811 4
25442 27
26624 4
27206 4
30564 4
33213 0
33677 4
34258 4
140 6
1804 6
5068 6
10667 6
14545 6
14613 6
15700 12
16856 6
17639 6
19258 6
19763 6
20787 6
22401 6
23905 3
34253 6
141 21
1081 2
12258 21
12965 21
15307 21
16548 21
16608 21
20827 21
21355 21
24988 21
29570 21
29625 21
29833 21
31902 24
33804 12
142 2
2735 2
3772 2
12959 2
13146 4
17899 2
22575 2
27351 2
29004 2
30580 2
30748 2
31306 2
31308 2
33726 2
33806 2
34485 9
34504 1
143 8
2808 8
4388 8
8293 8
10083 8
11840 8
11975 17
13541 8
17624 8
22873 8
28759 10
32074 8
32528 8
33228 8
33814 8
144 33
974 33
2908 33
20145 8
21837 4
24421 33
28394 33
30999 33
31932 33
33003 11
33168 33
33247 33
33857 33
145 14
4652 14
7069 14
7711 15
10995 14
13977 11
18207 14
23674 14
24177 14
24618 14
25430 14
28420 14
31423 14
31998 14
32854 14
34403 14
146 15
949 11
8509 15
9080 15
10599 15
11332 15
12203 15
22376 15
23855 15
28319 15
29227 15
31942 15
33861 15
34070 15
34417 15
147 9
2478 9
7595 9
11583 9
19975 10
20372 9
21632 9
21666 9
23464 9
23487 9
24976 9
26727 21
28296 9
30871 9
34371 9
148 22
1483 22
10111 22
11533 22
12124 22
18978 22
24281 22
29525 4
31284 22
32521 22
32964 22
33204 22
33281 22
33283 12
149 0
3962 21
6208 0
8486 0
8534 0
17336 0
17734 0
18874 0
21709 3
26243 0
29172 0
30897 0
31213 0
33998 0
34098 17
34223 0
150 5
13214 5
16972 5
17062 16
17712 5
24333 5
25502 5
25891 21
26077 5
28389 5
28392 17
33135 5
34299 5
34439 5
34542 5
151 9
2432 9
4164 9
5145 9
6285 9
7483 9
14480 0
15254 9
15483 9
16418 9
28645 9
29024 1
30725 9
32650 9
152 27
5917 9
6328 27
8334 27
8517 27
8631 12
9982 27
11478 27
15863 9
16953 27
20389 27
23698 27
28098 27
32985 27
33995 27
153 7
3139 7
3784 7
5248 7
9124 7
15860 7
16369 21
17293 7
18138 7
22655 7
28435 7
28603 7
31198 7
33821 7
154 15
1054 4
3251 15
9942 15
15198 15
22400 15
25725 15
26002 15
27925 15
32113 12
32763 15
33329 15
33903 15
34326 15
34506 15
34529 15
155 4
2018 8
8988 4
12549 4
16175 4
22878 4
23651 4
25268 4
25455 4
27408 22
29419 4
31196 4
31539 4
33543 4
33562 4
33748 4
34495 4
156 10
7752 10
11536 1
20135 10
23886 10
24243 10
25366 10
26495 10
27012 10
28145 10
28604 10
28809 0
31651 10
32128 10
32426 10
34008 10
157 9
1389 9
13533 9
15522 2
17939 9
20803 9
21448 5
22948 9
24358 22
25492 9
29489 9
30846 9
32086 9
32680 9
32787 9
33682 9
158 3
2362 3
9771 3
15335 3
15770 3
17112 3
19253 3
20243 3
20637 3
21556 7
29955 3
30697 21
32296 3
34301 3
159 12
3098 12
4669 12
6059 12
8758 27
8975 12
10082 12
16614 12
18013 12
21305 13
23639 12
24175 12
28240 12
31068 21
31913 12
34441 12
34515 12
160 6
1028 6
19715 6
20828 6
23617 7
23632 6
27834 48
29683 4
31426 6
32307 6
32651 6
34163 6
34319 6
161 11
1615 11
2026 10
2073 11
5408 11
14981 11
15508 10
19241 11
20734 11
23107 11
24469 11
26783 11
28651 11
33544 11
33684 11
34146 11
162 11
6062 11
13928 11
13949 11
19045 11
19792 11
22657 11
23638 11
32083 11
32755 16
32869 11
34202 11
163 0
503 0
4745 0
9914 0
14667 0
18071 0
18642 0
19702 0
21414 0
27806 0
30911 9
31372 0
31916 0
164 2
823 2
2233 2
2953 2
5615 12
7103 2
17398 2
22624 2
27225 2
27972 2
29585 2
31791 15
31803 2
32187 2
32275 2
34047 2
165 21
2237 21
3412 21
4386 21
15460 21
18491 22
18561 21
19751 21
20295 21
23376 21
25121 21
28059 10
30935 21
31549 0
32273 21
32430 21
33829 21
166 10
1488 10
1836 10
2516 10
5413 59
6479 10
6841 10
13295 9
18600 10
21857 10
27000 10
30742 10
32949 10
32953 1
33417 10
33996 10
167 7
5164 7
5598 7
12132 7
12337 8
13148 7
18697 17
20652 7
22789 7
30753 7
31353 7
32139 7
32421 1
32437 7
33798 7
34157 7
168 46
3327 45
6409 46
11828 46
12952 46
13893 46
16024 46
19731 33
26278 46
27622 46
28154 46
30923 12
32640 46
32740 46
32793 46
33227 46
33610 46
169 21
870 21
3475 21
3534 21
4043 1
18034 21
18157 21
21017 21
26293 21
27255 21
30107 21
30231 21
31830 21
34226 0
170 34
187 34
405 34
2023 34
3362 34
4576 34
4782 34
5015 34
6224 34
6452 34
6549 3
6773 34
7505 34
7982 34
9204 34
9741 4
171 17
5512 37
8078 17
8226 17
9307 17
9997 17
11199 17
13477 17
14851 17
15530 17
18589 10
23838 17
25447 17
27306 17
27528 17
30765 17
31025 17
172 1
249 1
2346 1
3297 1
6079 1
8560 1
15632 1
19176 1
20364 1
24334 1
25556 16
30370 1
30927 1
32284 1
32937 1
33549 13
33655 1
173 27
9334 27
13044 5
14685 0
15897 27
16721 27
17608 27
20029 27
23663 27
24646 27
28289 27
29194 27
32997 27
33020 12
34526 27
174 21
13008 60
20423 21
21138 21
22295 21
25441 21
25499 21
25643 7
27908 21
29358 21
31957 21
34131 21
175 46
3777 46
7240 46
10474 46
14836 46
16958 46
21039 46
24267 46
24562 46
27450 46
27800 46
28637 46
30181 46
31825 46
176 52
3649 18
4345 52
4808 52
5933 52
6177 52
7534 52
12113 52
18275 52
19687 9
22208 52
23845 52
32116 10
34120 52
177 9
7070 9
9088 61
12796 9
22069 9
24599 9
27977 9
28330 9
28520 9
30142 9
30726 9
30920 9
31356 9
31767 9
31970 9
178 36
179 36
2213 36
3180 36
3705 36
4440 40
8607 0
9621 36
9826 36
19192 36
24505 36
27971 36
29443 36
32432 36
1021 36
4298 36
7158 36
13655 36
18273 36
19697 36
21006 36
31063 36
31606 1
32841 17
32972 36
33816 36
34355 36
34527 36
180 4
1214 4
1874 4
6787 4
8937 4
12019 4
12470 4
17157 4
17534 4
21970 4
23699 4
25691 2
26578 5
27926 4
31755 4
181 7
7173 7
8264 7
8634 7
13940 7
14108 7
21892 7
25601 7
26234 21
26905 7
29690 7
30681 7
33880 7
34011 6
34058 7
182 9
6001 9
10245 11
10275 9
10773 9
12083 9
13568 9
15663 50
23053 9
24307 9
24807 9
26802 9
30379 9
33021 9
33701 9
34279 9
183 12
3042 27
3116 12
8588 12
13392 12
19107 12
19665 12
24261 55
27859 16
29281 12
29542 12
33147 12
33271 12
33875 12
34331 12
34477 12
184 0
6016 0
6374 0
6551 0
6844 0
9211 0
11753 17
11971 0
18005 0
20565 0
23446 15
25479 0
26870 0
27586 2
34531 0
185 62
2850 62
3299 62
6697 17
12538 62
15017 62
16626 22
19211 62
19846 62
23160 62
24099 62
27483 62
32723 62
33412 62
33480 62
33963 62
186 10
4086 10
7545 10
21474 10
21961 5
22516 10
23322 10
25567 10
27369 10
31419 10
33202 10
33225 10
33386 10
34134 10
34239 10
34487 4
21761 38
22406 5
26251 3
188 7
2021 7
6143 7
6802 7
13058 7
13669 7
17151 7
17799 16
21290 7
22647 18
28212 7
29686 7
30732 7
30875 7
33073 7
34180 7
34336 7
189 7
1730 7
4348 5
13437 56
15509 7
23803 7
25837 7
26957 7
27412 7
30860 7
31010 7
31127 7
31477 7
32343 7
34406 7
190 4
4166 4
9274 4
9322 4
10337 4
14955 4
15266 4
18536 4
22329 4
25288 4
30133 4
33551 21
33667 4
33835 4
34496 22
191 0
649 0
4139 0
9367 0
15332 2
17113 0
17323 36
19986 15
28126 0
28781 0
29834 0
31804 0
33157 0
33466 0
33572 0
192 3
506 4
6181 3
13302 3
13491 3
16410 3
19553 3
21767 3
23196 3
24506 3
24701 3
26842 3
193 15
3853 15
5370 15
8331 15
12814 15
16053 15
19650 15
26944 15
27539 15
28811 15
29058 22
30607 12
33239 12
33766 15
194 11
6783 11
12106 11
16660 11
21522 11
24752 11
24753 12
26914 11
28541 11
29132 11
29810 4
30274 17
33462 11
33985 11
34335 11
195 21
1259 4
1787 21
5983 21
7912 21
9045 21
13227 21
18306 21
24697 21
26795 4
26824 21
29142 21
29962 21
31417 21
32695 21
33640 21
196 17
493 17
1792 17
3429 21
6279 17
6577 17
7523 17
15584 17
23854 17
24664 35
27478 17
28074 7
28855 17
30980 17
32080 17
32877 17
197 63
494 63
2124 63
2736 63
3030 63
3140 63
3601 63
3946 8
4153 63
4572 63
5592 63
5617 63
7134 63
8163 63
8167 63
11415 21
19091 13
198 57
1077 57
6017 10
8265 57
9847 57
11298 57
13555 57
20227 57
21259 57
21653 57
22692 11
25565 57
29673 57
30396 57
30769 57
31583 57
34078 9
199 9
4417 9
9890 9
13186 9
13299 9
17031 9
17331 9
23686 13
26118 9
27932 9
28562 9
28633 9
29640 9
29719 9
33965 9
34044 9
200 4
341 4
2448 4
4877 4
8555 4
9928 27
12392 4
13588 0
17409 4
21266 4
21450 4
22954 4
26368 22
27628 4
31809 4
33538 4
201 8
3136 8
7939 7
8097 12
8529 8
11144 8
14873 4
22066 8
22580 8
24596 8
28221 8
28917 8
29195 8
30406 8
33030 8
33616 8
34233 8
202 11
6472 11
10530 11
19588 11
21482 11
23560 12
25789 11
28249 11
29796 11
30757 11
31366 10
31780 11
32347 11
34346 11
34492 15
203 7
1802 7
7283 7
8346 7
19335 7
21477 1
21930 7
23020 9
27118 7
33474 7
34108 0
34345 7
34398 7
204 52
2292 52
4120 52
4542 27
7628 52
13943 52
14617 52
18895 52
19947 52
23061 50
23207 52
23634 52
26190 52
33261 22
205 27
5698 27
7162 27
14725 27
18816 27
19802 27
22313 8
22436 27
24236 27
28184 2
30706 27
30969 27
33256 14
33738 27
206 7
2604 7
6698 7
10493 7
14600 7
14658 7
15785 7
18814 7
19655 7
24672 7
25148 7
28128 7
31269 7
207 11
1058 49
3241 11
5247 17
6281 11
11358 11
13535 11
14731 11
22284 11
23013 11
26290 11
27752 27
28367 11
33921 11
34428 11
208 8
2868 9
3500 8
7016 8
8457 8
14083 8
17390 8
18224 8
19727 8
28091 8
32506 8
33138 8
33284 8
34275 8
209 25
739 25
3896 25
8089 25
18128 25
19484 25
19627 25
20176 25
20577 25
23000 25
23016 25
23204 25
28494 25
29930 25
30187 25
30309 15
210 27
3614 27
4551 27
7602 27
11307 27
18571 27
21830 27
24342 27
24600 27
30015 27
31618 27
32750 27
211 4
7686 4
8436 8
8617 4
11082 4
14876 4
19452 27
19644 4
21126 4
21324 4
26276 4
28559 4
29918 9
33212 4
34535 4
212 10
889 10
2849 10
3619 10
6619 5
8216 10
21430 10
22488 10
24677 10
25548 10
25974 10
27903 2
32472 10
213 11
4205 11
11294 11
13414 22
14352 11
15197 11
17421 11
17955 11
19496 11
23110 11
23161 11
28271 15
30514 11
30847 11
30997 11
33935 7
214 4
2532 4
4190 27
5280 4
5407 4
7287 4
10415 4
18115 4
19122 4
23079 7
23400 4
27757 0
32404 4
32484 4
33371 4
33803 4
215 8
4089 8
7327 8
7420 8
9219 8
11986 4
15152 8
21395 8
21651 8
26255 8
29056 8
29366 8
30360 8
33783 8
34128 8
216 5
519 5
1016 5
6836 5
9989 5
14802 27
15170 5
17673 5
18421 35
20027 5
21689 17
25575 5
27610 5
28299 5
29190 5
30339 5
31110 5
5656 15
16702 15
17549 15
18279 15
18343 15
20180 15
25729 12
26283 15
29186 15
29596 5
30369 15
33768 15
218 4
1723 4
2554 4
3137 4
5857 4
13981 4
21714 27
25439 4
25727 4
27570 4
28189 5
29808 4
219 21
7330 21
11368 21
11981 21
13458 21
16015 21
16255 21
22870 21
29322 12
30143 9
33110 7
33301 21
34181 21
34473 21
16977 0
17714 0
19251 0
27657 0
28157 0
30327 0
33628 0
33782 33
33837 0
34062 0
34109 0
221 36
11035 36
11764 4
15276 36
17861 36
20730 36
21366 36
23234 36
23747 36
24057 36
33345 36
33380 36
34464 36
222 4
2307 4
4706 45
6749 64
11226 4
13848 4
14076 4
17083 4
22083 4
24919 4
26025 4
27457 4
28490 4
33949 4
223 6
7617 6
9226 10
14325 6
17826 6
18547 6
20378 6
22664 6
23334 6
24191 6
25235 6
27285 6
30579 6
32063 6
32110 7
224 5
620 5
2717 5
10126 5
11664 5
17555 5
18008 5
19408 5
20216 5
23562 5
23968 5
24734 5
24827 5
26965 11
27930 5
31555 5
33238 21
225 12
8492 12
9600 12
10878 12
13879 12
17161 12
17742 12
23627 12
24784 12
26834 12
30042 12
30645 1
31291 4
32019 12
32629 12
32878 12
226 16
907 16
4661 0
13735 16
18397 16
24254 16
26451 16
28674 16
28721 16
30195 16
31707 16
31971 16
32569 13
34471 16
227 8
5185 8
7034 8
8420 8
8744 8
8756 8
11621 55
17866 8
22218 8
23976 8
24009 8
30281 8
30899 16
30934 8
31622 8
33711 8
228 0
6902 11
7809 0
10237 0
10729 0
11521 0
18091 27
19445 0
22161 0
27109 65
29240 0
30715 0
30919 0
31287 0
34216 0
229 12
3258 12
4560 12
5955 12
7219 8
12625 47
18072 12
21489 12
22872 12
24053 12
25558 9
31363 12
230 22
457 22
1646 22
1994 22
11004 22
13408 22
21798 22
21999 0
22588 22
23370 22
23881 2
31379 22
31644 22
31702 22
33485 22
33994 22
231 0
1313 10
10150 0
11006 5
15537 0
20247 0
25488 0
29407 0
29981 0
31023 0
32988 0
34351 0
232 32
628 32
843 32
847 32
1008 32
1347 32
2211 32
3559 32
4232 32
4284 32
4806 32
7634 32
7839 32
8554 32
27037 8
233 12
959 12
5287 12
5832 12
6790 12
9032 12
12719 15
12836 12
16436 12
19791 5
21027 12
26264 12
32544 1
32552 12
34225 12
234 41
5109 8
15242 41
16912 41
18986 41
19638 41
23002 41
23331 41
26397 41
27632 41
28418 14
30535 41
31842 41
32024 41
235 17
5569 17
8415 17
12443 17
15339 5
15764 17
16348 5
16646 17
22484 17
24160 17
25223 17
27784 17
28647 17
30405 17
30850 17
236 8
4947 8
15318 8
15750 8
17813 8
21149 10
21987 21
24000 8
25463 8
27032 8
27660 8
29481 0
32846 8
34208 8
237 18
481 18
2341 18
3205 15
9816 18
11250 18
17258 11
20748 18
21985 18
25816 18
26760 18
30912 18
32071 18
32676 18
32711 18
33854 18
34101 18
238 16
3898 16
10064 16
19954 16
20810 16
21269 16
22925 16
24125 42
26191 16
28998 12
31239 16
32314 16
33914 16
33943 16
34501 16
239 21
875 21
15330 21
16284 21
17441 21
26648 21
27133 5
27304 21
27636 21
27830 21
29793 21
30048 22
32214 21
33223 21
33452 21
34532 21
240 12
5580 12
6116 12
7876 12
12526 12
12912 12
16508 12
18126 12
23419 45
25036 12
26551 12
26805 2
28475 12
29376 12
31693 11
241 7
1117 7
5284 7
8917 7
9091 7
12026 7
12870 9
14340 7
15542 7
15701 7
25635 8
25726 7
26430 7
29170 7
32884 7
242 9
4696 9
5821 9
13305 9
16815 9
17718 9
18414 9
19640 21
19961 22
22767 9
23683 9
24155 9
29671 9
2356 51
17883 7
244 7
345 7
2687 7
4256 7
7354 7
14872 17
18749 7
18953 7
19894 8
21352 7
23682 7
24943 7
28527 7
31982 7
33942 7
34206 13
34508 7
245 61
3265 10
3324 61
9107 15
9709 61
14689 61
20215 61
21984 61
23483 61
25309 61
26603 61
28230 61
29828 61
30914 61
33654 61
33731 61
33972 61
246 15
1242 15
11507 12
11818 15
11960 15
14498 15
18416 15
21462 15
21931 15
26203 15
26950 15
31205 27
32396 15
33475 15
247 13
6391 1
6442 13
9174 10
20431 13
23811 13
23847 13
27436 13
27754 13
28316 11
30647 13
31567 13
31939 13
32035 13
33385 13
34081 13
248 6
985 15
3893 6
6209 6
20995 6
24401 6
26757 6
31335 6
31833 6
32786 6
32951 6
33612 6
34005 6
8671 1
9412 1
13651 1
18242 1
20620 1
21524 1
30883 1
32045 1
32590 1
33945 1
34073 1
34196 4
34365 10
250 21
388 21
3208 9
11556 17
17149 21
21449 21
24740 21
26295 21
28569 21
29415 21
31006 21
32222 21
34095 21
34187 21
34193 21
251 4
2875 4
6882 4
13286 4
13800 4
16357 4
17078 4
18057 4
21996 10
23620 4
28231 4
32520 4
32560 4
33320 4
33374 4
33890 12
252 9
2036 9
2442 9
9023 9
13199 9
13405 9
14646 9
18754 9
19267 36
24796 9
25173 9
30043 9
253 61
2489 61
10810 58
13842 61
13972 61
14135 14
15346 61
19552 61
20415 61
28750 61
30387 61
254 4
1012 4
1252 4
7700 4
13036 3
18150 4
18283 4
26674 4
29465 4
29947 4
31578 4
31788 7
31810 4
33904 4
255 46
5521 46
9434 46
11279 46
16879 58
17385 46
19659 46
22424 46
22618 46
25002 46
29394 46
30269 46
31175 14
31460 46
33115 46
34384 46
256 66
4503 66
5491 66
5824 11
6508 66
10918 66
12264 66
13096 66
13120 66
14258 66
22496 66
22784 66
24540 66
29823 66
30238 15
30641 66
33229 10
1805 53
16437 10
23177 25
258 9
7800 10
8065 10
14204 9
14581 9
14638 9
20524 9
22748 9
24855 27
26439 9
29416 9
30584 9
32648 9
33076 9
33292 9
33362 9
34370 9
259 17
6992 38
10309 17
10977 17
15590 17
16601 17
21820 17
22164 17
22404 36
24045 17
26717 17
31756 17
32718 17
32744 17
260 14
636 14
955 33
3722 14
6139 14
8314 14
12024 14
12893 14
15298 14
20699 14
26940 14
27148 14
32212 14
33392 14
34344 14
261 5
1720 5
6770 5
9559 5
9563 7
11066 5
22420 5
25064 5
25846 5
27498 10
29223 5
31262 5
32061 5
32810 5
33563 5
262 8
4371 10
7398 9
10616 8
16812 8
17855 8
17930 8
20933 8
26588 8
27233 8
27335 8
28699 8
32992 37
33358 8
33951 8
263 1
4237 1
4835 1
8398 10
17171 1
18228 1
20479 1
20774 1
23849 1
26208 1
26660 1
30924 1
32158 1
32675 1
33532 21
264 11
12623 11
16423 11
17069 11
23645 4
24391 11
26920 11
29647 11
31938 11
32368 11
33430 11
34386 11
34474 11
265 4
1376 4
1929 4
8516 13
21021 4
21756 4
24144 8
24367 4
26001 4
28052 4
30069 4
31841 4
31978 4
32031 4
32217 4
32910 4
33159 4
266 5
3452 5
4746 5
7488 5
11129 5
12552 0
19034 5
19403 5
25249 5
25545 5
27951 5
30077 5
30183 5
31760 5
34322 5
267 7
1466 9
6278 7
7144 7
15458 7
17001 5
18926 7
25299 7
26298 7
26792 7
27040 15
29976 7
31909 7
33590 7
34330 7
268 18
6169 27
6449 18
7345 18
8857 18
8929 18
10053 8
11738 18
17822 5
26064 18
29410 18
29521 18
29775 18
30507 18
31121 18
31288 18
32218 18
269 18
6774 18
8548 18
10382 18
12718 18
13638 18
15480 18
18617 67
22768 18
25707 18
26891 7
27114 18
29068 18
30845 18
34340 18
270 25
2186 25
7793 25
14535 41
15150 25
17816 25
28323 25
28476 25
29456 25
30721 25
32892 25
33670 25
34097 25
34252 25
34400 25
34497 25
271 15
996 15
2088 15
15878 15
17505 15
20576 15
23441 15
25497 15
31915 15
32177 16
32889 15
34232 15
34514 15
272 8
6569 22
7365 8
13048 8
20746 8
20895 8
23076 8
26669 8
29927 8
30373 8
31344 8
32156 8
33989 8
273 4
926 2
5444 4
13532 4
15830 10
16504 4
17118 4
19716 4
21256 4
24350 4
24458 4
29910 27
31424 4
274 17
2137 17
6522 17
7858 17
9098 17
9732 9
18682 17
19423 17
24635 17
24745 17
25391 17
28643 17
28670 17
28835 17
29282 17
33488 9
34463 17
6126 7
11835 7
18893 7
19138 7
21374 7
24300 7
25316 7
26435 4
31590 9
32160 7
34382 7
276 2
4733 2
6396 2
8977 2
10452 2
12585 2
16677 0
16825 2
17824 2
18030 4
18611 2
19892 2
22437 2
27686 2
33981 2
34256 2
277 1
5437 1
14652 1
16592 1
20549 11
20814 16
21050 1
22732 1
22874 1
25739 1
27736 1
28370 1
28711 1
29536 1
30184 1
32297 1
278 5
6137 5
7288 0
8256 5
8487 5
14976 5
15799 5
15823 5
18268 5
23191 4
23203 5
25644 5
27845 5
30479 5
31107 5
32769 5
279 22
1230 22
6275 22
8601 22
17315 12
20584 22
21316 22
23432 4
23470 22
26618 22
28942 22
29077 22
29464 22
31331 22
34194 7
34437 22
280 0
2663 0
3337 0
5130 0
15922 0
17531 9
19237 0
24631 0
29660 17
32917 0
33592 0
281 11
1459 0
9313 7
10289 11
13958 11
15373 11
20702 11
21048 11
23206 39
24423 11
27901 11
28876 11
29909 11
31193 11
31646 11
31857 11
34282 11
282 9
2075 9
14623 9
16793 11
18533 9
20257 9
21181 9
24526 9
24842 9
28077 9
28931 9
31207 9
32572 9
34121 9
283 0
9636 27
14244 0
15597 0
15646 0
18641 0
23011 0
26625 0
27362 0
29995 12
31496 0
31955 0
32100 0
32556 0
33024 0
284 3
419 3
3392 3
3509 2
4340 3
11280 3
13605 3
18160 3
18791 3
20489 3
26305 3
27138 3
28227 3
30111 27
285 55
2301 55
4566 55
4958 55
5212 55
11815 55
12035 55
18263 55
19579 55
25610 55
26095 55
27469 55
29655 55
31816 10
32608 11
34029 55
286 14
1135 14
6691 14
7864 4
8879 14
13713 14
18618 14
25751 14
27680 10
31059 14
32598 14
32804 14
33892 14
33970 14
34479 14
34520 14
3949 5
8019 9
10296 9
12367 9
20692 9
28635 9
29768 9
30518 9
31444 9
34119 9
288 4
2474 4
6689 4
8397 4
10307 4
13394 4
15506 4
16145 1
22294 4
24904 4
27222 4
29094 4
31523 4
32435 4
32460 4
289 21
11868 0
12368 21
13254 21
14280 21
16125 21
17578 21
20550 21
22176 21
22697 21
22700 21
22979 21
30819 12
34460 21
290 50
7936 50
19781 50
21150 50
22641 50
23726 50
24466 50
25478 50
27765 50
28205 50
29009 50
30362 50
30560 0
31605 21
33258 50
33964 15
34427 50
4460 14
6415 14
6424 14
9944 3
18538 14
21211 14
28054 14
29611 14
30549 14
30950 14
292 22
8423 22
10477 0
12177 9
20330 22
21201 22
23548 22
23551 22
25830 22
30695 22
31292 22
31855 10
32208 22
33279 22
34483 22
293 12
1131 12
1386 12
3664 12
9043 12
11814 12
12373 12
12867 12
14990 12
19262 12
19600 12
25181 12
26226 12
32858 12
294 6
3470 6
6792 6
9146 21
12609 6
17263 6
17449 6
24374 6
32518 6
32932 7
33525 6
33674 6
34162 2
295 12
3276 12
4739 13
4981 60
6008 12
6455 12
9812 12
16270 12
25392 12
26794 12
28782 12
31109 12
32391 4
32818 12
34169 12
34493 12
296 55
896 55
4456 17
6651 55
9361 55
9765 55
14058 10
14820 55
21869 55
26340 55
31304 24
32124 55
33526 55
33966 55
33991 55
34442 55
297 11
737 11
7688 27
10692 9
14634 27
15297 11
19096 11
19277 11
20098 11
20484 11
24069 11
29859 11
30341 11
30709 11
34499 11
298 17
1277 17
8909 17
10003 17
12515 17
13564 55
19897 10
20839 17
21049 17
25590 17
29688 21
30092 17
31645 17
33779 17
33928 17
299 7
4686 7
5836 7
8338 7
8848 7
21643 7
23098 12
23201 15
25681 7
28302 7
31323 7
31621 7
32853 7
34132 7
34360 8
300 0
6481 0
13736 0
13911 5
14392 0
20944 8
23233 0
23744 0
25335 0
28179 0
29777 0
32637 0
33067 0
34393 0
301 44
1559 44
5049 52
10004 44
10673 4
32173 39
302 15
944 15
980 15
4333 15
5599 15
6557 15
8072 15
10335 15
13335 15
13833 15
14123 15
17255 15
22602 15
23681 22
303 68
6092 68
9748 68
14815 68
16141 68
19759 68
19884 11
22781 68
23045 68
23948 68
25192 68
25315 68
25417 68
27811 68
28991 68
29175 68
304 7
1208 7
3074 7
6633 7
6901 7
10346 7
13796 7
17305 9
23985 7
23988 5
27605 7
29256 7
32193 7
34269 7
34358 7
305 22
4222 22
7798 36
11191 22
11225 22
18131 22
18840 22
21594 22
21694 22
24070 22
24072 22
26497 22
26967 22
28868 22
32801 22
33456 8
306 8
1708 21
8875 8
9414 8
11138 8
11192 8
11669 8
21077 8
21086 8
21131 8
21249 8
23611 8
29929 8
31425 8
31647 8
33791 21
307 50
4381 50
5097 50
7888 50
10527 50
17767 50
18958 50
19787 50
19880 15
22858 50
24150 50
24765 50
29702 50
30660 50
31037 12
31405 50
33879 50
308 20
16495 20
20192 20
22621 20
23119 20
23950 27
25802 20
27341 20
27422 20
29519 8
29678 20
30582 20
31530 20
309 9
4263 9
6019 9
9979 9
12707 9
14890 9
20658 9
23427 1
27292 4
28766 9
30492 9
32867 9
33037 9
33900 9
310 15
3179 5
13505 15
20285 15
21294 15
24690 15
24785 15
28871 5
30497 31
32963 15
33574 15
33583 15
33799 15
34145 15
311 7
7925 7
8998 27
10767 7
10812 7
11086 7
14678 7
16928 69
18937 7
27016 7
27861 7
31361 7
33750 22
33849 7
312 4
10932 4
11677 4
18001 4
20212 4
21740 4
24325 4
25321 4
27455 4
27929 4
28447 1
29339 4
31042 55
32188 4
32334 4
32464 4
313 7
3271 7
4589 7
9674 7
12321 10
12324 7
14153 7
19490 7
20287 7
27729 7
27759 7
32962 7
33786 0
314 11
642 11
2965 11
3855 4
7613 11
8665 11
10912 4
11639 11
21818 11
23596 11
25542 7
27668 11
30098 11
34432 11
315 70
3214 70
3293 70
3485 70
4378 70
5157 4
6560 70
7042 70
7655 70
8003 70
8037 70
8038 70
8107 70
9576 70
9607 70
30140 4
316 58
2323 58
4796 58
7849 58
8677 58
14117 45
19608 58
21160 58
22104 8
22171 58
23398 58
25505 58
26038 58
29385 58
30200 58
33317 58
34209 58
738 15
1402 9
6399 27
8652 15
10240 15
11016 15
11283 15
14210 15
21658 15
21698 15
23648 15
24604 15
31258 15
33638 15
318 7
2565 7
9138 7
10226 31
11458 7
19103 7
19114 7
19307 7
24936 7
27391 10
28210 7
29040 4
30890 7
31843 7
33539 7
319 5
3577 5
4312 5
9718 5
11938 15
12712 5
14420 5
14509 12
14840 5
14992 5
15296 5
16736 5
23272 5
32918 5
320 56
10007 56
10896 56
15251 56
20256 56
21151 56
21443 56
21839 56
24134 56
24873 56
24912 56
26165 56
26925 56
27789 56
28660 11
30523 22
321 25
1426 25
4138 20
6241 25
7164 25
8776 25
12461 25
14398 25
17063 48
22863 12
23024 25
27803 25
31343 25
31507 25
34349 25
322 22
1091 22
5198 22
10018 22
11885 22
12471 22
17059 22
17730 22
19290 22
22019 22
23908 22
24001 0
24310 22
28854 22
32431 22
33437 22
323 14
6559 14
11850 14
12770 14
15925 12
20374 21
27128 14
30831 14
31157 14
31882 14
32930 14
324 8
7269 8
7698 8
17165 8
20573 8
20631 8
23702 8
27942 8
28232 8
28663 8
31513 8
31680 8
32717 8
33867 8
325 13
504 13
5334 13
5369 13
11330 13
13355 25
15846 13
16298 1
16712 13
17999 13
21525 13
21558 13
26179 13
28797 5
29036 13
30922 13
33156 13
326 38
4335 38
5325 13
7146 38
10986 38
11363 38
11837 38
13149 38
13603 38
16059 38
23492 38
27501 38
29837 38
31744 16
32400 38
32990 38
327 4
9772 4
10491 4
13696 4
14356 4
14980 4
15467 4
15884 4
16470 16
18614 4
21148 4
21242 4
22383 13
27098 4
28402 4
29204 4
32133 4
328 12
3643 12
13132 8
13334 12
16138 21
20220 12
20609 12
24987 12
26454 15
27770 12
32182 12
32279 12
32465 12
329 8
4275 12
5050 8
5637 8
5701 8
5946 8
10244 0
10364 8
15995 8
22547 8
22726 8
26140 8
27515 8
32678 8
34093 4
34309 8
330 14
3565 14
3726 14
4698 14
19421 4
19622 0
20753 14
25251 14
25654 14
27958 4
30801 14
31279 14
33109 14
33511 14
331 12
2095 21
8874 12
11258 12
19914 71
20054 12
26883 12
27692 12
32107 12
32477 12
32478 12
34298 12
34318 12
332 7
3747 4
4442 7
11295 7
12411 7
17551 7
19012 7
23090 7
23121 7
24643 7
29372 7
31038 2
32446 7
333 11
583 11
1749 11
7143 11
13231 11
17098 11
20513 11
21895 11
29584 25
30096 11
30998 11
33870 11
334 1
7897 1
10440 50
10830 1
11137 1
17482 1
20089 1
20148 1
29087 1
29856 1
32075 1
32103 1
33336 21
33723 1
335 8
5886 8
6809 8
8478 8
14695 8
14916 8
18899 8
23533 8
24351 8
28197 8
29057 10
31316 8
32462 8
34511 10
336 1
1176 1
2288 1
5358 1
5689 1
12761 9
21706 1
23864 12
26188 1
31078 1
31130 1
31924 1
33451 1
34538 1
337 1
2409 1
8426 1
9100 1
14339 1
14575 1
17061 1
20254 1
20764 1
26719 1
27627 1
29472 0
30542 1
34451 1
338 22
1204 22
1725 22
4212 22
7431 22
11390 22
13211 22
15721 22
24459 22
26277 16
26470 22
26508 22
28286 22
32712 22
339 7
438 7
6216 7
9360 7
9609 7
13930 7
14223 7
18350 7
22105 10
25538 7
26253 7
29251 7
32732 4
33822 7
340 61
12734 61
16464 61
17262 61
18820 61
19018 8
25055 61
29255 61
32329 61
33613 61
34154 10
2427 4
5867 4
9521 4
10650 4
12527 4
15280 4
18362 10
20381 49
27516 4
28333 4
32493 4
32838 4
34043 4
342 15
589 15
4567 15
6924 15
12709 15
18264 15
23994 15
28610 15
30789 9
31150 0
32418 15
343 37
4978 37
5578 4
5731 37
10196 37
12614 37
12696 10
15746 37
18014 37
19365 37
21139 37
25017 37
25733 37
28051 37
30944 37
32934 37
34516 37
344 36
2528 36
10353 36
12238 36
13294 36
16323 36
20525 36
27364 11
28366 36
31401 22
32438 36
33250 36
4666 7
4742 7
5020 7
7578 7
18195 7
18831 7
27572 7
28087 5
29714 4
29857 7
346 13
634 13
1200 13
8270 13
8861 13
10278 13
11578 13
25266 13
27305 13
31544 13
32674 13
33820 46
33860 13
34175 13
347 14
394 14
2019 14
4428 21
5243 14
12976 14
15606 14
19957 14
21610 14
23279 5
26533 14
26716 14
27732 14
28605 14
348 7
1326 7
19873 7
21860 7
23583 7
26672 7
26922 22
27296 7
29968 15
30331 7
30393 7
32507 7
32594 7
34467 7
349 7
7344 7
7566 4
8893 7
12413 7
18461 7
20401 7
21896 7
23488 7
27772 7
29228 7
3830 7
4294 7
9543 8
14777 7
16122 7
17465 7
23565 7
24872 46
28906 7
32053 7
33022 7
351 15
4941 15
9279 15
10472 15
12629 15
22739 15
24848 21
26121 15
29188 15
29311 0
31076 15
32546 15
32969 15
352 8
531 8
2886 8
4834 8
14948 12
15558 8
16404 8
22907 8
28753 8
33180 5
33219 8
6095 37
6548 7
11339 7
19795 7
24594 7
25134 7
28890 7
30347 7
32739 27
354 2
7261 2
16260 2
18020 2
22823 2
23450 2
24593 0
25338 2
26402 2
29352 2
29814 22
32303 2
355 10
1812 10
8073 7
8164 10
8405 10
10835 10
19113 10
21380 10
23496 36
23652 10
30829 10
30985 10
32701 10
34039 10
34234 10
356 1
895 1
14989 1
16038 1
16266 1
17633 11
22456 1
23530 1
23820 1
24744 1
26778 1
28417 1
32436 1
357 12
5099 12
11465 12
12044 12
12503 12
13570 12
17114 10
18643 12
23195 12
25723 12
26973 12
28869 12
30169 12
31601 4
358 17
4127 17
4486 17
12040 17
13989 17
15261 17
16859 17
19326 17
19916 17
20404 17
21281 17
21731 17
23103 17
23784 1
25840 12
30323 17
359 4
2326 4
4076 4
6144 4
9617 4
9750 4
10231 17
12267 4
12841 36
14283 4
14686 4
18559 4
21206 4
25410 50
29739 4
32112 4
360 16
9708 16
10866 16
15563 5
17455 16
19719 16
21343 16
22073 16
25688 16
26053 16
26901 16
27203 16
27372 16
27669 16
29722 0
32722 16
361 10
2363 10
2401 0
5738 10
10695 10
12865 10
17081 10
22783 10
24525 10
26287 10
26558 21
29602 10
29934 10
29964 10
34228 9
362 6
4498 9
5640 6
7066 6
8441 6
10587 6
11003 6
15089 4
16802 6
16882 6
17055 6
21485 6
30776 6
32940 6
363 8
7689 8
9562 8
11296 8
13449 8
13712 8
15812 8
16320 7
20742 8
31189 8
34075 8
34475 10
34522 8
364 27
968 27
1741 27
2228 27
11242 10
23146 27
28200 27
28549 27
29685 52
32301 27
32585 27
32833 27
32979 27
33649 27
34502 27
365 37
7591 37
12662 37
16455 0
16922 37
20052 37
21859 37
24122 37
26210 37
27891 37
30477 37
30690 37
30936 37
33588 37
366 4
1584 4
5113 4
11148 4
11641 4
23123 4
28601 4
29069 4
33361 71
34259 4
367 10
2679 10
5398 10
9190 10
14346 27
19067 10
24283 10
26212 10
28105 10
31060 10
31511 10
32856 10
34257 10
34510 10
368 7
1218 7
3478 7
3674 7
11261 7
11265 7
15308 21
16305 7
19851 4
25273 7
28239 7
29800 7
30147 7
32714 7
32989 7
369 5
11517 22
11895 5
12209 5
18314 5
28518 5
28700 15
31458 5
32385 5
33298 5
33514 1
34032 5
370 36
17179 36
20758 36
23564 36
26808 36
26968 36
31171 36
371 4
3055 4
9298 4
10747 40
12096 4
23500 4
27479 4
28846 4
32551 21
33997 4
34139 4
372 5
2617 10
3005 5
3149 5
3322 5
5314 5
8527 5
8905 5
18737 5
18931 5
27373 5
29148 5
31381 5
32799 5
33644 5
34472 12
373 42
1119 42
7536 42
12922 42
14702 42
16460 12
20533 42
23584 42
24843 42
27594 42
31787 42
33106 42
34254 4
374 10
8814 10
13257 10
15411 10
15793 10
20594 10
24017 21
27521 10
28971 10
30410 10
32800 10
33226 10
33717 10
375 27
2659 12
7406 27
8491 27
21957 27
22369 27
24887 27
25769 27
32397 27
376 17
10463 17
13934 17
14361 17
14735 9
19609 17
21893 17
22241 17
23794 17
31550 17
32774 17
33683 5
377 9
1846 4
2144 9
5896 9
8092 9
8537 9
17860 9
20202 9
27665 4
30250 9
33178 9
33580 25
2097 27
5239 27
6875 10
8796 27
15755 10
21111 27
22617 27
23750 27
32323 27
32837 27
33759 39
34462 27
379 22
6699 22
8901 22
9438 22
15587 22
16744 22
20353 22
22533 22
26534 22
28691 22
30203 22
31784 0
32373 22
33423 22
380 7
3350 7
7335 7
13026 7
23566 7
27340 7
28626 7
29203 7
30134 5
30839 21
33846 7
33915 7
381 2
5558 2
17819 2
21337 4
22370 2
23721 2
25915 2
27371 2
27776 2
31503 36
32496 2
33124 2
382 5
2876 5
4685 10
14109 11
20070 5
24119 5
26429 5
27062 5
28167 5
30418 5
30696 5
30799 5
31114 5
31823 5
34431 5
383 4
2928 4
6675 4
11238 4
12633 4
18551 8
22112 4
24109 4
26582 4
28555 4
28693 15
29900 4
34395 4
384 3
2015 3
4556 3
5498 3
9212 3
16116 8
19766 3
23323 3
24366 3
34034 3
385 0
1547 0
1555 0
2644 0
5183 0
9527 0
18359 0
18539 0
25070 0
28378 0
32048 0
34421 0
386 4
11429 4
14993 4
19001 4
23666 4
25549 4
27174 4
27492 22
30445 4
31204 33
31616 4
387 10
1361 10
2724 1
2925 10
8801 10
9353 10
11230 10
14246 10
16998 10
27159 10
27944 10
28955 10
31283 10
34135 10
34168 18
1126 21
3300 21
9933 21
9959 21
16516 21
17916 21
21180 11
21727 21
23497 21
25020 21
27140 4
32030 21
34056 21
389 14
1946 14
4165 14
4973 14
7050 14
14748 14
15814 14
18812 14
21413 14
27272 14
29348 14
31885 14
32291 0
32617 14
33941 7
34261 14
390 62
5923 48
10582 62
10706 62
15574 62
20567 62
25737 62
26909 62
27252 62
27253 35
29411 62
30018 62
32358 62
33145 62
34307 62
391 15
10405 15
11741 15
12029 15
12400 15
14794 15
15948 15
20453 15
23529 15
28639 15
30117 15
33753 15
392 0
1594 0
3832 0
16163 0
17351 12
18494 0
20078 0
24363 0
27678 0
393 17
1027 17
5034 17
7166 41
13428 1
13865 17
14157 17
18010 17
18055 17
18419 17
19021 17
21590 17
25740 17
26663 17
29074 17
29710 17
5232 14
12582 14
13039 15
18466 14
23445 14
27139 14
27142 14
27458 14
28023 4
29588 14
32776 14
395 22
3075 22
8352 22
12454 22
12906 22
13165 45
14843 22
17849 22
21537 22
27428 22
32469 22
33211 22
33913 22
34096 22
396 8
2951 8
6108 8
10272 8
13721 8
15220 22
17274 8
19244 8
19649 8
22866 7
27613 8
30433 8
30704 8
33481 8
34316 8
397 12
9159 12
10842 12
15042 12
15347 42
17803 12
19628 12
21491 12
25679 12
27904 12
30532 4
30824 12
34136 12
34449 12
398 11
1740 11
6351 7
12767 11
21087 11
23701 11
27193 4
27876 11
28548 11
30895 11
399 65
4755 65
6864 65
7245 65
10036 65
10728 65
11007 65
11244 65
15352 65
15354 65
19661 65
22077 65
28503 9
28572 65
28720 65
400 5
3813 5
11992 5
13457 4
16472 5
23378 5
24862 5
27382 12
29239 5
31611 5
34172 5
34211 5
401 12
2254 12
6870 0
9061 12
12853 12
14933 12
16050 12
16751 12
18487 12
19157 12
20189 12
26100 12
402 0
1405 0
4351 0
6031 0
6132 0
12034 0
15617 0
16316 0
18516 11
20910 0
28165 0
30568 0
30841 0
33757 0
403 21
999 21
1367 21
4493 21
10219 21
12382 21
14375 21
17941 21
19062 21
20390 21
22227 4
24003 27
25275 21
25602 21
32707 21
32950 21
34063 8
404 1
1246 1
4722 1
13183 1
14139 1
19225 72
24645 1
26110 1
28046 7
28217 6
30091 1
31682 1
32731 1
33533 1
14570 16
24399 13
29633 21
406 4
5681 4
10568 4
13975 4
15425 4
15594 4
15811 4
16682 4
24051 4
24538 7
24760 4
29364 1
31112 4
33267 4
33268 18
33889 4
830 10
30488 7
32603 0
408 21
10294 21
17517 21
20841 21
21004 15
26199 21
27955 21
29820 21
30427 11
30755 21
31169 21
31320 21
409 0
5712 0
7112 0
7801 0
9123 65
9859 0
11937 0
17131 0
17751 0
17830 0
28821 0
29933 27
31368 0
34429 0
410 27
3386 27
12241 27
15976 27
20095 14
21908 27
28381 25
28582 27
28629 3
29130 27
29735 27
30012 27
31643 27
411 5
1995 5
3388 5
4199 21
9477 5
18045 5
18380 5
26858 5
28294 18
28413 10
29523 5
31163 5
32455 5
32633 5
33215 5
412 4
4581 4
7802 4
13174 4
14000 4
14434 4
15486 5
18163 4
19072 4
21028 4
22577 4
28972 4
32499 4
413 7
1118 11
2266 7
14427 1
15052 7
15677 7
18855 7
25099 7
26084 12
28361 7
31565 7
33050 7
33242 7
414 4
2380 4
7059 4
7234 4
10184 4
11502 4
15600 4
23096 4
24054 4
24978 17
24997 27
29816 4
31742 4
33774 4
415 8
5089 8
8526 8
12803 8
13023 21
14363 8
15275 8
17206 8
18415 7
21625 8
23971 8
27054 8
29319 8
29741 8
31017 8
34368 8
416 15
886 15
6658 15
9727 4
18775 15
24840 15
25498 15
25724 27
30316 15
31134 15
31482 15
33478 15
33614 15
33725 15
34107 15
417 10
4183 10
14789 10
19387 10
20981 4
21158 27
22558 10
22939 10
25003 10
28064 10
28156 10
29548 10
33349 10
33785 10
418 1
604 8
5039 1
6807 1
8572 1
10441 1
10486 1
23676 1
23860 1
24327 0
26735 1
33411 1
34288 1
12980 3
14042 3
14582 3
18715 3
18996 3
22037 3
24626 3
25574 22
26776 3
28792 3
29940 3
32495 3
33463 3
420 4
5310 4
6791 4
7259 4
10135 4
12277 4
18828 11
19361 14
20743 4
25375 4
29594 4
32184 4
32448 4
33397 4
33507 36
421 17
3849 14
4240 17
6147 21
8747 17
13083 17
14889 17
19524 17
21737 17
21856 17
26132 17
28919 17
30664 17
34328 17
422 67
2802 67
6598 67
7930 67
8383 67
10637 67
15730 67
16734 67
19102 67
24081 67
25773 67
26742 67
27799 67
28923 3
29679 67
31635 12
423 12
6088 12
12253 12
17245 12
20316 12
20518 12
25160 14
25884 12
28043 10
33234 12
33642 12
424 21
2382 21
4224 21
9813 21
15262 4
15707 21
16868 21
20866 21
22944 21
24253 21
24556 21
29338 21
30531 18
32028 21
33340 21
34523 21
425 9
1841 9
9368 9
10407 9
15966 35
19584 17
20096 9
25656 9
27177 9
27846 9
28965 9
33023 9
33622 9
426 21
976 21
1104 21
2149 21
11010 21
15212 12
17408 4
26183 21
27552 21
30778 21
31015 21
32210 21
34092 21
427 17
4235 17
4764 17
6357 17
9958 17
12306 15
13014 17
14824 17
21015 17
21765 17
25381 17
27864 17
34152 42
34505 17
428 45
2418 45
5777 45
8185 0
8496 45
10352 4
13661 45
19806 45
21822 45
25061 45
25540 45
25938 45
31230 45
32862 45
33378 45
34009 45
34153 45
6024 27
6316 27
6920 2
11512 27
14381 27
17808 27
21426 5
28889 27
30931 27
31725 27
34057 27
430 21
3634 21
4548 21
9006 21
11588 21
12810 21
12973 21
19494 21
21673 21
25911 16
26587 9
28033 21
32986 4
431 1
4063 1
5100 1
8732 4
13717 62
21379 1
24282 1
28938 1
29403 1
31498 1
32152 1
32708 7
432 1
3786 11
4301 1
4777 1
6621 1
10718 1
15516 1
19332 1
21096 1
24136 1
25862 1
28588 1
31662 1
33756 1
33869 5
433 15
510 15
4023 15
4151 15
4329 15
5278 8
6909 73
9804 5
10437 15
11728 15
14691 15
17338 15
24389 15
32163 15
434 74
850 74
1141 74
1811 74
2079 74
5025 74
5912 74
6395 74
9181 74
10748 74
11229 74
11883 74
11984 74
13634 74
25834 71
25998 0
435 9
477 9
4064 9
6380 8
17076 9
18647 9
19545 9
19761 9
22509 9
25089 9
31305 7
31736 9
32955 9
33735 9
436 10
2857 10
6668 10
7789 10
9995 10
17566 10
19212 15
21255 10
26852 10
32890 10
33087 10
437 4
13456 4
15798 4
17140 4
22330 8
22947 4
23141 4
24658 4
27648 4
30941 4
31206 4
31257 4
34444 0
4157 7
7685 12
7948 7
15403 7
22011 7
23943 7
33359 7
439 7
728 10
3367 7
5929 1
8948 7
14486 7
14708 7
16110 7
19987 7
21127 7
21976 7
25059 7
27532 7
31358 7
440 18
2909 45
6014 18
13283 2
14698 18
16891 18
24348 18
29899 18
31315 18
31521 18
32644 18
33954 18
441 12
2498 12
8985 12
14620 12
14954 12
17332 12
25869 12
27592 8
29787 12
30937 12
32069 12
32865 12
442 8
4622 8
6453 8
9635 8
12496 8
13362 10
14474 5
15135 8
19414 8
20226 8
24661 8
30519 8
32536 8
33008 8
33937 8
443 11
3480 11
8668 11
10732 11
15988 11
16117 11
19929 11
20675 11
26047 9
26055 60
26481 11
26930 11
29659 11
30902 11
444 4
562 2
2271 4
5017 4
9210 4
11270 4
15466 4
16711 4
18394 4
21776 4
24242 21
26427 13
30025 4
32159 4
32417 4
32612 4
33235 4
445 12
4253 12
11551 7
14070 12
19645 10
19838 12
22184 12
23259 12
24781 12
26656 12
27420 12
32773 11
33266 12
446 1
1758 1
3434 1
7574 1
8231 1
14103 7
19260 1
21973 1
22915 1
27073 1
27075 1
33876 1
447 4
4366 4
5059 4
7267 4
15248 4
17775 4
18248 4
18678 4
19177 4
20512 4
20922 4
21534 4
28174 4
28488 9
448 17
3078 17
4391 17
7246 17
15268 17
20411 17
27783 27
28607 10
34294 17
449 11
956 11
4330 11
11897 11
12372 11
15589 11
17377 11
29890 11
31187 8
31840 11
33012 11
33792 11
450 25
10100 25
13608 25
14254 4
16435 11
19111 25
20206 25
23770 25
25190 22
25570 25
33425 25
33632 25
15808 9
17339 9
21515 9
21626 9
22233 9
24484 0
27317 9
27459 9
29563 9
31633 9
452 10
5267 10
11495 10
11665 10
15110 10
17821 10
19110 12
20045 10
20306 10
23460 10
23913 10
26697 17
29798 10
30301 10
32168 10
32567 10
453 7
731 7
9500 7
11022 7
12110 7
14751 7
21986 7
22638 1
22747 7
27906 7
34046 7
454 14
1473 14
8521 22
11832 14
14437 14
19476 14
27792 14
455 5
842 5
1558 5
7176 5
15732 37
21013 5
22772 5
28317 5
28706 7
30159 5
33566 5
33946 9
456 2
3391 2
6094 5
17237 2
19570 4
20153 2
20421 2
33739 2
1479 22
2224 22
7519 22
8227 22
12844 4
13583 22
15690 22
18510 21
23231 22
23749 22
29002 22
31456 22
31553 5
31854 22
458 0
2285 0
3015 0
6599 0
9700 0
10901 47
11534 0
20780 0
22001 0
28592 0
29129 5
30344 0
34024 0
33220 16
460 21
5899 21
12485 21
20645 21
21479 21
25787 21
27307 21
27748 21
29939 9
31028 21
33571 21
461 14
1598 14
5182 14
7399 14
12055 14
12363 14
17975 14
23964 14
25229 14
31411 14
32336 14
33334 4
462 8
2331 8
2783 8
10043 8
20889 8
21763 8
23539 8
23677 8
24365 8
26688 8
28081 21
30499 8
31912 8
33826 45
463 9
3342 9
4469 63
14917 9
17958 9
18308 75
23959 9
24835 9
25619 8
25865 9
32146 9
32886 9
464 12
2574 12
3934 12
8501 39
9232 12
11993 13
12638 12
15627 12
20319 12
26424 27
27414 12
28322 12
32006 12
33578 12
34116 12
2762 4
6887 6
8022 4
8562 4
17006 4
20091 27
26507 4
27968 46
29546 4
29783 4
30747 4
34069 4
466 3
1613 3
13345 3
14053 3
14215 17
18301 3
19709 3
22628 3
25008 0
25471 3
26045 3
26358 3
26921 3
467 10
20084 10
24192 10
25761 4
26865 10
29305 10
30353 10
31252 10
32325 10
33718 10
34373 10
34394 45
468 45
7039 45
7763 45
8259 10
8864 45
10490 45
12646 45
14942 45
17103 45
18407 45
24702 45
27264 45
34438 45
469 25
5433 25
11384 25
14295 25
15907 10
27519 25
29491 25
30132 25
31236 25
31859 25
34454 25
470 21
2030 0
7854 3
15524 21
18190 21
20582 21
22540 21
24759 21
28963 21
31033 21
31871 21
32096 21
33550 21
34040 21
471 25
1639 25
8713 25
9854 25
13332 25
13703 25
20552 25
21817 25
24408 25
25768 25
28921 25
31216 4
32466 25
472 27
3072 27
14571 27
16334 27
18966 27
23547 27
25155 27
27044 27
27201 27
31522 13
32885 27
33393 27
33891 27
34030 27
473 21
11198 36
13551 21
14032 21
15855 21
20158 21
21246 21
27205 21
29619 5
29812 21
33034 7
34419 21
474 17
2597 17
5742 17
14269 12
19826 17
22859 17
23798 17
26693 17
29314 17
29604 17
31886 11
33188 17
475 21
4341 21
4985 21
6708 7
7568 17
8012 21
20847 21
21480 21
21863 21
22470 21
24934 21
25066 21
25174 21
25367 21
28377 21
476 36
978 36
1755 36
2921 36
6439 36
19718 36
21079 36
27136 36
27316 36
29452 10
29695 33
31388 36
34055 36
34327 15
748 9
4380 9
7510 9
9767 9
11603 9
15193 9
20185 9
22542 9
25842 9
28593 9
28940 9
29764 48
33454 9
478 9
1437 9
2763 9
7433 9
15724 9
16293 9
16491 9
17462 9
20472 9
24543 9
30180 21
30230 9
31416 15
32211 9
32836 11
34448 9
479 36
1685 36
3615 36
12850 36
18511 36
21018 36
22660 36
22924 36
23374 11
28703 36
30601 36
30632 4
34082 36
480 64
3266 64
5235 64
6071 64
8157 64
14383 64
17105 64
20629 64
20648 64
23007 64
25082 64
25854 15
27359 64
28894 64
29425 64
30326 64
34199 8
4349 18
5538 18
12680 18
18377 18
19449 18
20314 0
20589 18
26960 18
30220 18
31824 18
32442 17
33112 18
2140 4
5627 4
7661 1
7746 4
13020 4
20679 4
23769 4
25074 48
27900 39
27953 4
30756 4
483 15
2878 15
5127 15
21145 15
21464 15
22489 15
26079 15
28780 15
30304 9
30638 15
32078 15
32277 15
484 21
5632 21
6664 21
7986 21
13867 21
15845 21
18058 21
18948 21
20929 21
21650 21
22557 21
23108 17
23346 48
30070 21
30318 21
32538 21
485 8
5888 8
8787 8
9891 8
12441 8
14769 8
18154 0
28038 22
29286 8
31534 8
31709 36
32698 8
486 35
2556 35
2774 35
3491 35
8120 35
9108 35
17556 16
20598 10
22586 35
24093 35
28806 14
28864 35
31615 35
31672 35
31715 35
33584 35
487 20
8843 4
11791 20
19952 20
20165 20
21825 20
22574 20
26529 20
33422 20
488 4
4095 7
22183 4
22729 4
23773 4
25100 4
29270 4
31043 4
31488 4
31641 4
489 21
2754 21
8583 21
12563 21
12962 0
18105 21
27898 21
30615 21
31794 21
33347 21
33510 21
490 4
2933 4
7815 4
7951 4
10924 4
15905 8
16108 4
21671 4
21712 4
25500 4
31723 4
32355 4
33129 4
33773 5
491 27
2325 27
13060 27
14192 27
16233 27
18573 27
18635 27
23870 4
26873 27
29208 10
29797 27
31434 27
31510 27
31954 27
33332 11
492 4
1605 4
13815 4
22442 4
24676 4
26088 4
28376 4
29502 10
31161 18
33839 4
5645 17
9269 17
9356 17
13180 17
17612 17
18479 17
20719 17
25421 4
30044 17
30240 7
32172 17
33440 9
11723 10
495 64
2091 12
11657 4
12078 64
12143 64
16761 64
17823 64
21418 64
22156 64
26282 5
28436 64
29653 64
31581 64
496 50
2970 50
4646 50
10250 50
15078 50
16992 50
27881 50
28140 50
33075 50
33660 22
33818 50
34088 50
497 9
1250 9
2549 9
2588 0
5096 9
12244 9
20611 9
22380 9
30978 9
31280 9
33206 9
34183 17
34203 9
498 22
708 22
11452 22
13967 22
17391 22
19098 22
19971 22
24437 22
27049 24
30530 22
31402 9
31545 22
32254 22
499 52
5481 52
12391 52
17137 52
19994 52
24085 52
26213 52
26896 52
29052 52
31120 4
31541 52
33491 36
500 14
14776 25
18975 14
22718 14
24353 14
24370 8
24371 14
25706 14
26544 14
30901 27
31993 14
501 11
5412 35
7642 11
8246 11
14952 11
25152 22
25611 11
28452 11
29165 11
32118 11
32730 11
502 37
7296 37
7552 37
9031 37
9403 17
10546 37
10583 37
13762 37
14408 37
14590 37
15497 37
19179 37
19592 37
27087 0
27301 37
31232 37
1369 0
2441 0
7157 0
7991 0
9905 0
13431 27
16961 0
19205 0
32737 0
33686 0
34458 0
1439 13
1664 13
16027 13
21069 13
21314 13
21503 46
21754 13
24252 13
25460 13
25473 13
27104 6
31097 13
31923 13
32298 13
505 27
759 27
6627 27
11627 27
21588 27
23170 27
25388 27
26924 27
27685 27
28053 27
28819 27
28903 27
33379 5
8528 4
14097 4
19261 4
20328 4
21752 4
25091 4
25836 4
26107 4
28713 15
507 1
4423 1
4471 1
4744 1
6234 46
6907 1
15375 1
15580 1
15999 1
19007 11
22408 1
23944 1
24561 1
32761 1
32807 1
34489 1
508 5
6497 5
11053 7
13352 5
15900 36
19473 5
19517 5
22002 55
28390 5
31286 5
33519 5
34280 5
509 5
7766 5
8223 5
14394 5
15328 5
20490 5
21587 5
29498 5
31058 5
32729 4
32832 5
33450 49
33993 5
1238 15
6789 15
9097 15
12641 11
12940 15
21024 15
24902 15
27712 15
31495 15
31994 15
511 27
608 27
3304 27
5365 27
7885 27
10302 27
13309 27
13343 27
20097 27
23880 22
25196 27
30489 27
30975 27
33330 27
512 9
2012 9
2694 7
14349 9
17173 9
17442 9
17590 7
18554 9
18824 9
28944 9
34369 9
513 25
3283 25
4866 12
6505 25
7792 25
13576 25
14315 33
16680 25
24219 25
25493 25
27064 25
29612 25
30796 25
31051 25
514 65
11200 65
14038 65
20111 65
20627 65
23479 65
26272 65
29028 65
31241 65
515 1
9369 50
12863 1
14633 1
17666 1
20915 1
21220 9
22140 1
22679 1
25825 1
28202 1
28738 1
29096 1
32523 1
516 21
5124 21
10067 21
12163 21
12282 21
15827 21
18637 21
19815 21
20468 21
21854 12
23885 21
26532 21
32219 21
32941 3
8931 4
9808 4
11029 4
11249 14
15459 4
17148 4
18449 12
20142 4
30800 4
32788 4
34341 4
518 5
3681 5
11914 5
13229 5
18027 5
21980 15
23134 27
23871 5
28694 5
31687 5
32318 5
32545 5
33051 5
33149 5
8925 5
9445 5
10262 5
14224 22
16766 21
17010 5
22861 5
24482 5
24634 5
34061 5
34388 5
520 27
3100 27
11953 0
12631 27
14484 27
17433 27
18147 27
24373 27
26466 27
31588 27
33384 21
34281 27
521 66
4851 10
9478 66
17057 66
18451 66
19044 66
21681 66
23456 66
24169 66
28595 66
31318 66
33497 9
522 0
1505 0
3994 0
5139 0
7804 0
9339 0
13482 0
15085 0
15718 0
21718 0
22477 0
23353 0
23430 14
25612 0
32095 0
34221 12
523 45
2793 7
3052 45
3232 45
4444 45
5275 45
11887 45
15168 45
24052 10
27211 45
30244 45
32519 17
32899 45
524 12
1814 12
3927 12
11526 25
13483 12
17491 12
19713 6
22460 12
23163 12
28803 12
30750 12
30770 12
525 4
1702 4
9459 4
9755 4
9925 4
13268 4
13469 4
28180 12
30192 4
30302 4
526 18
7123 18
7430 18
14241 18
16043 18
16352 18
19694 18
21011 18
26709 18
32017 20
33968 18
527 7
4287 7
8289 7
9303 17
15195 12
15669 7
20020 7
22987 7
27822 7
30264 7
30462 7
32529 7
33587 5
528 42
1953 42
3648 42
7028 42
9971 42
15828 10
17439 42
19705 21
20010 42
22956 42
26434 42
31245 42
33796 42
34144 42
529 9
11845 9
13005 9
15104 9
20564 9
20617 3
20700 76
22427 9
22826 9
23689 9
33530 10
33691 9
530 39
2188 39
2344 39
3154 39
3944 39
6156 39
14069 37
29390 39
31561 39
32120 39
33056 39
33333 39
33705 39
33871 39
33920 39
4827 8
10451 8
16395 8
21053 8
21762 8
25792 8
26139 22
26908 8
30596 8
31792 8
31983 8
34374 8
532 48
2130 48
7643 48
7988 48
8692 48
10833 48
14184 48
23056 48
25568 8
30898 48
33122 48
33747 48
533 4
3709 5
7776 4
8920 4
15121 4
15687 4
20203 48
23393 4
28434 4
30426 4
32817 4
33136 4
33143 4
534 21
1663 21
7934 21
8272 21
11079 21
18784 21
34001 21
4446 0
5259 0
6688 0
12425 17
14604 0
21496 0
29323 0
30443 0
33085 0
34353 0
536 1
5110 1
5246 1
15325 1
17567 1
22273 1
23694 1
26483 1
28515 1
28679 1
28924 1
30298 0
33681 1
537 6
924 12
1837 6
3203 6
5756 6
5844 16
16198 6
17868 6
19699 6
24025 6
29431 6
30622 6
33865 6
33944 6
34287 6
538 48
1771 48
5023 48
10640 48
13245 48
15210 48
19351 9
24086 48
24990 1
26571 48
32005 48
539 7
5037 21
5553 7
8789 7
9643 7
16985 7
17347 7
20491 7
26247 7
33888 14
540 4
6542 4
6705 4
12879 1
16892 4
21208 4
21744 4
23825 4
24584 4
25384 14
27957 4
541 12
4616 12
6608 12
9287 12
12186 12
13061 12
16372 12
17364 12
22173 12
27216 12
30784 12
31085 12
542 18
808 18
1156 77
2234 18
7577 18
13028 18
15867 18
23148 18
28857 18
29852 18
32106 18
33244 18
34237 18
543 11
1183 11
2969 11
8603 11
9115 7
10939 11
12469 11
16382 11
17510 11
19776 11
20923 11
28424 11
31727 10
32753 11
544 13
1103 12
3034 13
5061 13
6637 13
9468 13
17187 46
19147 13
19404 13
25011 13
26319 13
30994 13
31921 13
32636 13
33617 13
545 3
7797 3
18725 3
21517 3
28623 7
30675 71
32255 3
33923 3
34020 3
546 9
5779 9
12062 9
12169 10
12435 9
17926 9
18304 12
19304 9
24793 9
25971 9
30496 9
32471 9
32601 50
547 4
2543 4
6827 2
6895 4
7122 4
10897 12
13006 4
19436 4
20182 4
26138 4
27415 4
27649 4
29632 4
33676 4
548 10
2813 10
3555 10
7397 4
12564 10
13219 10
14957 10
15848 10
18639 0
27379 10
29445 10
30683 0
33276 10
549 0
5662 1
6011 0
6417 0
9912 0
11142 0
15662 0
17100 50
19980 0
23341 0
29091 0
32638 0
33695 17
15415 5
22364 5
24304 5
27248 16
28380 5
28887 10
29807 5
30722 5
31459 5
31732 5
32379 5
551 13
1576 13
12395 13
17649 12
20246 13
22459 13
24800 13
25107 13
26464 13
27432 13
27763 22
29359 13
29557 13
31409 13
552 5
2158 5
13333 5
15495 5
17585 5
18233 5
18666 22
23787 5
25060 5
31828 5
31888 5
32199 5
33561 5
34468 5
553 5
1674 5
5054 5
8913 8
10727 5
13192 5
18443 5
25576 5
25786 5
27131 5
30693 5
33881 5
554 10
5658 10
7155 10
14822 10
17882 10
18140 10
23382 10
24880 10
25170 10
25294 7
26056 10
27092 7
27447 10
32860 10
555 78
688 78
957 78
1500 78
2128 78
2540 78
2770 78
2994 78
3279 78
4401 78
6483 78
7278 78
8006 78
8285 78
8616 78
24435 21
26977 33
556 55
1847 55
8286 55
11043 55
11667 55
13134 55
16440 55
21229 55
22771 55
23004 55
25469 4
29531 55
33398 55
33712 55
557 10
1203 10
1355 10
2339 10
4385 10
9038 10
14057 9
24719 10
30467 7
30629 10
31011 10
558 21
3969 21
5945 21
6865 1
7831 21
10144 21
17329 21
18174 21
18269 21
18564 21
18818 21
20688 21
21037 21
26482 21
26721 10
559 27
1820 27
4635 27
7851 13
10256 27
13888 27
15810 27
16326 10
28498 39
29294 27
30635 27
33103 27
33675 27
560 47
7935 47
10580 13
16593 47
20032 47
22102 47
23709 47
24534 37
24986 47
25226 47
27077 47
27330 47
28608 47
30099 8
561 8
1079 8
13809 8
13951 8
23277 15
23511 8
23743 8
24002 8
26463 8
28220 8
29706 8
31238 8
33370 8
5585 2
10825 9
15559 2
22821 2
28325 2
33074 2
33441 4
563 6
2084 6
3220 6
6884 6
9149 6
12455 6
12679 12
32121 6
33306 6
564 5
2890 31
4213 5
7894 5
9734 7
15215 5
17573 5
19774 5
21902 5
27453 5
29007 5
29616 5
33690 8
565 8
591 8
2607 8
8950 21
16667 10
18007 8
21427 8
26284 8
26550 8
29335 8
30991 8
34227 8
34391 5
566 22
2436 22
10161 22
11944 22
12908 22
18217 22
19691 21
23337 22
25203 22
31965 0
567 17
7609 17
15440 8
15583 17
18531 17
18796 17
18952 4
21326 17
23625 17
24265 17
29447 17
30651 17
31142 17
31878 17
568 0
2096 36
6376 0
10666 0
12011 0
15642 0
17694 0
20628 37
21328 0
24610 0
31770 0
32535 0
33179 6
33745 0
34076 0
569 17
10481 17
19256 45
19692 17
20500 17
20759 17
24362 17
25146 17
26678 17
27825 17
29599 17
30738 17
33133 17
34117 17
570 17
4563 17
5356 17
6966 7
11609 17
11817 17
16012 17
16054 17
17548 17
18632 15
23015 17
24170 17
24856 17
27962 17
29487 4
33300 17
571 13
1913 13
6003 13
6520 13
6957 13
10975 55
12025 13
23472 13
27295 13
27835 13
29075 22
29269 13
33609 13
572 21
1366 1
4143 21
6444 1
6956 21
11387 21
14532 21
15236 21
16365 21
22154 21
26085 21
29458 21
31653 21
33164 21
573 0
922 0
6580 0
7660 0
9029 56
14973 0
17145 22
27761 0
29393 0
29813 0
34170 36
34317 0
574 4
13084 4
13304 12
16245 5
17792 4
21257 4
22235 4
23188 4
26585 4
28101 4
34149 4
575 13
5683 13
5902 13
15437 13
17374 7
20535 13
21365 54
25820 13
28318 13
32094 13
576 22
4429 22
5953 22
13675 22
14683 22
16030 31
20143 22
21578 22
22893 22
25977 22
26815 22
27537 22
29439 22
30158 22
32509 22
33394 22
577 0
9657 0
9957 21
10558 0
12388 0
13098 0
13193 0
15691 0
25330 0
29253 0
32001 7
32977 0
33028 0
34525 0
578 17
2365 17
3050 17
7243 17
11439 17
17626 17
19041 17
22197 17
26354 17
27473 17
29196 25
31115 17
32111 17
579 27
4191 4
6484 27
7679 27
9598 27
13562 27
18811 27
18951 12
24826 12
25116 27
28183 27
580 36
5887 36
10385 36
11116 36
11553 11
12937 36
14085 36
22032 36
25857 36
28042 36
29166 5
29607 36
33205 36
581 11
13868 11
16651 11
17802 11
20487 11
22805 4
24021 11
26355 11
28422 1
30053 11
30126 11
30896 11
582 50
1949 50
2179 50
3171 50
9956 50
10933 50
13841 50
15493 50
17581 50
22567 10
25620 50
27593 8
32215 12
32564 50
33864 50
1474 11
7963 11
13354 9
13727 11
15507 11
19313 11
19591 11
25513 21
27213 11
584 0
940 0
1445 0
4897 0
7902 0
7918 0
12889 15
13400 4
15074 0
17285 0
21458 0
27467 0
33702 0
585 14
1404 14
10533 37
11269 9
20783 14
21347 14
21606 14
22236 14
27349 14
29183 14
31484 14
2854 14
4021 14
5621 14
5737 14
7808 14
8717 21
17138 14
24909 14
27588 21
30877 14
32316 14
33905 14
9488 8
18653 7
588 4
2824 15
4805 4
12115 4
12742 4
22423 4
24143 14
25859 4
27367 4
28513 0
29160 4
30856 4
33758 4
1395 15
3458 15
8872 15
12140 15
15656 15
17623 15
23612 15
31072 7
31485 15
31837 15
34380 15
590 21
11525 21
13537 21
17236 21
17378 21
19046 21
20429 21
26003 13
29259 21
29299 21
30613 11
33777 21
1878 8
5476 8
6213 8
7268 8
10964 8
16530 8
20122 8
27239 8
31696 8
31984 8
33264 15
592 4
1992 4
2337 4
11949 1
13739 4
19900 4
20853 4
21764 22
29083 4
31752 4
31891 4
32016 4
32192 8
34066 4
593 12
1345 12
8546 13
11135 12
11209 9
11757 12
15962 18
18139 12
20604 12
24685 12
27481 12
29211 12
29483 12
31679 12
33732 12
34014 12
594 3
1015 3
14055 3
14736 35
21528 3
25868 3
25970 3
27964 3
31390 3
32239 3
32771 3
33062 3
595 29
1580 29
9333 29
11408 29
11915 29
13614 29
18089 29
22044 29
24248 29
29975 29
30599 29
33236 29
34003 4
34074 29
34178 29
34289 29
596 4
3671 4
9143 4
14004 0
14294 4
14885 4
16619 4
23070 4
23989 4
29386 4
31703 4
597 5
3622 5
10632 12
11185 5
13398 5
14190 5
17964 5
20602 5
32249 1
32306 5
33432 5
33897 5
33961 5
34102 5
598 9
1964 9
12488 9
21564 9
24803 17
25102 9
25224 9
25661 9
26321 9
27676 9
30734 9
34159 10
599 17
11115 17
12150 17
15929 17
21404 17
21412 17
21544 17
31070 17
31519 17
32015 17
32189 17
600 9
1940 9
2397 21
5165 9
16285 9
17900 9
19758 4
24204 5
26061 9
29506 9
30656 9
31035 9
33637 9
34379 9
601 1
4058 1
15936 1
15944 1
17337 1
20402 1
20475 1
21700 1
21936 1
23306 1
24147 1
24601 1
602 1
879 10
973 1
2711 1
4155 1
8429 1
13812 1
16836 1
18002 1
24654 1
28237 1
29139 1
603 4
4006 4
13486 4
16196 4
19875 4
25370 4
26230 14
29395 4
32451 4
33418 4
33591 27
2206 8
7585 4
9568 8
19186 8
19767 8
23001 8
28568 7
30190 8
30376 8
30828 8
33404 8
605 22
4734 22
5343 22
6307 22
7470 1
10899 6
19082 9
21950 22
22876 22
27847 22
29272 22
30118 22
34037 22
606 21
8222 21
9454 21
10431 21
15349 21
15856 2
21385 21
21685 21
22920 21
23165 4
24297 21
30382 21
607 21
1370 21
7081 21
7832 21
7857 15
10077 21
14201 21
19672 21
21494 21
23442 21
26576 9
28219 11
30355 21
31570 21
3343 27
4072 27
4850 27
6814 59
6955 27
8567 27
16408 27
22936 27
26335 27
29191 27
34244 27
609 4
1728 4
5705 4
6817 4
9848 9
15666 4
20670 4
21868 4
32681 4
610 7
9545 7
15169 7
15801 45
16679 7
20426 7
27625 7
28996 4
29000 7
30437 7
611 61
2589 61
13043 18
15099 61
18901 61
26580 61
612 14
1941 13
7060 14
7490 15
17425 14
20741 14
21461 21
24221 14
31351 14
32174 14
33932 14
613 8
5576 8
10677 8
16079 8
21212 8
22995 8
23145 8
26650 17
28213 8
30879 8
32767 8
32816 8
33930 27
614 7
1253 7
2129 7
12988 7
14120 7
14641 7
15371 4
20031 7
26789 7
29740 7
31577 7
615 4
10559 4
23055 15
31783 4
32948 14
33567 4
33788 4
616 50
13788 50
14929 50
16942 50
18250 50
21877 50
22277 50
23050 50
24622 8
27585 50
617 4
8564 4
13630 4
14046 4
14513 4
18783 4
19728 4
22835 4
24621 4
27339 4
27410 11
31082 4
31701 4
32097 46
5911 10
11039 10
11311 10
11420 10
11739 10
13840 10
14848 10
15788 12
15829 10
25416 10
34356 10
619 4
2637 4
7824 4
15880 1
15986 4
19302 4
20103 4
22701 4
27052 4
31365 4
33971 4
4105 5
4858 5
11100 5
11282 21
13854 5
17202 5
17627 5
19063 5
20653 5
25553 5
26414 5
30205 5
621 17
1593 17
4474 17
4999 79
7596 17
11689 17
14672 17
16033 17
21476 17
23105 17
26444 12
26651 17
30027 17
31989 17
32777 17
622 36
8669 36
9350 36
9547 36
9773 36
10763 15
15029 36
15773 36
23957 5
26673 36
30248 36
623 21
6401 21
10412 21
14172 21
15822 10
16753 21
23753 21
24704 21
24766 21
26006 21
31034 0
32639 21
624 46
5854 46
8974 46
10869 2
11872 46
11952 46
14344 46
16409 46
23336 46
25432 46
27619 46
28036 0
30502 46
34129 46
625 0
3677 0
4811 0
5207 0
15826 0
17480 0
18218 0
21715 0
22629 0
23012 52
23454 0
25480 0
26457 0
32622 0
626 17
3471 17
6294 17
7451 17
9573 17
11411 17
13372 17
15498 17
17568 17
24890 76
34165 17
627 15
1161 15
3823 15
10193 15
14514 15
16172 15
25409 15
27820 15
27837 15
27914 15
29420 15
29630 15
29858 15
31559 11
25525 12
29266 4
629 17
9164 17
10920 17
13526 10
14853 1
15331 11
16551 17
18865 17
19870 17
25265 17
29627 17
29896 17
32414 17
34297 17
630 15
7616 0
8559 15
12222 15
14111 15
18537 15
19355 15
20271 15
21901 15
24186 8
32956 15
33431 15
631 36
1198 36
1334 55
3818 36
4160 12
5596 36
14525 36
17073 36
21054 36
30317 36
632 71
841 71
6494 71
6871 71
20370 71
20713 71
22106 71
22305 71
22493 71
28946 71
32223 71
32871 71
33958 71
34147 71
34160 71
3114 9
6625 16
10495 15
10871 9
12849 9
20380 9
24217 9
26227 9
26790 9
27637 9
30464 9
31668 9
4524 13
7301 13
9679 13
14060 13
16075 13
18337 13
21870 13
30419 15
32395 13
33576 4
1747 31
7447 31
9256 10
10203 31
16643 31
23606 31
24276 31
25128 31
32232 31
32516 31
4245 14
4445 14
11522 8
14970 14
16881 7
22499 14
24455 14
26941 14
28346 14
30759 14
31547 14
637 5
6648 5
7755 5
9458 7
10009 5
14999 36
16180 5
17191 5
17388 5
21279 10
24049 5
24210 5
32494 5
33470 5
638 46
936 46
5938 46
8604 46
12118 46
12385 46
21198 46
23409 15
24950 46
30243 17
32147 46
32261 46
32663 46
33957 15
639 10
3084 10
3351 10
8200 10
10971 10
13591 10
17295 10
26531 10
27880 10
29459 10
32009 10
32313 10
33907 10
640 4
2085 4
2160 4
14247 9
16851 4
17805 4
18099 4
21598 4
22245 4
27446 4
27988 4
28551 12
641 9
9411 9
12760 9
16748 9
16770 9
19078 9
20973 9
27293 9
27875 9
31048 9
32686 9
33602 9
34255 11
34409 9
7932 11
8707 11
11044 11
16991 26
18553 11
20047 11
25021 11
25913 11
26959 11
30650 11
643 7
9113 7
16880 7
20684 17
20835 7
22694 7
23193 7
24874 7
28290 4
31919 7
33573 7
644 7
1325 7
5607 8
7703 7
14565 7
17928 7
27651 7
29915 7
31137 7
31772 7
31862 7
32037 7
645 22
8584 22
8847 22
22168 22
22765 65
23099 22
25664 22
28117 22
28309 22
28677 22
30808 22
31002 22
33487 22
646 4
3576 4
8380 4
8828 4
9358 8
11896 4
13552 4
14463 4
16560 4
16959 4
20414 4
22099 4
33189 4
647 18
3516 18
8149 18
9523 18
10659 18
11002 18
14673 18
17757 18
17810 18
32197 1
32946 18
33080 18
33101 18
648 22
4732 8
10858 22
14272 22
15259 22
17139 22
18166 22
18299 27
23613 22
27970 22
28348 22
28914 22
29882 22
31420 22
31632 22
31852 22
7769 15
16367 0
20583 0
20775 0
27985 0
29758 0
33408 0
650 11
6437 11
11297 11
12861 11
17541 22
20296 11
21940 11
24624 15
25882 11
26035 11
30363 11
32790 10
33541 11
651 50
2636 50
6133 50
10225 50
15844 50
20312 50
25817 50
33521 22
652 10
7128 10
7540 10
10938 10
13931 1
16632 10
24952 10
29033 10
30804 3
33155 10
33824 10
653 39
5104 6
7381 39
15619 39
22891 39
24566 39
26999 39
27580 39
29140 39
30597 1
30731 39
34072 39
654 4
2040 4
4039 4
7720 4
11028 4
13179 4
15660 4
18927 4
21442 4
22955 12
33838 4
655 12
2584 12
3144 12
4126 12
5948 1
12436 12
15047 12
20757 12
24161 12
26089 12
26897 12
30152 12
656 2
6120 2
6915 2
10914 2
11364 2
16290 21
21546 2
27375 2
27807 2
29534 2
30100 2
30746 5
657 12
11166 12
12583 12
13652 0
21808 12
25895 12
27966 12
30060 12
30548 12
31089 12
33546 12
33678 12
658 2
1513 2
2732 4
5762 2
9686 2
24713 76
25715 2
25969 2
30135 2
33248 2
34291 9
659 36
6193 1
11357 36
16227 36
16493 8
20568 36
22464 36
25810 36
29111 36
29492 12
31045 36
31868 36
32697 36
660 12
799 12
2842 12
3689 6
13107 12
13753 12
14546 12
19371 12
22403 12
26205 12
28791 12
28939 12
34167 12
661 45
5863 45
7202 45
11630 45
21195 45
21285 45
25193 45
26217 45
30712 45
662 25
2051 8
11859 25
11955 15
13554 25
21907 25
27639 37
32978 25
33201 25
33352 25
33522 25
663 36
3586 36
24915 36
26005 36
27579 36
30026 10
31084 36
32077 36
33032 11
17942 6
21207 17
665 1
3081 5
5652 1
7443 1
9476 1
19662 1
22238 1
22243 1
27895 1
31104 21
31276 1
32072 1
666 25
780 25
2212 22
8728 25
11899 25
18945 25
23840 25
27724 25
27854 25
30843 25
30907 25
667 12
10345 12
13834 12
14605 12
16897 12
20959 4
22217 71
24250 12
27242 12
27656 12
28123 12
30129 12
668 0
8069 46
8581 0
10065 0
11485 0
15154 0
18317 0
20862 14
24285 0
27491 0
29021 0
30330 0
34023 7
669 11
4680 11
8278 9
9191 11
15408 11
21913 11
28328 11
30836 11
30984 16
31710 11
33285 11
34377 11
670 4
1415 4
5739 4
5968 4
6326 4
6843 4
14805 4
16261 4
17780 15
20561 4
21353 4
23680 4
30421 4
31094 4
33484 4
671 7
2199 7
8359 7
15468 7
16960 7
26713 39
27699 7
33061 22
672 31
3009 31
11218 31
17434 22
17984 31
19369 31
27026 31
30224 56
31472 8
31798 31
673 37
4116 37
7040 37
10937 37
16195 37
19819 37
20420 37
22137 37
24087 37
25044 22
27079 2
27235 37
28585 37
674 8
6290 8
10163 8
13110 7
19990 8
26031 16
27709 8
28557 8
32908 8
33100 8
675 15
5782 15
13873 15
17348 15
19683 15
20037 15
20543 15
30256 15
30279 15
31208 21
31431 4
34219 15
676 10
2064 10
3903 10
6265 10
7192 10
14586 7
26262 10
30413 10
31348 10
32795 10
33802 10
677 9
1387 9
2231 9
7716 55
8160 21
13105 7
15409 9
18521 9
21008 9
21137 9
32505 9
33151 9
33504 9
33884 9
34205 9
678 1
2799 1
15648 1
16678 1
17691 1
21785 4
25686 1
25864 1
28195 1
28399 1
31718 1
32422 1
15306 6
17376 6
21308 6
25127 6
26329 6
29804 6
31974 6
34016 6
34263 6
4697 4
8595 9
11089 9
11149 9
12230 9
17272 9
21214 2
26687 9
26872 9
31371 9
32082 8
32625 9
681 14
6672 14
9262 14
21483 14
27417 14
28975 12
29621 14
30226 14
682 8
8550 8
11819 8
14931 8
15796 8
21325 8
22210 8
30429 9
31558 8
33659 8
34141 8
683 5
7250 5
10860 5
15160 24
18830 5
25157 5
25625 5
26041 3
27983 5
30510 5
32987 5
33733 5
684 58
3289 58
6746 58
11546 58
18162 58
18480 27
20021 58
21098 58
21116 58
23249 58
27758 58
27886 58
29273 58
30961 58
685 11
4424 11
18609 11
22478 11
27027 11
27294 21
27543 11
29501 11
30378 11
33107 11
686 17
1476 17
2003 12
3767 17
18259 17
20644 17
25243 17
26675 17
26885 10
30838 17
32566 17
32649 17
34224 17
687 10
1082 10
6012 10
6983 10
18608 10
18722 10
21484 10
24414 39
29245 10
30189 10
31274 10
27083 7
689 1
1392 1
3000 1
8324 1
13649 1
19030 1
20590 1
21551 1
25831 1
27416 1
30672 1
32433 31
690 33
15106 5
19777 33
25412 33
26173 4
27836 33
30882 33
32965 33
33978 33
691 21
2658 21
7032 21
7053 5
10124 21
10542 21
15778 21
21295 21
26157 15
29869 10
29956 21
31448 21
31563 21
692 12
1072 12
2475 12
8739 12
13830 12
20352 12
23514 12
30338 12
33005 12
33547 10
2028 22
6280 22
11898 22
14772 4
15148 22
16450 22
22041 13
24954 22
25832 10
25999 22
26518 22
30773 22
694 7
702 7
11110 7
11692 7
12283 7
14764 7
21182 7
22938 7
23481 7
27325 66
30478 7
30758 21
33065 4
695 37
1958 5
4694 37
7693 37
9346 37
12511 37
14007 37
16542 37
21843 37
22663 37
29109 37
30088 4
32527 37
696 4
1582 4
1960 4
3056 8
4826 4
5070 4
7187 4
18125 4
22960 4
23624 4
29926 10
30139 4
30868 4
697 9
1412 9
6081 9
15107 9
20745 68
22136 9
23381 9
25165 9
26383 9
27039 9
32999 9
34303 9
34507 4
698 80
1408 80
1819 80
1899 80
3038 80
3115 80
3545 80
3935 80
4375 80
5026 80
6976 80
8028 80
8250 80
9248 80
15683 4
29032 21
699 33
933 33
3046 15
18968 33
21359 33
22390 37
30345 33
32333 33
32679 33
700 16
4843 16
9754 16
14706 16
15931 16
16192 16
17032 16
17090 21
19977 16
22619 16
24331 16
25010 37
25719 16
31873 4
34338 16
34350 16
34434 16
701 5
1701 5
5864 5
6918 11
15450 5
20442 5
23695 0
25085 5
28421 5
29805 12
32699 5
32796 5
3653 7
4323 7
10701 7
15763 7
20857 8
28915 7
28993 7
32898 7
703 0
3389 0
9874 7
11033 0
14125 0
16095 0
19270 0
19337 4
23293 0
26668 0
27710 0
32746 0
32998 0
34401 0
704 1
3148 1
7385 1
9964 1
10091 1
13587 10
22043 1
26661 1
26835 1
705 37
3856 37
4773 37
10584 37
11843 4
14160 37
16250 37
19647 10
19858 37
20063 37
21102 37
25927 37
32579 37
706 15
5845 15
13823 15
13922 15
19115 15
22190 15
23636 11
24736 15
25390 15
30366 15
32376 14
33505 15
34292 15
707 81
2631 81
4497 81
4953 36
5336 81
5733 81
6258 81
7001 81
8288 81
8833 81
8946 81
8973 81
9873 81
10800 81
12447 15
12544 81
12966 81
10154 22
10200 22
10279 14
19942 22
25833 22
30031 22
32606 22
709 15
7917 15
9729 15
12820 15
13807 0
17291 15
21318 15
22777 15
27621 15
28014 22
28881 15
31973 15
32924 15
710 35
13215 35
19701 4
20232 35
21904 35
22094 35
30083 35
31586 35
32270 35
33040 35
33406 15
711 15
6225 15
6603 0
16901 15
19783 15
23251 7
23883 15
29093 16
712 11
966 48
1762 11
5316 11
5469 10
7041 11
10954 11
15791 11
19580 11
21389 11
22353 11
26123 11
28116 11
28440 11
29476 11
29883 11
713 46
2725 46
4067 11
4575 46
14127 46
15228 46
21280 46
22240 46
22830 46
26593 46
30325 46
30505 46
34179 9
714 10
5878 10
6680 10
10090 10
12883 10
21613 10
22021 10
23662 10
23806 9
31309 10
31721 10
715 48
1690 48
9039 3
11173 48
11181 48
13627 37
17512 48
18017 48
18920 48
20795 48
23640 48
31486 48
32377 48
32891 48
716 25
3014 25
9236 25
9583 25
14471 25
26366 4
27099 25
27135 25
28662 25
32659 25
34311 5
717 21
1770 21
14382 21
19813 21
26777 21
32844 5
33724 21
33969 21
718 14
6046 14
7730 14
14477 14
20080 14
20141 14
21434 14
28121 14
31183 21
31375 14
31399 25
719 39
1535 39
6309 4
12897 39
13143 39
14963 39
20478 39
20751 39
29065 39
33368 39
33433 8
720 12
6184 12
6771 12
13872 12
16502 12
17724 12
17944 12
20517 12
26292 12
27238 12
30296 2
31210 21
32584 12
34270 12
721 37
1978 37
4202 37
6543 37
8995 52
12768 37
21409 37
26312 37
26569 37
26708 37
31800 37
32366 37
722 46
1357 46
1875 46
2157 46
2512 46
6537 46
9284 46
9558 73
20536 46
24402 4
26062 46
26391 46
27358 46
31901 46
723 82
6605 82
8134 82
8444 82
11501 15
14079 82
15569 82
15787 82
18198 82
22593 82
24449 82
26843 82
27461 82
27507 82
27734 82
27780 8
724 4
5373 4
13730 4
18584 4
26955 4
27404 4
28269 4
32440 4
32952 4
32983 4
725 11
8902 11
11373 11
12296 11
14009 11
17884 11
18860 11
22250 9
24659 11
24805 11
29958 0
32734 11
726 49
5114 49
6190 49
9932 22
20829 49
21399 49
22506 49
25562 49
26562 49
27542 49
30951 49
31683 49
32609 49
727 18
5505 18
13701 18
14945 18
28986 18
30081 18
32957 18
33410 18
34204 18
34310 18
1845 10
5668 10
22898 0
26433 10
29888 10
31597 10
31815 10
34249 6
34447 10
729 7
4969 7
5123 7
7407 7
7682 27
15570 7
15571 7
17424 7
21529 7
23344 7
24920 15
24942 7
29162 7
730 41
2477 41
7778 41
12426 41
21595 41
24960 41
25260 41
30670 41
31729 41
5625 7
8678 7
12328 7
13850 7
15585 7
17265 7
20993 24
25921 7
26681 9
732 27
4614 27
11710 2
16904 27
19398 27
19919 27
21231 27
23466 8
29605 58
32166 27
32888 27
733 2
2052 2
4561 2
4684 2
4949 2
10522 83
11314 2
12903 2
13455 2
14534 2
20159 2
24955 2
25166 2
734 8
5119 8
6812 8
7931 8
11852 4
20005 14
22528 8
25048 8
27025 8
31981 8
34084 8
34184 8
735 50
4228 50
5425 9
7646 50
10675 4
12490 50
12866 50
15684 50
16537 50
18936 50
19077 50
22969 50
23690 50
25622 50
30813 50
736 4
8336 4
10149 4
15838 4
17343 4
17911 4
18703 4
23461 4
24031 4
26058 4
28313 4
29818 6
10227 27
14693 11
16057 11
16374 11
16886 11
23890 11
27007 11
29406 11
33805 11
34425 11
2778 11
7154 37
15578 15
24926 15
26545 15
27556 15
28727 14
31159 15
32386 15
34387 15
10931 25
12061 25
18981 42
19019 25
19348 25
28565 25
30782 25
31813 15
740 1
7364 1
9493 1
9780 1
10107 13
14991 46
16987 1
20454 1
23106 1
25871 1
26782 1
29221 1
29745 1
33672 1
741 67
5295 67
11386 67
14782 67
24106 2
24356 67
742 4
7838 4
8749 4
24528 4
24931 4
26589 4
28757 10
30287 14
30720 4
33011 4
743 7
8311 4
9678 7
11729 7
18671 7
21216 7
21982 15
27520 7
29637 7
30303 7
30402 7
33455 7
744 10
11451 10
15422 10
15703 10
17836 4
18369 24
21865 21
25466 10
33982 10
34315 10
745 17
2082 17
6935 17
10969 17
15289 22
18753 17
26701 17
27196 17
28899 17
29532 17
33209 17
33646 17
34085 17
746 29
2759 29
3710 29
11127 9
11775 29
12176 29
29497 29
30676 29
747 9
5069 9
15984 9
18900 9
20659 9
25444 9
26980 9
27199 9
32136 9
33240 6
34247 12
801 9
3332 9
3613 6
5676 9
6881 9
11459 9
24116 9
25899 9
27093 9
30646 9
32920 9
32996 9
749 7
1149 7
5814 27
13569 7
17197 38
19461 10
23008 7
24548 7
25615 7
30358 7
32342 7
750 33
9285 33
11589 33
17147 33
17947 33
21174 33
22689 33
32968 33
32975 8
751 7
4565 7
9909 7
19651 7
24237 7
29484 7
29966 8
30886 5
31771 7
33765 7
752 1
1315 1
8563 1
9160 1
10118 1
18399 1
20217 1
22125 1
27175 1
28845 8
29222 1
29499 1
29544 1
30198 1
31303 1
753 8
3820 8
4430 8
6007 8
18849 8
19827 7
20360 8
25781 8
26048 8
26223 8
30917 8
33407 8
754 15
2810 15
3919 15
4720 15
6438 15
13082 15
16838 15
30034 15
30621 15
31920 8
32803 15
755 9
1737 9
5363 84
7659 9
12123 9
13379 9
13521 9
16599 9
22123 0
26634 9
756 4
874 54
1717 4
6504 14
19463 4
19499 12
22716 4
22833 4
22901 4
24354 4
29387 4
31064 4
33520 4
757 15
3883 15
10177 9
10319 15
14485 15
18456 15
18976 15
18987 15
22744 15
23248 17
28768 15
30561 15
30996 5
33741 15
758 21
10265 21
18526 21
18761 21
19202 21
20464 21
20482 12
26271 21
30814 21
888 27
6693 27
11719 27
14075 27
16633 27
28970 15
29448 9
30227 27
30472 27
31185 27
32848 14
33952 27
760 12
6098 12
6692 12
11431 12
12661 27
15124 17
19848 12
19849 12
20875 12
21831 12
22221 12
22640 12
22968 12
25582 12
31480 4
33918 12
34091 12
761 85
7768 85
11323 85
11580 85
14290 85
15122 85
16591 85
17451 85
20023 85
20641 85
20881 12
21639 85
24824 85
26951 85
27645 85
32981 9
762 0
5482 13
7846 0
8054 0
9296 22
9540 0
20805 0
28104 0
29307 0
30550 0
33973 0
763 42
1930 42
4545 42
21879 25
23815 7
24682 42
25219 42
28466 42
31266 42
32225 42
33493 42
764 11
3163 11
6051 11
13322 11
14677 11
21572 11
24693 11
25972 11
26268 11
27922 11
30678 11
32354 4
765 15
993 15
5641 15
8711 6
14166 15
14182 15
18964 15
29658 4
766 17
6528 55
8906 17
10311 17
18649 17
26969 17
28026 17
29572 0
29988 17
30665 17
767 25
4593 25
9162 25
10057 25
12732 21
13620 25
14997 25
18587 31
19950 25
22582 25
28980 14
29701 25
6308 21
7673 16
12486 21
13705 21
15202 21
22508 21
30289 21
30703 21
31793 21
769 3
3310 86
5687 3
6450 3
13164 3
13499 11
14251 3
14472 3
17735 3
22274 18
26639 3
26868 3
30346 3
31698 3
770 11
14556 11
20820 11
23418 11
27918 11
29738 11
771 16
2302 16
7116 4
7347 16
10556 16
18700 16
20195 16
27173 16
31656 16
33360 10
34156 16
772 21
1974 42
3071 21
4690 21
6212 21
11324 21
20365 21
23276 21
27702 21
30606 21
33436 21
773 14
2086 14
3424 14
10500 8
12082 14
14705 14
16213 14
17537 4
26225 14
27157 14
28451 14
29250 14
31952 14
33042 14
774 9
7428 9
12481 9
13699 9
16639 9
19944 9
22118 9
22466 9
31515 9
32272 9
32283 9
775 8
5764 8
11888 4
14255 8
17562 14
18574 8
19152 8
19435 8
22059 8
22607 8
33902 8
776 27
904 27
1527 10
3316 27
9042 27
17699 27
20486 27
24269 27
27548 27
30343 27
30933 27
30972 21
32851 27
34028 27
777 4
5540 39
6333 4
10704 4
11078 4
17546 4
21713 8
25731 4
26051 4
28850 4
30798 4
778 10
3858 10
5849 10
7942 10
12831 10
15291 10
20537 10
21152 10
26848 10
32305 10
32616 10
779 22
3092 22
3599 22
3822 22
10341 22
16965 22
19948 22
28314 22
29868 11
30125 22
31466 7
32896 22
34455 22
7297 25
10160 25
11463 25
12063 27
12171 25
23972 25
24298 25
28003 25
30364 25
30566 25
33265 25
33376 25
781 21
2587 21
5660 21
9652 21
16063 21
17744 21
21336 7
21570 21
24141 21
27251 21
27475 4
31116 21
32256 21
34007 21
782 0
16726 0
17663 0
18910 0
22264 29
28130 12
28754 0
30863 0
33289 0
34265 0
783 12
1164 12
6299 12
11393 12
12437 12
14435 12
15113 12
16194 12
25068 12
29215 12
30047 17
30371 12
784 12
5985 12
6513 12
11195 37
24454 12
24630 12
25902 12
28690 12
30372 22
31614 12
33767 12
785 22
5842 22
7908 22
13222 22
15206 22
30730 22
30930 22
33427 22
786 27
6911 27
15041 27
16421 27
19279 27
23655 27
29766 27
30106 27
31663 13
32290 27
32571 27
33216 27
787 17
912 17
1907 17
9858 17
16477 17
20968 17
22028 17
23875 56
27283 17
31538 17
33827 17
788 17
3548 8
11194 17
15722 17
17275 17
20921 17
22552 17
23116 17
25850 17
26895 17
28896 17
28902 4
32141 17
33975 17
789 17
5548 17
7785 17
10114 21
13002 17
15994 17
18890 17
19451 17
22078 17
26564 17
32130 17
790 10
1612 10
5801 10
6711 10
7459 10
13123 10
16072 10
19367 12
21278 10
22714 10
25255 10
30788 10
32719 10
34127 10
791 6
3079 6
4458 6
6533 6
12233 6
14134 6
14506 6
22931 6
23077 12
23362 6
29212 6
31619 6
33472 8
792 71
1881 71
4470 71
11263 71
12964 71
14522 9
15489 71
15835 71
23030 71
25878 71
27745 71
28880 71
30237 71
30324 12
30767 71
32236 71
793 18
2434 18
7416 18
7514 18
8695 21
19956 18
21481 18
33797 18
34240 18
794 13
1645 13
12762 13
13914 13
16661 13
21233 4
29931 27
30482 13
31124 13
31410 13
33448 13
795 10
9133 10
11468 10
12627 10
15731 10
20599 10
23790 18
33537 10
34246 10
796 7
2765 7
3329 7
6260 7
15359 71
24897 7
24903 7
27015 7
29128 7
33127 7
797 1
8099 1
9352 1
15312 1
16381 1
19273 1
20277 1
30806 1
33259 1
798 26
1731 26
11257 26
16715 26
20804 26
21989 26
23349 10
26072 26
30921 14
32619 47
5205 12
6927 12
11140 12
16507 12
21997 12
22260 12
23716 12
31774 12
32822 9
800 4
1785 4
2683 0
5053 4
9263 4
9987 4
12465 4
16457 4
23312 4
32322 4
34284 4
2408 9
3623 9
12047 9
12847 9
14387 9
16916 9
18692 9
19446 9
21319 9
21582 10
31298 9
31786 5
802 15
952 15
2466 15
7993 15
16821 15
17352 15
18797 15
25517 15
28267 15
803 46
3298 46
4025 46
5438 46
5735 46
11017 46
11849 46
13321 46
15387 46
17353 46
25623 46
31024 12
32002 46
32410 46
804 0
4760 36
5116 0
11175 0
11581 0
11874 0
12153 0
17670 0
17717 2
20161 0
20244 0
25211 46
27947 0
31041 0
32099 0
805 7
3978 24
4247 7
7959 7
13592 7
18767 7
21407 7
24541 7
25140 7
33929 21
806 0
2579 0
3353 4
3502 0
7392 0
7890 0
12331 0
16151 10
18187 0
19749 0
20313 0
24174 17
27324 0
30537 0
807 0
7325 0
11355 0
12528 0
13403 10
14145 0
16401 0
19841 0
20830 22
23377 0
26078 0
27878 0
31016 0
31400 7
32864 0
2255 17
19008 18
23532 18
25131 18
27010 18
27662 18
31585 18
809 10
3914 87
8709 10
15831 4
17536 10
22985 10
23737 10
30948 10
33182 10
810 74
1635 74
811 6
4864 15
8142 6
10092 6
14175 6
15424 6
15490 6
16150 6
16760 6
17316 6
21634 6
27182 6
32483 6
33308 25
812 9
6810 9
9001 9
11471 9
12320 9
13820 9
14439 1
19757 9
21175 9
23027 9
27284 9
30052 8
31814 9
32165 9
32353 10
813 17
3640 17
6219 17
6877 17
7750 17
9677 17
17080 17
22803 17
24703 17
24949 17
25506 17
31099 17
31277 17
814 1
3089 2
5979 1
7469 1
31144 1
31250 1
32547 1
32879 1
34104 1
5475 21
8437 0
11343 21
22977 21
26543 21
28272 21
30583 21
30842 21
30966 21
816 0
5792 7
6830 0
8066 0
12577 0
14995 0
15063 0
18356 4
19537 9
27116 0
817 9
1920 9
16005 9
16107 12
17705 9
18189 10
21504 9
22686 9
26510 9
29517 9
818 4
7370 4
7600 50
17966 4
20320 4
20509 4
27512 4
27597 4
30305 10
33163 4
33586 4
34177 4
34201 4
819 15
3495 15
8927 15
9294 15
11011 15
23153 15
26194 15
32204 15
34148 0
820 27
1651 27
3368 27
8057 27
23486 27
24494 46
24529 45
32534 27
34363 27
821 16
1284 16
3197 16
4929 16
10853 4
24357 16
24857 16
25519 16
28852 16
29059 16
30313 16
32994 16
33428 16
8885 40
13763 10
16857 40
19083 0
20040 40
23120 40
25092 40
26327 40
28430 40
29504 40
9632 2
10859 2
10935 2
18691 2
23822 2
31844 2
12336 2
14101 4
16088 4
16598 4
19285 4
20520 4
24416 4
29375 4
30194 4
825 7
836 4
3446 7
4501 7
9841 7
14898 7
16400 15
17414 7
18739 7
29984 7
31154 7
32491 7
826 4
2131 4
2758 4
3436 4
9614 4
11223 4
14969 4
15386 4
17972 4
32289 4
33140 4
33531 4
827 14
1932 14
5570 14
6402 14
6837 7
12981 14
13580 14
16982 14
19220 14
22145 14
25867 14
26866 14
30766 7
4093 14
10430 14
10708 14
10968 14
16443 14
19506 14
22133 14
24133 14
24178 14
27489 4
829 55
2147 55
5279 55
10429 55
11318 55
11529 19
12180 55
19976 55
25955 55
28826 55
30637 55
31533 55
32752 55
33728 5
2968 10
8770 10
9876 10
23656 10
24047 10
25425 0
27762 10
28528 10
29615 10
32602 10
831 5
7503 5
8483 5
10494 5
12157 5
14882 5
17773 5
20300 4
20689 5
26333 14
29382 5
32831 5
832 15
9289 15
17732 15
21607 21
24647 15
25349 15
26671 15
28284 15
28536 21
28695 15
29217 15
29892 15
31685 15
833 42
7153 42
15946 42
16020 4
20131 1
20801 42
25669 42
26273 42
26330 42
29993 42
30511 42
9715 10
10447 10
10716 10
13316 10
16322 10
23152 10
25246 10
26385 22
27385 10
29454 10
29691 1
835 25
7215 25
11306 25
14639 25
19594 25
19616 25
21153 25
22650 25
23156 22
29422 7
30377 21
1859 4
8377 4
11977 4
12919 4
14611 4
16178 21
17954 4
23187 4
25133 4
27234 4
27630 4
31382 4
33560 4
17828 22
18883 22
20152 22
24355 22
24898 22
25762 22
29971 22
30644 4
31773 22
838 8
840 8
3594 8
3953 8
14203 8
24557 27
29772 10
33635 8
34125 8
34218 8
839 8
1600 8
2431 8
10393 8
15479 8
17625 8
19266 8
26644 8
31203 6
34285 8
4302 8
13640 14
17150 8
21545 27
24735 8
25397 8
26846 8
26971 8
29983 8
33714 8
1343 71
8754 21
9792 71
12068 71
14817 71
24968 71
29488 71
29792 71
32292 71
33031 49
4699 5
5199 64
10249 5
10326 5
10327 5
17702 5
27768 5
29590 5
33305 5
33490 5
3627 10
844 16
2119 16
2244 16
3941 16
16474 9
21080 16
25218 16
30861 16
31044 16
31081 16
31237 16
34158 16
34466 16
845 11
2039 11
11735 11
14164 11
14235 11
19397 11
20979 11
24245 4
27813 11
28423 11
28485 0
28704 11
30101 4
846 14
5458 14
6226 14
10026 14
17092 14
21472 14
21800 14
26153 14
26486 14
26620 14
27707 14
28260 4
30177 14
33337 14
13861 66
17128 22
848 29
1694 29
8831 29
10817 29
15926 29
16529 29
19637 4
25618 29
32903 29
849 35
1759 35
5575 0
7883 0
18092 35
24097 35
27117 35
29936 35
30878 35
31098 4
33002 35
3134 74
4868 8
9057 1
16550 22
851 17
4898 17
6721 17
8203 17
15094 17
17542 17
29235 17
32623 17
33165 17
34123 17
852 14
1296 14
8965 14
10864 14
18802 28
20997 14
21335 14
21716 14
24706 14
26812 14
32449 14
32581 14
853 50
4831 50
8284 50
15211 50
17772 50
23029 50
25966 50
27890 50
28100 50
31627 50
32859 50
854 24
1446 24
3568 24
4219 12
6531 24
8040 24
10011 24
10744 24
11169 24
13673 24
20058 24
22722 24
24349 36
25541 24
33068 24
34038 24
34491 24
1435 5
3285 5
4002 5
16157 5
17943 5
19427 10
21586 5
24439 5
25616 5
27120 5
29205 0
29986 5
856 4
2352 4
3987 4
8410 4
12869 4
14154 22
15070 4
26615 4
30713 4
33421 4
34332 4
857 8
10372 8
12822 8
17172 71
20942 8
22109 8
24320 8
25440 11
28164 8
29974 8
30938 8
32577 8
33363 8
858 16
4516 9
17097 16
20342 16
24011 16
24065 16
27160 16
27529 16
27697 16
28310 16
31518 16
33925 16
859 17
4285 4
11108 21
12622 17
14793 5
19842 17
21569 17
22185 17
25000 17
25353 17
25699 17
34271 17
860 15
3147 15
3931 15
9817 46
17244 15
17719 15
17748 15
17902 15
27326 15
34238 15
3335 17
3711 17
5706 17
15090 17
16612 17
21155 17
21690 17
28373 17
33390 8
33409 17
862 27
10597 27
11037 27
14067 27
15144 27
16451 27
25522 27
28511 27
28870 27
28910 27
29321 27
863 7
2335 7
5608 4
16251 27
16689 7
17667 7
22472 7
25264 7
29543 7
31850 7
864 15
963 15
12500 9
13136 15
15952 15
18864 15
21371 15
21557 1
23707 15
25024 15
31925 15
32909 15
32980 15
33222 15
33477 15
865 20
9528 20
14128 20
17600 20
18576 20
18664 20
20107 20
21814 20
24446 20
28222 20
29554 7
866 8
3514 8
6000 8
10908 8
11572 8
12434 4
21056 8
25449 8
27299 8
29568 8
31000 4
32912 8
867 4
2905 14
4657 4
8135 4
24969 22
27067 4
28916 4
29468 4
30022 7
32258 4
33049 4
33656 4
868 8
930 8
3874 8
5417 8
7090 8
7945 8
10247 8
12773 8
16428 8
21460 6
23212 8
24397 8
24657 8
32461 8
869 27
1265 27
1340 27
2497 1
2785 27
3280 27
7583 27
17544 27
19321 27
27141 55
33057 27
33459 27
2458 21
13929 22
17472 5
21888 21
24998 21
26034 21
28347 21
28820 21
29533 21
32923 21
33338 21
871 4
1522 4
13692 4
14417 4
24666 24
25056 4
29127 4
29298 4
30277 4
31483 4
32317 4
32870 4
872 7
8277 69
9055 7
10381 7
12621 7
24530 7
25991 7
29384 7
33232 7
34440 7
873 15
11310 15
11706 15
17170 15
20086 15
21209 15
21805 15
22029 15
23058 4
24711 15
26762 15
28146 15
29751 15
4594 54
7439 54
9965 54
12038 54
15203 54
16468 54
16980 54
17618 54
20128 54
25259 54
25379 54
27887 54
28307 54
5055 21
8996 5
13300 21
16070 15
17379 21
21849 21
27474 21
29919 21
31464 21
33603 11
4820 20
7593 20
11186 55
11950 20
20507 20
24695 20
24977 20
28646 20
29547 20
32565 20
877 58
14606 58
16237 58
16808 31
19064 88
20574 58
21623 58
26440 35
29876 58
30035 58
878 12
4621 12
6384 12
7136 12
10093 8
11625 12
14621 12
16456 12
16688 12
16973 12
17985 5
19093 12
29106 12
34268 12
5848 12
11366 10
14168 10
14680 10
20134 10
22385 10
31022 10
880 22
3973 22
6185 22
11286 22
13205 22
23782 22
24301 22
24485 22
25356 22
25676 5
26442 22
28173 22
28900 22
29709 21
33979 22
881 21
8378 8
9152 10
12953 21
20481 4
24905 21
27948 21
28979 21
31778 21
882 1
6846 1
6994 1
8244 1
19620 1
25132 1
26073 1
27312 1
28756 1
29693 1
31922 48
883 21
2048 5
3315 21
5326 21
10123 21
10383 21
27879 21
30352 21
31719 21
32765 21
33146 21
884 83
7102 83
7142 83
8468 83
10131 83
13468 83
14742 83
15586 83
16257 83
16976 83
17008 83
20087 83
20818 83
21398 83
22731 83
23671 13
885 55
3088 55
3282 55
4462 55
7043 55
8357 55
9076 55
10724 15
14276 0
16399 55
22895 55
24499 55
25135 55
28384 55
1037 15
2374 15
3703 15
6111 8
6375 15
14296 15
15481 15
15620 15
26568 15
31677 15
887 4
3652 4
7120 4
11285 10
14222 12
15626 4
16089 4
23918 4
26638 4
28976 4
30156 4
1106 27
1504 27
4481 27
11918 27
14351 0
26399 27
28162 27
34124 27
2201 10
5434 21
6390 10
10361 10
10861 46
15780 10
21903 10
21963 10
24108 10
890 27
3076 27
3865 27
5450 10
6276 27
7954 27
10664 27
13567 27
13803 27
24983 27
32247 27
32624 27
34089 27
34399 27
891 0
2310 0
10778 0
11673 0
17404 0
24486 0
27591 0
892 15
4069 15
9365 15
19047 15
22352 15
26600 15
29923 0
30283 2
30794 15
893 10
3542 7
14775 10
24496 10
25054 10
28312 10
29283 10
30915 10
894 17
4950 8
6352 17
7422 17
11777 17
15668 11
16286 17
19543 17
21315 17
22290 17
28011 17
33933 17
1592 1
1647 1
12857 1
18437 1
19852 1
20861 1
22462 1
22749 1
32151 8
1834 55
2839 55
10479 55
10705 22
14185 12
23305 55
27042 55
28849 55
33697 55
897 4
3588 12
10046 4
10696 4
15179 4
18389 4
19982 4
22326 4
23150 4
23495 4
898 55
3415 55
7212 55
15213 55
15602 55
17470 4
19166 55
24189 55
33132 55
33893 55
34195 55
899 89
1890 89
2853 89
4453 89
4640 89
4948 89
6575 89
6750 89
7206 89
8830 89
11375 6
16448 89
16826 89
17495 89
18200 89
30011 9
31391 0
900 29
2619 29
9557 29
16655 19
19352 29
20950 29
22211 29
29477 29
33658 29
901 21
1699 21
2743 21
6563 10
14411 21
29026 21
30386 21
902 4
13728 12
14930 4
17240 4
19424 4
21114 79
27860 4
28714 4
903 16
3418 16
13559 5
16001 16
17320 16
25462 16
31328 21
32632 16
2700 27
10857 27
12137 27
15405 27
17764 27
19028 4
26216 27
30509 27
905 0
1160 4
3699 0
4582 0
9228 0
15243 4
16732 0
29595 0
32416 0
906 22
4829 22
7633 22
8670 22
11245 22
11568 22
19770 22
20017 22
24314 22
25760 22
26086 4
34251 4
34342 22
2581 16
9314 16
11995 16
12415 16
16603 16
20539 17
21550 16
22879 16
27596 16
27794 7
28364 16
31587 42
33197 16
908 85
5088 85
8743 85
13454 5
16315 85
17210 85
18287 85
23412 15
909 16
1227 16
1963 16
3578 16
11157 16
11785 16
15199 16
21162 0
23513 16
25828 16
26416 16
28266 16
32378 16
910 4
2150 4
3996 4
8409 4
10923 4
11924 49
12876 4
15016 4
17399 21
20318 4
22311 5
22839 4
25697 4
911 7
11610 7
11939 6
13522 7
28543 7
29450 7
31977 7
33174 7
34207 7
6334 12
8895 17
14173 17
15544 17
16570 17
22676 3
24060 6
24642 17
31324 17
33719 17
913 13
3472 18
6468 13
15834 13
17330 13
25533 13
26493 13
29945 13
32205 13
32352 13
33001 13
914 17
9306 6
10088 17
25959 17
28758 17
29267 46
30193 17
30320 17
915 4
3866 35
4678 4
7528 5
11062 11
15596 4
31290 4
32548 4
33469 4
916 17
1052 17
11540 17
13704 17
14077 84
16690 17
17923 15
20911 17
27935 17
28437 17
917 21
3499 21
5364 21
20776 21
21300 21
28583 21
30565 21
918 21
2315 21
7612 21
7735 21
14322 21
15934 21
24220 21
27396 12
30869 48
32926 21
919 4
2531 4
7515 11
9452 4
18624 4
28458 4
29874 4
31195 4
31835 4
33048 4
920 12
2903 12
8109 12
14199 12
19219 12
19464 12
23351 11
24932 12
25926 12
28365 12
28828 12
29924 0
30840 12
33599 12
921 12
9918 12
12972 12
14115 12
19530 12
24234 12
24782 12
25982 12
28724 12
29597 12
30551 12
34080 11
4809 0
12278 0
18053 0
18134 0
18769 0
28676 0
30259 8
923 50
2941 5
3780 50
5345 50
5725 50
7665 50
20616 50
26260 9
26906 50
27132 50
7179 12
18530 4
18912 12
21081 12
21356 12
23974 12
925 12
3790 12
4137 12
10414 1
16391 12
17953 12
19161 12
21520 12
24553 12
25949 12
32741 12
33832 12
6926 2
10513 2
12878 2
14766 2
18429 2
25898 2
31360 2
33310 2
34245 2
34357 48
927 10
6222 10
14237 10
14560 10
25052 10
27094 10
28473 62
29949 10
33512 10
928 4
5464 4
7133 4
8518 4
12204 13
22846 4
24337 21
28175 4
28891 4
31473 4
32907 4
5261 9
8520 9
11353 4
11928 9
12219 4
13365 9
14947 9
19388 9
21268 9
21916 9
30708 9
33764 9
8480 8
8916 8
11085 8
21964 8
25555 8
26344 8
29904 8
30586 22
31845 8
931 0
3357 0
9668 0
13926 0
21317 0
22988 0
28060 8
31083 0
32374 0
34390 0
932 4
2828 4
3768 4
4525 4
18625 4
22551 4
23327 4
26026 4
28270 9
29771 4
29911 4
30663 4
30771 4
31148 4
34443 4
3890 16
18292 33
22239 33
25456 33
27444 33
27496 33
31350 11
934 9
2115 9
16615 46
18599 9
24623 9
25270 9
27730 9
27814 9
33119 9
935 21
8896 21
11617 21
11865 21
13202 0
14174 21
17768 21
18363 21
28411 21
30127 21
30992 21
33187 9
34524 21
2373 15
8808 46
9003 15
9078 46
9991 46
15894 46
18707 46
28039 46
28526 46
29711 46
31057 46
31412 46
32468 46
5394 27
9147 27
19293 27
20813 27
23290 9
25742 27
29744 27
32390 27
34114 27
938 22
1053 22
2457 22
2836 22
11112 22
11338 21
12725 22
13097 22
14559 22
24480 22
31105 12
34142 1
939 27
5029 27
7080 27
14659 27
14846 18
17867 27
29908 27
30490 27
13159 0
14834 11
15046 0
21241 0
27618 0
32340 0
941 22
9155 22
9170 22
14458 22
15726 22
15870 22
21603 22
29044 22
29233 0
31427 22
33388 22
942 27
6748 27
8269 25
8609 27
13004 27
18442 10
23990 27
26962 27
30115 27
30484 27
31186 27
31856 27
943 4
6083 4
7425 4
12216 7
13393 4
18650 4
21210 4
24547 4
30491 4
32826 4
33405 9
1528 15
4104 15
8430 36
9495 15
10691 15
11978 15
22253 15
29081 15
945 11
2098 11
4036 0
5639 9
8846 11
15576 11
19169 11
19288 11
19456 11
21401 11
21471 11
22045 11
28448 11
28474 11
29676 11
946 52
1329 27
4492 52
6161 52
10171 52
13126 52
13648 52
14327 52
14950 43
18328 52
22888 15
24316 52
33221 52
947 7
1399 7
12329 7
13925 7
14779 7
21197 7
26702 7
29336 7
29912 7
31001 7
31930 36
948 12
1005 12
1753 12
4495 12
5075 0
6759 12
17515 12
23818 12
30211 12
5700 11
6073 11
7607 11
14574 11
18039 11
19080 11
24846 11
31808 21
32687 11
950 9
2313 9
3048 9
6101 9
14651 9
20127 9
20485 4
24377 9
25258 9
29408 4
31013 9
951 10
2942 10
2960 10
3236 10
26004 3
29284 10
34413 10
1839 1
4966 15
8068 15
9625 15
16883 15
17243 15
26754 15
27363 15
27544 15
27565 15
27826 15
30201 15
953 11
11687 11
12365 11
12677 27
12947 11
17386 11
22687 11
28790 11
30557 11
32102 11
34214 8
954 4
15652 4
16182 0
16533 4
23934 4
26722 4
27393 4
5090 33
7343 33
15281 33
19893 33
20081 55
25238 33
2490 11
19886 11
21296 11
26054 11
27279 11
30359 11
30834 11
33619 11
9776 27
16430 12
17835 17
958 15
23670 15
24451 11
26039 15
28281 15
33153 12
9030 12
9920 12
17937 12
26666 12
27749 12
29996 12
30079 27
32457 12
33069 25
33828 12
960 21
3225 21
9074 21
9618 21
18552 21
19268 21
19280 21
21105 21
24398 21
25853 21
29379 5
30414 21
30463 4
32634 21
961 12
5459 12
10290 12
15145 12
18083 12
19878 38
25142 12
26336 12
30436 12
31179 4
31634 12
32591 12
33321 7
33727 12
33940 12
962 22
7553 22
9470 22
13496 22
19472 22
24010 22
26221 9
28407 10
29039 22
33277 22
3872 4
7481 15
9514 15
12958 15
17535 15
17707 15
25746 15
26750 15
29100 15
30754 15
32526 15
964 12
4196 0
7557 12
11167 12
19400 12
23060 12
27871 12
31620 12
32425 12
965 36
1714 36
13235 36
14208 36
14267 36
18848 36
19323 16
21381 36
31688 36
34138 36
3504 48
8094 48
8599 72
17324 48
18929 48
21998 48
33029 48
967 12
7807 12
12092 12
12811 12
15886 21
16722 12
19970 12
29374 12
30469 12
31273 12
1868 27
16127 27
16596 27
19074 21
20729 27
24836 27
25807 27
28242 27
32540 27
32595 27
34112 22
969 16
7911 16
8124 16
13916 16
14019 0
17514 16
22801 16
27100 16
29396 16
31817 16
32093 11
33449 16
33953 16
1153 0
4667 0
5456 31
10454 0
11674 0
18565 0
20471 0
25106 0
30150 1
971 4
4156 4
10329 4
11821 4
20337 9
23127 4
23523 4
24595 4
25634 7
972 11
7584 11
20434 11
21051 11
22254 11
25546 11
28030 11
29405 11
29474 11
31167 11
34396 11
6701 1
8403 1
12683 1
14585 1
18177 1
19521 10
24117 1
26597 1
33006 1
2789 33
7969 12
12827 33
33471 33
975 10
6135 10
8778 10
14124 10
14549 10
14700 10
16776 40
16865 10
24825 10
28909 46
30970 10
30981 10
13523 17
18272 21
19695 21
29088 21
31322 21
33331 21
977 14
3450 14
9373 14
14045 14
18743 14
21914 14
25269 10
26900 14
28084 14
28368 14
29238 14
7165 8
8930 36
16222 36
16725 36
21492 36
25529 36
979 9
10399 9
19779 9
19969 9
23159 24
26161 9
28427 9
30556 37
31686 9
32060 9
33606 9
1353 15
7678 15
8561 15
9481 15
16528 15
18989 15
20102 22
20144 15
981 21
5067 21
5121 21
10164 21
10423 3
20000 21
25905 21
27779 21
28186 21
30383 21
32331 21
33545 21
982 21
4718 21
6080 0
9531 21
12033 21
15996 21
19805 21
24662 21
26994 21
28668 21
31342 21
33534 21
983 45
4636 45
11707 45
15370 45
17547 45
22544 45
23829 55
25885 45
27302 45
29133 45
29168 45
29344 45
33000 45
33977 45
984 42
6553 42
16314 42
16932 37
17160 42
19706 42
22579 9
24504 42
32728 42
34026 42
2722 15
4906 15
6606 15
8014 15
13384 10
17431 15
20747 15
30611 11
986 33
1044 33
12884 11
17545 33
25916 33
30381 33
987 9
2014 9
3218 9
3359 9
3718 9
4234 9
12994 9
13386 9
18731 9
23074 9
29553 15
32169 7
32244 9
988 12
5274 45
12155 12
18724 12
19350 12
27885 12
30314 12
33013 12
33696 12
989 12
8182 12
20961 12
21123 12
22270 12
23443 7
26018 12
29287 12
31956 12
33084 12
990 0
1138 0
2133 0
3406 0
9736 0
22082 0
24552 0
29189 0
29341 0
30455 0
32852 0
991 8
2226 8
3352 8
5022 46
9222 8
10749 24
10993 8
12615 8
12901 8
14457 8
14668 8
15444 8
19540 8
22585 8
992 17
6383 17
8133 17
8806 17
9882 17
11067 17
11908 17
14194 17
16152 17
26149 17
26166 17
30045 17
30196 17
30853 49
33671 17
4986 15
16927 15
18503 15
20317 15
26381 15
27998 15
33618 15
34213 15
994 14
1383 14
9852 14
13357 14
17303 11
18075 14
18815 14
32809 14
33403 14
995 40
2728 40
20893 14
28771 21
29582 33
2628 15
12842 15
15103 1
19151 15
27615 15
34295 15
997 11
1885 11
2807 11
8600 4
12259 7
19840 11
20624 11
22301 11
22804 11
24935 11
27673 11
28591 11
29763 11
32883 0
998 4
3781 4
4590 10
8368 39
9127 4
21816 71
21897 4
24048 4
25793 4
26804 4
27802 4
30827 4
5956 21
8938 21
14438 21
15100 21
15980 21
22736 21
23130 2
25167 21
26130 10
33077 21
34186 6
1000 1
4135 1
13439 61
16988 1
18915 1
20048 1
20695 1
23014 1
23117 1
27076 1
29277 7
1001 12
2424 12
8907 50
11087 12
22054 5
23065 12
27790 12
28080 12
28949 12
32369 12
6199 27
8551 0
13598 0
17852 0
18542 0
19042 0
21548 0
27082 0
33665 0
33692 0
1003 46
2078 46
3160 46
6547 46
7916 16
13794 46
21424 46
22207 46
22696 18
24213 46
24319 46
30918 46
32265 46
1004 0
4899 0
5557 0
9802 0
15421 0
16301 0
19850 10
20735 0
24696 0
27464 16
28858 0
29626 0
30889 0
5176 41
7922 12
11447 12
12996 12
14114 12
17777 12
19385 12
23414 0
28853 12
30063 12
1006 12
2919 12
8989 12
17382 12
22015 64
22597 12
23792 12
4217 9
8330 9
12269 27
14874 4
17319 9
21203 9
25352 9
28137 9
29767 9
31735 9
8035 48
1009 12
8023 9
15795 12
18159 12
20439 12
26162 12
26291 12
30910 12
31796 12
1010 8
1290 8
6798 8
7369 12
12122 8
12565 8
14169 8
18569 8
23093 8
34189 8
1011 4
1848 4
5215 4
5707 4
5965 4
10199 4
10253 4
21638 4
25005 4
27178 6
30207 4
32145 4
5466 4
26559 4
32004 4
32922 4
1013 8
8839 8
13212 29
14362 8
15252 8
17929 8
20999 8
23436 8
26935 8
28067 8
30968 22
1014 9
12344 9
16829 9
18595 12
20883 9
21107 9
22566 9
25431 9
31026 9
4078 3
6312 3
12226 3
16486 3
17489 3
22006 3
23447 3
29871 3
30058 3
4994 5
13108 87
15631 5
26963 5
30416 5
32684 5
1017 12
3544 12
4875 12
9073 12
16179 12
18925 12
22550 12
23808 12
27652 12
1018 4
2164 4
8206 4
13993 4
19989 4
