0 0
1 1
2 2
3 3
4 3
5 3
6 4
7 1
8 5
9 6
10 7
11 8
12 9
13 3
14 8
15 3
16 10
17 10
18 9
19 11
20 0
21 10
22 12
23 13
24 1
25 8
26 1
27 14
28 0
29 4
30 0
31 12
32 9
33 8
34 9
35 1
36 10
37 11
38 15
39 8
40 10
41 9
42 10
43 16
44 17
45 11
46 9
47 6
48 2
49 9
50 8
51 3
52 9
53 2
54 10
55 8
56 3
57 0
58 9
59 0
60 17
61 6
62 18
63 8
64 3
65 3
66 9
67 9
68 8
69 15
70 19
71 18
72 1
73 1
74 15
75 4
76 8
77 12
78 5
79 3
80 20
81 9
82 18
83 0
84 12
85 1
86 7
87 1
88 10
89 8
90 1
91 12
92 21
93 18
94 3
95 10
96 10
97 3
98 2
99 1
100 22
101 6
102 10
103 10
104 7
105 9
106 17
107 9
108 10
109 0
110 9
111 1
112 12
113 10
114 19
115 14
116 9
117 3
118 6
119 11
120 3
121 8
122 19
123 16
124 1
125 3
126 4
127 1
128 11
129 3
130 6
131 0
132 2
133 17
134 18
135 22
136 1
137 17
138 7
139 10
140 13
141 3
142 20
143 12
144 17
145 5
146 9
147 23
148 1
149 2
150 10
151 10
152 20
153 23
154 0
155 1
156 15
157 20
158 7
159 11
160 1
161 10
162 11
163 9
164 1
165 12
166 8
167 14
168 6
169 4
170 10
171 9
172 3
173 19
174 10
175 10
176 10
177 23
178 1
179 5
180 1
181 3
182 1
183 12
184 9
185 10
186 1
187 5
188 6
189 9
190 6
191 16
192 12
193 0
194 1
195 8
196 8
197 21
198 7
199 3
200 17
201 9
202 15
203 17
204 0
205 1
206 3
207 9
208 18
209 10
210 21
211 9
212 19
213 10
214 1
215 17
216 10
217 3
218 3
219 20
220 6
221 9
222 20
223 18
224 22
225 20
226 11
227 20
228 0
229 10
230 10
231 9
232 8
233 0
234 8
235 1
236 1
237 3
238 20
239 3
240 10
241 13
242 12
243 23
244 3
245 19
246 1
247 17
248 9
249 5
250 4
251 1
252 3
253 4
254 1
255 17
256 14
257 9
258 17
259 3
260 1
261 3
262 9
263 3
264 1
265 0
266 1
267 10
268 10
269 21
270 9
271 1
272 11
273 4
274 5
275 20
276 17
277 17
278 5
279 6
280 15
281 13
282 8
283 17
284 10
285 1
286 7
287 12
288 7
289 17
290 1
291 15
292 8
293 3
294 10
295 10
296 15
297 3
298 2
299 2
300 1
301 1
302 7
303 10
304 8
305 5
306 9
307 10
308 4
309 1
310 2
311 16
312 12
313 4
314 0
315 10
316 6
317 10
318 9
319 8
320 10
321 8
322 14
323 19
324 9
325 15
326 1
327 12
328 13
329 21
330 1
331 7
332 12
333 1
334 3
335 10
336 13
337 4
338 3
339 3
340 3
341 9
342 10
343 5
344 9
345 11
346 7
347 3
348 1
349 3
350 3
351 7
352 22
353 9
354 16
355 3
356 5
357 6
358 1
359 9
360 3
361 10
362 1
363 6
364 9
365 18
366 8
367 10
368 13
369 10
370 9
371 14
372 9
373 1
374 15
375 1
376 1
377 2
378 23
379 0
380 9
381 1
382 1
383 9
384 9
385 1
386 1
387 9
388 9
389 10
390 3
391 1
392 19
393 9
394 1
395 7
396 7
397 12
398 10
399 12
400 6
401 1
402 11
403 3
404 6
405 3
406 3
407 1
408 23
409 0
410 3
411 2
412 10
413 14
414 11
415 8
416 21
417 1
418 3
419 4
420 6
421 10
422 12
423 3
424 10
425 23
426 10
427 10
428 6
429 1
430 17
431 20
432 3
433 9
434 9
435 0
436 11
437 3
438 8
439 3
440 21
441 8
442 10
443 10
444 9
445 10
446 5
447 3
448 3
449 1
450 2
451 6
452 15
453 11
454 0
455 10
456 1
457 1
458 18
459 9
460 3
461 7
462 10
463 9
464 15
465 8
466 7
467 9
468 11
469 8
470 3
471 9
472 10
473 6
474 16
475 0
476 23
477 9
478 7
479 16
480 1
481 8
482 10
483 17
484 1
485 1
486 8
487 12
488 24
489 24
490 9
491 0
492 10
493 0
494 3
495 3
496 12
497 9
498 19
499 3
500 15
501 18
502 7
503 1
504 10
505 1
506 8
507 14
508 1
509 13
510 8
511 8
512 7
513 0
514 4
515 1
516 4
517 9
518 17
519 17
520 6
521 0
522 11
523 10
524 3
525 9
526 10
527 7
528 1
529 10
530 7
531 7
532 18
533 17
534 7
535 11
536 5
537 7
538 10
539 0
540 16
541 1
542 3
543 3
544 10
545 19
546 10
547 10
548 8
549 19
550 8
551 1
552 16
553 20
554 1
555 7
556 22
557 16
558 1
559 12
560 9
561 3
562 3
563 3
564 0
565 15
566 0
567 9
568 17
569 10
570 12
571 8
572 8
573 1
574 10
575 3
576 1
577 1
578 3
579 10
580 1
581 9
582 8
583 3
584 1
585 8
586 14
587 10
588 9
589 24
590 7
591 24
592 1
593 22
594 1
595 12
596 4
597 8
598 17
599 7
600 5
601 8
602 6
603 9
604 9
605 11
606 3
607 1
608 12
609 9
610 9
611 9
612 1
613 10
614 10
615 1
616 11
617 1
618 1
619 5
620 9
621 1
622 5
623 4
624 20
625 9
626 18
627 1
628 1
629 9
630 4
631 8
632 21
633 10
634 8
635 10
636 13
637 1
638 0
639 3
640 13
641 10
642 7
643 15
644 10
645 0
646 9
647 9
648 3
649 1
650 7
651 19
652 1
653 24
654 7
655 14
656 10
657 4
658 9
659 10
660 9
661 3
662 23
663 1
664 10
665 6
666 17
667 1
668 11
669 3
670 10
671 3
672 8
673 3
674 10
675 3
676 22
677 19
678 8
679 8
680 8
681 18
682 15
683 3
684 10
685 1
686 10
687 19
688 12
689 8
690 9
691 9
692 5
693 22
694 10
695 10
696 1
697 10
698 1
699 6
700 0
701 1
702 9
703 21
704 2
705 11
706 9
707 9
708 14
709 17
710 20
711 8
712 16
713 8
714 0
715 10
716 3
717 9
718 3
719 8
720 1
721 10
722 18
723 13
724 9
725 10
726 20
727 15
728 10
729 8
730 0
731 1
732 11
733 15
734 0
735 8
736 9
737 1
738 9
739 3
740 1
741 4
742 2
743 4
744 1
745 5
746 9
747 3
748 9
749 3
750 17
751 5
752 18
753 10
754 9
755 3
756 10
757 10
758 9
759 8
760 10
761 7
762 20
763 3
764 10
765 10
766 16
767 21
768 1
769 9
770 9
771 10
772 10
773 1
774 3
775 3
776 1
777 14
778 1
779 8
780 12
781 8
782 0
783 1
784 1
785 17
786 9
787 9
788 12
789 9
790 4
791 17
792 3
793 10
794 21
795 13
796 1
797 6
798 4
799 9
800 4
801 0
802 9
803 3
804 9
805 5
806 9
807 4
808 9
809 8
810 10
811 8
812 17
813 6
814 1
815 4
816 4
817 9
818 9
819 14
820 8
821 8
822 18
823 10
824 3
825 1
826 9
827 8
828 4
829 9
830 1
831 14
832 3
833 1
834 12
835 3
836 20
837 1
838 8
839 5
840 9
841 4
842 1
843 3
844 4
845 19
846 20
847 7
848 10
849 3
850 8
851 20
852 9
853 12
854 4
855 7
856 10
857 9
858 1
859 12
860 9
861 11
862 19
863 8
864 23
865 1
866 3
867 3
868 0
869 16
870 9
871 21
872 17
873 11
874 10
875 23
876 9
877 9
878 1
879 9
880 5
881 23
882 8
883 5
884 17
885 3
886 8
887 1
888 1
889 7
890 0
891 3
892 3
893 9
894 1
895 17
896 8
897 1
898 9
899 9
900 10
901 9
902 17
903 0
904 2
905 1
906 12
907 10
908 9
909 3
910 10
911 10
912 21
913 15
914 3
915 2
916 10
917 4
918 8
919 19
920 10
921 2
922 1
923 3
924 11
925 16
926 10
927 10
928 9
929 13
930 10
931 12
932 14
933 16
934 15
935 1
936 9
937 1
938 19
939 10
940 11
941 1
942 11
943 1
944 16
945 3
946 10
947 3
948 9
949 1
950 18
951 12
952 3
953 4
954 12
955 3
956 0
957 9
958 1
959 15
960 17
961 2
962 1
963 15
964 1
965 11
966 4
967 0
968 2
969 8
970 1
971 10
972 1
973 3
974 10
975 2
976 9
977 8
978 1
979 8
980 1
981 1
982 12
983 9
984 4
985 6
986 3
987 1
988 10
989 8
990 15
991 4
992 9
993 10
994 6
995 1
996 0
997 2
998 3
999 9
1000 9
1001 9
1002 21
1003 9
1004 0
1005 6
1006 16
1007 3
1008 17
1009 1
1010 9
1011 1
1012 9
1013 10
1014 6
1015 1
1016 10
1017 10
1018 9
1019 10
1020 1
1021 9
1022 3
1023 10
1024 1
1025 8
1026 17
1027 12
1028 8
1029 9
1030 19
1031 0
1032 2
1033 5
1034 10
1035 1
1036 11
1037 1
1038 9
1039 1
1040 9
1041 9
1042 7
1043 12
1044 22
1045 11
1046 10
1047 15
1048 10
1049 3
1050 9
1051 19
1052 10
1053 12
1054 5
1055 9
1056 23
1057 11
1058 18
1059 21
1060 1
1061 9
1062 8
1063 9
1064 4
1065 10
1066 7
1067 0
1068 8
1069 9
1070 10
1071 9
1072 10
1073 3
1074 0
1075 4
1076 1
1077 10
1078 10
1079 9
1080 0
1081 7
1082 3
1083 24
1084 10
1085 1
1086 18
1087 17
1088 18
1089 13
1090 13
1091 3
1092 8
1093 14
1094 9
1095 10
1096 7
1097 3
1098 6
1099 12
1100 10
1101 17
1102 3
1103 3
1104 3
1105 17
1106 12
1107 8
1108 23
1109 9
1110 15
1111 15
1112 8
1113 10
1114 23
1115 8
1116 11
1117 22
1118 9
1119 7
1120 17
1121 17
1122 20
1123 5
1124 21
1125 9
1126 8
1127 5
1128 1
1129 9
1130 15
1131 9
1132 10
1133 11
1134 5
1135 8
1136 18
1137 9
1138 16
1139 12
1140 10
1141 18
1142 6
1143 17
1144 10
1145 12
1146 9
1147 10
1148 24
1149 3
1150 8
1151 4
1152 5
1153 10
1154 1
1155 10
1156 4
1157 1
1158 11
1159 1
1160 22
1161 6
1162 13
1163 8
1164 15
1165 1
1166 1
1167 3
1168 8
1169 8
1170 8
1171 12
1172 1
1173 19
1174 3
1175 19
1176 8
1177 6
1178 1
1179 7
1180 4
1181 10
1182 23
1183 11
1184 10
1185 1
1186 1
1187 10
1188 18
1189 3
1190 3
1191 0
1192 10
1193 3
1194 9
1195 15
1196 3
1197 17
1198 1
1199 6
1200 5
1201 9
1202 9
1203 0
1204 9
1205 9
1206 8
1207 8
1208 15
1209 15
1210 1
1211 10
1212 21
1213 3
1214 9
1215 1
1216 3
1217 6
1218 18
1219 9
1220 10
1221 10
1222 17
1223 8
1224 4
1225 1
1226 20
1227 14
1228 23
1229 3
1230 8
1231 8
1232 9
1233 7
1234 20
1235 9
1236 11
1237 14
1238 7
1239 22
1240 0
1241 9
1242 17
1243 1
1244 4
1245 19
1246 10
1247 18
1248 4
1249 15
1250 2
1251 14
1252 10
1253 0
1254 2
1255 23
1256 14
1257 10
1258 15
1259 11
1260 11
1261 15
1262 22
1263 10
1264 10
1265 3
1266 10
1267 10
1268 3
1269 2
1270 6
1271 10
1272 23
1273 9
1274 1
1275 10
1276 4
1277 12
1278 9
1279 1
1280 12
1281 15
1282 1
1283 9
1284 16
1285 16
1286 15
1287 23
1288 23
1289 1
1290 15
1291 8
1292 18
1293 2
1294 1
1295 10
1296 10
1297 24
1298 9
1299 8
1300 6
1301 21
1302 9
1303 9
1304 1
1305 1
1306 17
1307 2
1308 9
1309 23
1310 9
1311 16
1312 10
1313 10
1314 2
1315 16
1316 24
1317 10
1318 6
1319 19
1320 4
1321 10
1322 13
1323 1
1324 9
1325 21
1326 12
1327 11
1328 9
1329 17
1330 8
1331 12
1332 10
1333 17
1334 0
1335 15
1336 17
1337 3
1338 7
1339 8
1340 3
1341 21
1342 10
1343 1
1344 3
1345 1
1346 8
1347 16
1348 4
1349 7
1350 3
1351 6
1352 7
1353 1
1354 15
1355 9
1356 18
1357 14
1358 9
1359 23
1360 7
1361 12
1362 3
1363 1
1364 17
1365 9
1366 8
1367 3
1368 22
1369 22
1370 4
1371 9
1372 9
1373 1
1374 14
1375 1
1376 16
1377 9
1378 10
1379 9
1380 10
1381 8
1382 9
1383 0
1384 5
1385 17
1386 9
1387 22
1388 3
1389 12
1390 3
1391 9
1392 3
1393 17
1394 8
1395 10
1396 12
1397 15
1398 1
1399 8
1400 8
1401 9
1402 1
1403 16
1404 15
1405 0
1406 4
1407 1
1408 11
1409 10
1410 16
1411 10
1412 9
1413 8
1414 15
1415 1
1416 1
1417 2
1418 8
1419 16
1420 5
1421 17
1422 10
1423 15
1424 2
1425 1
1426 8
1427 9
1428 21
1429 2
1430 23
1431 10
1432 3
1433 10
1434 0
1435 20
1436 2
1437 22
1438 1
1439 2
1440 13
1441 10
1442 1
1443 3
1444 21
1445 10
1446 0
1447 12
1448 2
1449 13
1450 0
1451 4
1452 22
1453 15
1454 4
1455 23
1456 3
1457 14
1458 10
1459 3
1460 21
1461 1
1462 9
1463 9
1464 14
1465 12
1466 10
1467 1
1468 14
1469 8
1470 8
1471 1
1472 2
1473 9
1474 9
1475 10
1476 3
1477 4
1478 16
1479 10
1480 4
1481 3
1482 17
1483 2
1484 13
1485 2
1486 1
1487 8
1488 17
1489 23
1490 14
1491 3
1492 3
1493 24
1494 6
1495 1
1496 10
1497 8
1498 7
1499 14
1500 9
1501 4
1502 8
1503 10
1504 2
1505 7
1506 22
1507 9
1508 10
1509 8
1510 11
1511 18
1512 4
1513 3
1514 9
1515 20
1516 16
1517 17
1518 2
1519 23
1520 0
1521 16
1522 10
1523 6
1524 0
1525 11
1526 10
1527 15
1528 0
1529 6
1530 2
1531 2
1532 3
1533 9
1534 15
1535 9
1536 8
1537 24
1538 22
1539 11
1540 3
1541 1
1542 17
1543 1
1544 9
1545 3
1546 4
1547 3
1548 23
1549 14
1550 10
1551 1
1552 3
1553 3
1554 18
1555 3
1556 7
1557 3
1558 17
1559 9
1560 10
1561 3
1562 7
1563 1
1564 10
1565 1
1566 11
1567 2
1568 10
1569 9
1570 7
1571 3
1572 9
1573 9
1574 5
1575 1
1576 19
1577 8
1578 2
1579 4
1580 10
1581 11
1582 1
1583 14
1584 1
1585 15
1586 9
1587 20
1588 8
1589 21
1590 23
1591 9
1592 3
1593 2
1594 10
1595 9
1596 17
1597 3
1598 9
1599 1
1600 1
1601 23
1602 4
1603 1
1604 12
1605 7
1606 7
1607 12
1608 24
1609 23
1610 9
1611 2
1612 4
1613 9
1614 10
1615 1
1616 9
1617 0
1618 18
1619 24
1620 0
1621 9
1622 3
1623 8
1624 9
1625 15
1626 17
1627 9
1628 20
1629 10
1630 17
1631 9
1632 4
1633 15
1634 1
1635 8
1636 17
1637 13
1638 2
1639 6
1640 1
1641 0
1642 9
1643 2
1644 4
1645 12
1646 17
1647 22
1648 1
1649 7
1650 1
1651 3
1652 9
1653 19
1654 14
1655 15
1656 9
1657 9
1658 8
1659 1
1660 9
1661 20
1662 10
1663 23
1664 10
1665 3
1666 10
1667 1
1668 5
1669 7
1670 1
1671 10
1672 5
1673 1
1674 10
1675 7
1676 1
1677 10
1678 3
1679 1
1680 6
1681 10
1682 15
1683 1
1684 10
1685 3
1686 19
1687 10
1688 4
1689 9
1690 7
1691 2
1692 17
1693 21
1694 9
1695 7
1696 16
1697 12
1698 4
1699 1
1700 1
1701 14
1702 3
1703 19
1704 1
1705 10
1706 20
1707 1
1708 9
1709 8
1710 12
1711 21
1712 10
1713 5
1714 24
1715 8
1716 14
1717 21
1718 0
1719 9
1720 9
1721 8
1722 11
1723 8
1724 0
1725 9
1726 1
1727 9
1728 9
1729 12
1730 16
1731 3
1732 0
1733 9
1734 4
1735 17
1736 1
1737 20
1738 10
1739 9
1740 13
1741 1
1742 8
1743 1
1744 8
1745 6
1746 1
1747 1
1748 9
1749 3
1750 9
1751 18
1752 21
1753 11
1754 5
1755 1
1756 11
1757 14
1758 0
1759 2
1760 9
1761 8
1762 15
1763 3
1764 1
1765 10
1766 21
1767 1
1768 1
1769 1
1770 1
1771 10
1772 9
1773 0
1774 4
1775 10
1776 9
1777 10
1778 10
1779 12
1780 1
1781 9
1782 3
1783 4
1784 13
1785 2
1786 1
1787 1
1788 12
1789 14
1790 1
1791 12
1792 2
1793 10
1794 0
1795 1
1796 15
1797 2
1798 10
1799 12
1800 8
1801 19
1802 15
1803 15
1804 8
1805 19
1806 10
1807 21
1808 0
1809 18
1810 23
1811 1
1812 5
1813 21
1814 3
1815 0
1816 1
1817 12
1818 0
1819 24
1820 0
1821 8
1822 0
1823 9
1824 1
1825 5
1826 10
1827 12
1828 3
1829 10
1830 10
1831 15
1832 3
1833 3
1834 10
1835 10
1836 9
1837 11
1838 10
1839 1
1840 2
1841 6
1842 14
1843 11
1844 9
1845 16
1846 4
1847 7
1848 1
1849 1
1850 10
1851 22
1852 1
1853 9
1854 8
1855 10
1856 10
1857 17
1858 8
1859 1
1860 1
1861 3
1862 10
1863 12
1864 20
1865 3
1866 1
1867 12
1868 10
1869 10
1870 11
1871 19
1872 9
1873 24
1874 1
1875 1
1876 8
1877 19
1878 9
1879 0
1880 13
1881 4
1882 9
1883 15
1884 15
1885 0
1886 13
1887 0
1888 6
1889 1
1890 10
1891 14
1892 10
1893 12
1894 0
1895 9
1896 5
1897 3
1898 1
1899 2
1900 1
1901 10
1902 21
1903 9
1904 3
1905 9
1906 6
1907 7
1908 8
1909 18
1910 1
1911 6
1912 9
1913 2
1914 10
1915 18
1916 10
1917 10
1918 11
1919 3
1920 9
1921 10
1922 1
1923 9
1924 9
1925 8
1926 9
1927 10
1928 17
1929 3
1930 3
1931 1
1932 10
1933 9
1934 15
1935 10
1936 1
1937 10
1938 7
1939 9
1940 8
1941 14
1942 9
1943 1
1944 6
1945 9
1946 8
1947 9
1948 14
1949 3
1950 8
1951 9
1952 9
1953 6
1954 19
1955 13
1956 10
1957 10
1958 3
1959 10
1960 3
1961 8
1962 20
1963 4
1964 0
1965 24
1966 1
1967 10
1968 17
1969 9
1970 9
1971 10
1972 8
1973 22
1974 10
1975 3
1976 9
1977 17
1978 15
1979 9
1980 4
1981 15
1982 10
1983 9
1984 0
1985 7
1986 16
1987 10
1988 5
1989 10
1990 9
1991 0
1992 3
1993 12
1994 9
1995 12
1996 16
1997 20
1998 10
1999 9
2000 15
2001 1
2002 17
2003 9
2004 9
2005 6
2006 5
2007 0
2008 9
2009 9
2010 16
2011 13
2012 1
2013 9
2014 3
2015 12
2016 3
2017 1
2018 9
2019 10
2020 1
2021 18
2022 10
2023 8
2024 17
2025 1
2026 2
2027 5
2028 9
2029 9
2030 7
2031 9
2032 22
2033 9
2034 10
2035 10
2036 3
2037 1
2038 7
2039 21
2040 24
2041 13
2042 5
2043 10
2044 1
2045 2
2046 3
2047 12
2048 17
2049 9
2050 22
2051 10
2052 1
2053 8
2054 9
2055 12
2056 1
2057 21
2058 1
2059 1
2060 3
2061 2
2062 23
2063 18
2064 12
2065 3
2066 23
2067 1
2068 1
2069 3
2070 1
2071 10
2072 15
2073 11
2074 6
2075 11
2076 3
2077 1
2078 10
2079 7
2080 17
2081 16
2082 9
2083 8
2084 3
2085 17
2086 3
2087 15
2088 10
2089 18
2090 23
2091 12
2092 1
2093 8
2094 1
2095 2
2096 10
2097 21
2098 0
2099 2
2100 1
2101 15
2102 1
2103 12
2104 3
2105 3
2106 12
2107 9
2108 11
2109 8
2110 10
2111 1
2112 10
2113 0
2114 1
2115 12
2116 1
2117 10
2118 6
2119 3
2120 1
2121 10
2122 23
2123 9
2124 9
2125 1
2126 3
2127 11
2128 9
2129 21
2130 9
2131 12
2132 10
2133 4
2134 22
2135 8
2136 9
2137 10
2138 9
2139 16
2140 10
2141 1
2142 9
2143 3
2144 2
2145 23
2146 3
2147 11
2148 10
2149 5
2150 12
2151 10
2152 9
2153 10
2154 15
2155 3
2156 4
2157 15
2158 8
2159 11
2160 6
2161 5
2162 8
2163 7
2164 22
2165 18
2166 9
2167 9
2168 10
2169 23
2170 12
2171 2
2172 1
2173 17
2174 18
2175 23
2176 10
2177 23
2178 0
2179 7
2180 17
2181 18
2182 11
2183 15
2184 0
2185 3
2186 15
2187 1
2188 6
2189 15
2190 5
2191 9
2192 11
2193 2
2194 3
2195 5
2196 0
2197 6
2198 3
2199 14
2200 1
2201 5
2202 10
2203 6
2204 9
2205 3
2206 9
2207 3
2208 9
2209 3
2210 1
2211 1
2212 1
2213 8
2214 9
2215 1
2216 2
2217 22
2218 8
2219 23
2220 19
2221 1
2222 23
2223 10
2224 11
2225 3
2226 9
2227 21
2228 1
2229 9
2230 1
2231 0
2232 24
2233 11
2234 3
2235 2
2236 1
2237 1
2238 19
2239 24
2240 18
2241 2
2242 1
2243 3
2244 9
2245 3
2246 21
2247 21
2248 3
2249 5
2250 10
2251 3
2252 9
2253 4
2254 2
2255 15
2256 1
2257 0
2258 0
2259 8
2260 20
2261 2
2262 5
2263 9
2264 10
2265 7
2266 10
2267 1
2268 3
2269 10
2270 4
2271 3
2272 1
2273 4
2274 14
2275 22
2276 19
2277 1
2278 3
2279 20
2280 1
2281 1
2282 22
2283 5
2284 4
2285 6
2286 6
2287 12
2288 9
2289 0
2290 3
2291 10
2292 5
2293 18
2294 21
2295 9
2296 8
2297 3
2298 10
2299 2
2300 14
2301 8
2302 14
2303 16
2304 4
2305 10
2306 23
2307 2
2308 16
2309 0
2310 1
2311 10
2312 17
2313 1
2314 9
2315 17
2316 17
2317 18
2318 8
2319 24
2320 17
2321 3
2322 12
2323 8
2324 4
2325 15
2326 1
2327 3
2328 8
2329 14
2330 18
2331 7
2332 21
2333 10
2334 8
2335 10
2336 8
2337 18
2338 5
2339 10
2340 1
2341 19
2342 15
2343 21
2344 2
2345 15
2346 3
2347 3
2348 0
2349 9
2350 6
2351 7
2352 2
2353 3
2354 10
2355 17
2356 14
2357 9
2358 17
2359 10
2360 23
2361 1
2362 3
2363 17
2364 3
2365 8
2366 10
2367 14
2368 3
2369 1
2370 1
2371 3
2372 13
2373 3
2374 9
2375 7
2376 1
2377 8
2378 0
2379 3
2380 3
2381 3
2382 9
2383 2
2384 4
2385 15
2386 4
2387 4
2388 19
2389 8
2390 0
2391 3
2392 9
2393 3
2394 1
2395 9
2396 18
2397 12
2398 12
2399 16
2400 23
2401 10
2402 4
2403 8
2404 9
2405 9
2406 4
2407 10
2408 9
2409 1
2410 9
2411 3
2412 23
2413 1
2414 21
2415 9
2416 9
2417 22
2418 10
2419 1
2420 10
2421 13
2422 1
2423 6
2424 10
2425 0
2426 6
2427 7
2428 9
2429 3
2430 8
2431 15
2432 18
2433 21
2434 13
2435 3
2436 9
2437 3
2438 15
2439 9
2440 8
2441 10
2442 7
2443 4
2444 10
2445 12
2446 10
2447 9
2448 24
2449 4
2450 11
2451 6
2452 9
2453 9
2454 12
2455 10
2456 9
2457 9
2458 6
2459 3
2460 7
2461 7
2462 0
2463 1
2464 1
2465 1
2466 23
2467 1
2468 7
2469 5
2470 9
2471 9
2472 10
2473 1
2474 9
2475 1
2476 21
2477 1
2478 3
2479 1
2480 6
2481 10
2482 21
2483 9
2484 9
2485 0
2486 19
2487 7
2488 24
2489 1
2490 17
2491 21
2492 9
2493 10
2494 6
2495 8
2496 1
2497 21
2498 8
2499 9
2500 8
2501 8
2502 10
2503 12
2504 11
2505 1
2506 9
2507 1
2508 3
2509 1
2510 19
2511 3
2512 22
2513 1
2514 12
2515 18
2516 13
2517 8
2518 10
2519 1
2520 9
2521 20
2522 9
2523 9
2524 9
2525 9
2526 0
2527 7
2528 19
2529 12
2530 9
2531 12
2532 7
2533 14
2534 11
2535 20
2536 10
2537 0
2538 0
2539 10
2540 9
2541 1
2542 16
2543 10
2544 20
2545 10
2546 3
2547 8
2548 10
2549 4
2550 0
2551 24
2552 3
2553 9
2554 9
2555 12
2556 4
2557 3
2558 1
2559 10
2560 10
2561 10
2562 21
2563 10
2564 6
2565 22
2566 8
2567 0
2568 1
2569 9
2570 5
2571 1
2572 3
2573 1
2574 15
2575 13
2576 9
2577 1
2578 15
2579 1
2580 23
2581 10
2582 1
2583 11
2584 1
2585 19
2586 5
2587 2
2588 9
2589 17
2590 5
2591 1
2592 4
2593 4
2594 10
2595 8
2596 10
2597 15
2598 23
2599 7
2600 18
2601 23
2602 17
2603 3
2604 3
2605 5
2606 7
2607 3
2608 0
2609 0
2610 1
2611 3
2612 10
2613 9
2614 8
2615 16
2616 2
2617 12
2618 18
2619 8
2620 9
2621 5
2622 1
2623 2
2624 0
2625 3
2626 3
2627 4
2628 4
2629 3
2630 9
2631 10
2632 9
2633 17
2634 11
2635 9
2636 0
2637 9
2638 23
2639 15
2640 5
2641 8
2642 19
2643 10
2644 8
2645 7
2646 3
2647 15
2648 15
2649 17
2650 13
2651 10
2652 21
2653 4
2654 10
2655 9
2656 0
2657 9
2658 10
2659 0
2660 11
2661 9
2662 12
2663 1
2664 3
2665 10
2666 11
2667 9
2668 0
2669 18
2670 19
2671 9
2672 2
2673 9
2674 24
2675 10
2676 4
2677 17
2678 1
2679 9
2680 10
2681 1
2682 10
2683 13
2684 9
2685 1
2686 8
2687 1
2688 21
2689 9
2690 16
2691 0
2692 1
2693 9
2694 1
2695 17
2696 10
2697 13
2698 9
2699 10
2700 1
2701 5
2702 17
2703 10
2704 1
2705 1
2706 1
2707 22
2708 21
2709 19
2710 23
2711 9
2712 9
2713 1
2714 23
2715 10
2716 20
2717 8
2718 0
2719 8
2720 2
2721 15
2722 10
2723 7
2724 3
2725 1
2726 1
2727 23
2728 3
2729 1
2730 10
2731 7
2732 21
2733 7
2734 0
2735 10
2736 2
2737 8
2738 10
2739 13
2740 15
2741 8
2742 1
2743 1
2744 7
2745 3
2746 4
2747 9
2748 9
2749 3
2750 9
2751 1
2752 10
2753 15
2754 10
2755 12
2756 1
2757 9
2758 3
2759 14
2760 18
2761 11
2762 1
2763 8
2764 14
2765 3
2766 24
2767 10
2768 9
2769 3
2770 1
2771 2
2772 10
2773 8
2774 12
2775 3
2776 8
2777 13
2778 1
2779 3
2780 9
2781 1
2782 9
2783 0
2784 8
2785 4
2786 15
2787 23
2788 8
2789 9
2790 9
2791 17
2792 3
2793 1
2794 4
2795 16
2796 0
2797 7
2798 8
2799 1
2800 8
2801 17
2802 0
2803 17
2804 19
2805 3
2806 18
2807 4
2808 17
2809 19
2810 5
2811 6
2812 9
2813 9
2814 8
2815 17
2816 12
2817 21
2818 20
2819 1
2820 6
2821 9
2822 3
2823 19
2824 1
2825 10
2826 3
2827 1
2828 10
2829 4
2830 10
2831 0
2832 1
2833 1
2834 23
2835 8
2836 16
2837 18
2838 10
2839 1
2840 10
2841 1
2842 1
2843 10
2844 9
2845 9
2846 10
2847 10
2848 1
2849 11
2850 1
2851 9
2852 10
2853 10
2854 10
2855 13
2856 0
2857 10
2858 16
2859 17
2860 6
2861 9
2862 9
2863 18
2864 12
2865 9
2866 7
2867 9
2868 9
2869 12
2870 10
2871 1
2872 9
2873 9
2874 15
2875 11
2876 17
2877 9
2878 3
2879 15
2880 9
2881 10
2882 12
2883 4
2884 4
2885 10
2886 1
2887 16
2888 1
2889 7
2890 3
2891 11
2892 14
2893 24
2894 9
2895 8
2896 0
2897 10
2898 0
2899 10
2900 10
2901 9
2902 17
2903 10
2904 5
2905 10
2906 5
2907 2
2908 9
2909 9
2910 23
2911 10
2912 23
2913 12
2914 2
2915 9
2916 10
2917 2
2918 9
2919 21
2920 1
2921 3
2922 5
2923 9
2924 8
2925 4
2926 3
2927 1
2928 1
2929 8
2930 1
2931 17
2932 5
2933 1
2934 9
2935 10
2936 10
2937 0
2938 3
2939 6
2940 9
2941 7
2942 8
2943 7
2944 0
2945 1
2946 1
2947 17
2948 23
2949 3
2950 9
2951 11
2952 6
2953 22
2954 12
2955 9
2956 10
2957 3
2958 10
2959 0
2960 17
2961 12
2962 9
2963 3
2964 9
2965 1
2966 19
2967 3
2968 12
2969 9
2970 8
2971 21
2972 8
2973 8
2974 0
2975 20
2976 1
2977 8
2978 3
2979 10
2980 1
2981 14
2982 6
2983 1
2984 23
2985 9
2986 13
2987 1
2988 1
2989 1
2990 9
2991 11
2992 10
2993 1
2994 1
2995 15
2996 21
2997 13
2998 12
2999 9
3000 3
3001 10
3002 3
3003 17
3004 5
3005 9
3006 1
3007 2
3008 1
3009 3
3010 9
3011 5
3012 0
3013 1
3014 1
3015 9
3016 1
3017 10
3018 10
3019 11
3020 21
3021 0
3022 4
3023 6
3024 1
3025 6
3026 4
3027 9
3028 0
3029 0
3030 3
3031 8
3032 10
3033 10
3034 11
3035 1
3036 1
3037 10
3038 9
3039 10
3040 8
3041 10
3042 6
3043 16
3044 3
3045 3
3046 10
3047 5
3048 11
3049 9
3050 10
3051 9
3052 5
3053 10
3054 8
3055 8
3056 1
3057 22
3058 1
3059 1
3060 3
3061 11
3062 3
3063 4
3064 10
3065 17
3066 4
3067 8
3068 3
3069 0
3070 1
3071 3
3072 1
3073 3
3074 3
3075 10
3076 16
3077 16
3078 9
3079 1
3080 8
3081 19
3082 0
3083 9
3084 4
3085 10
3086 4
3087 3
3088 10
3089 2
3090 3
3091 8
3092 3
3093 3
3094 8
3095 1
3096 1
3097 19
3098 9
3099 14
3100 6
3101 9
3102 10
3103 17
3104 3
3105 8
3106 1
3107 17
3108 4
3109 13
3110 3
3111 10
3112 4
3113 11
3114 15
3115 8
3116 18
3117 1
3118 1
3119 7
3120 3
3121 10
3122 10
3123 2
3124 1
3125 3
3126 9
3127 3
3128 24
3129 4
3130 17
3131 15
3132 3
3133 3
3134 16
3135 1
3136 3
3137 24
3138 1
3139 9
3140 7
3141 17
3142 23
3143 9
3144 16
3145 2
3146 3
3147 10
3148 1
3149 9
3150 7
3151 10
3152 9
3153 3
3154 11
3155 8
3156 17
3157 15
3158 14
3159 6
3160 11
3161 9
3162 8
3163 4
3164 1
3165 9
3166 1
3167 0
3168 23
3169 1
3170 8
3171 15
3172 18
3173 7
3174 0
3175 10
3176 19
3177 11
3178 7
3179 10
3180 9
3181 11
3182 8
3183 9
3184 1
3185 11
3186 1
3187 0
3188 11
3189 17
3190 15
3191 1
3192 1
3193 8
3194 1
3195 24
3196 9
3197 5
3198 12
3199 12
3200 10
3201 1
3202 6
3203 8
3204 2
3205 10
3206 9
3207 3
3208 12
3209 8
3210 4
3211 21
3212 9
3213 8
3214 10
3215 9
3216 23
3217 7
3218 3
3219 1
3220 5
3221 1
3222 8
3223 14
3224 7
3225 12
3226 1
3227 9
3228 9
3229 1
3230 3
3231 0
3232 4
3233 10
3234 10
3235 9
3236 19
3237 9
3238 12
3239 1
3240 19
3241 8
3242 10
3243 1
3244 1
3245 8
3246 8
3247 17
3248 13
3249 1
3250 0
3251 1
3252 10
3253 17
3254 1
3255 1
3256 5
3257 1
3258 0
3259 9
3260 19
3261 18
3262 16
3263 8
3264 19
3265 20
3266 1
3267 17
3268 9
3269 9
3270 0
3271 16
3272 9
3273 9
3274 10
3275 18
3276 2
3277 21
3278 15
3279 0
3280 2
3281 4
3282 14
3283 21
3284 23
3285 1
3286 18
3287 1
3288 9
3289 9
3290 3
3291 8
3292 11
3293 6
3294 16
3295 3
3296 9
3297 1
3298 3
3299 19
3300 9
3301 3
3302 9
3303 9
3304 21
3305 7
3306 12
3307 23
3308 4
3309 19
3310 2
3311 1
3312 10
3313 1
3314 5
3315 16
3316 8
3317 3
3318 9
3319 5
3320 1
3321 8
3322 10
3323 11
3324 4
3325 1
3326 8
3327 16
3328 0
3329 3
3330 10
3331 11
3332 3
3333 18
3334 15
3335 10
3336 3
3337 8
3338 9
3339 16
3340 0
3341 13
3342 0
3343 6
3344 6
3345 1
3346 10
3347 1
3348 8
3349 3
3350 9
3351 8
3352 22
3353 13
3354 9
3355 9
3356 1
3357 10
3358 8
3359 10
3360 9
3361 21
3362 23
3363 10
3364 0
3365 7
3366 1
3367 9
3368 6
3369 8
3370 4
3371 8
3372 8
3373 3
3374 21
3375 18
3376 3
3377 21
3378 6
3379 3
3380 8
3381 16
3382 7
3383 5
3384 10
3385 0
3386 9
3387 10
3388 10
3389 10
3390 19
3391 1
3392 3
3393 19
3394 3
3395 17
3396 9
3397 3
3398 1
3399 8
3400 1
3401 20
3402 10
3403 9
3404 21
3405 7
3406 10
3407 13
3408 9
3409 1
3410 0
3411 20
3412 1
3413 9
3414 0
3415 3
3416 1
3417 13
3418 10
3419 9
3420 3
3421 5
3422 8
3423 19
3424 12
3425 5
3426 1
3427 10
3428 10
3429 21
3430 1
3431 0
3432 18
3433 1
3434 1
3435 11
3436 10
3437 5
3438 3
3439 4
3440 20
3441 20
3442 6
3443 22
3444 11
3445 8
3446 2
3447 19
3448 10
3449 3
3450 7
3451 17
3452 0
3453 17
3454 9
3455 9
3456 1
3457 19
3458 1
3459 1
3460 1
3461 7
3462 8
3463 11
3464 22
3465 1
3466 1
3467 10
3468 15
3469 12
3470 9
3471 8
3472 16
3473 21
3474 5
3475 3
3476 12
3477 10
3478 1
3479 10
3480 1
3481 21
3482 9
3483 0
3484 12
3485 1
3486 3
3487 3
3488 12
3489 10
3490 9
3491 9
3492 15
3493 24
3494 19
3495 10
3496 8
3497 10
3498 1
3499 8
3500 1
3501 3
3502 1
3503 9
3504 12
3505 17
3506 8
3507 10
3508 3
3509 1
3510 3
3511 1
3512 2
3513 2
3514 10
3515 10
3516 10
3517 21
3518 4
3519 10
3520 3
3521 8
3522 20
3523 3
3524 18
3525 8
3526 24
3527 4
3528 11
3529 4
3530 9
3531 16
3532 11
3533 3
3534 10
3535 9
3536 10
3537 3
3538 0
3539 9
3540 1
3541 20
3542 4
3543 11
3544 8
3545 12
3546 23
3547 9
3548 8
3549 9
3550 11
3551 11
3552 8
3553 10
3554 1
3555 3
3556 1
3557 9
3558 9
3559 9
3560 23
3561 9
3562 23
3563 8
3564 18
3565 3
3566 9
3567 8
3568 1
3569 3
3570 13
3571 8
3572 3
3573 3
3574 8
3575 7
3576 1
3577 12
3578 8
3579 11
3580 9
3581 20
3582 6
3583 4
3584 12
3585 22
3586 12
3587 7
3588 7
3589 3
3590 3
3591 6
3592 3
3593 20
3594 11
3595 1
3596 16
3597 1
3598 8
3599 9
3600 1
3601 5
3602 1
3603 1
3604 10
3605 5
3606 1
3607 9
3608 10
3609 1
3610 3
3611 10
3612 13
3613 21
3614 5
3615 0
3616 14
3617 21
3618 13
3619 14
3620 4
3621 3
3622 0
3623 18
3624 4
3625 8
3626 10
3627 3
3628 18
3629 12
3630 8
3631 18
3632 9
3633 1
3634 3
3635 12
3636 8
3637 3
3638 0
3639 3
3640 1
3641 3
3642 9
3643 1
3644 1
3645 9
3646 9
3647 1
3648 9
3649 8
3650 8
3651 9
3652 10
3653 8
3654 17
3655 4
3656 18
3657 24
3658 4
3659 6
3660 7
3661 21
3662 9
3663 3
3664 0
3665 0
3666 10
3667 1
3668 3
3669 0
3670 9
3671 1
3672 1
3673 9
3674 9
3675 0
3676 8
3677 9
3678 7
3679 17
3680 9
3681 2
3682 18
3683 8
3684 9
3685 1
3686 10
3687 17
3688 2
3689 9
3690 10
3691 9
3692 9
3693 2
3694 10
3695 10
3696 1
3697 7
3698 6
3699 1
3700 15
3701 15
3702 1
3703 9
3704 1
3705 3
3706 0
3707 1
3708 1
3709 21
3710 10
3711 3
3712 1
3713 9
3714 1
3715 5
3716 3
3717 9
3718 1
3719 8
3720 17
3721 9
3722 21
3723 1
3724 10
3725 15
3726 9
3727 0
3728 11
3729 3
3730 9
3731 11
3732 6
3733 0
3734 3
3735 0
3736 9
3737 10
3738 3
3739 1
3740 1
3741 4
3742 0
3743 1
3744 3
3745 11
3746 9
3747 8
3748 6
3749 3
3750 24
3751 21
3752 12
3753 5
3754 10
3755 5
3756 1
3757 1
3758 2
3759 10
3760 10
3761 10
3762 8
3763 23
3764 10
3765 2
3766 1
3767 13
3768 4
3769 9
3770 3
3771 9
3772 9
3773 1
3774 1
3775 0
3776 9
3777 13
3778 3
3779 1
3780 3
3781 8
3782 9
3783 10
3784 8
3785 3
3786 10
3787 9
3788 10
3789 10
3790 1
3791 10
3792 9
3793 8
3794 2
3795 3
3796 1
3797 1
3798 8
3799 9
3800 4
3801 1
3802 14
3803 1
3804 20
3805 24
3806 22
3807 3
3808 8
3809 8
3810 3
3811 11
3812 2
3813 12
3814 5
3815 20
3816 9
3817 2
3818 9
3819 8
3820 9
3821 4
3822 17
3823 15
3824 12
3825 16
3826 3
3827 14
3828 3
3829 12
3830 12
3831 3
3832 9
3833 1
3834 9
3835 9
3836 9
3837 1
3838 5
3839 20
3840 19
3841 4
3842 11
3843 10
3844 12
3845 9
3846 6
3847 12
3848 1
3849 4
3850 18
3851 17
3852 10
3853 1
3854 9
3855 22
3856 10
3857 9
3858 17
3859 20
3860 9
3861 5
3862 24
3863 3
3864 15
3865 10
3866 3
3867 14
3868 3
3869 3
3870 1
3871 9
3872 10
3873 8
3874 9
3875 1
3876 10
3877 1
3878 0
3879 1
3880 4
3881 1
3882 9
3883 0
3884 13
3885 4
3886 13
3887 8
3888 9
3889 10
3890 22
3891 12
3892 9
3893 9
3894 3
3895 10
3896 10
3897 18
3898 10
3899 14
3900 10
3901 1
3902 9
3903 10
3904 16
3905 17
3906 8
3907 20
3908 12
3909 3
3910 8
3911 3
3912 9
3913 8
3914 5
3915 2
3916 9
3917 12
3918 9
3919 9
3920 1
3921 9
3922 18
3923 10
3924 9
3925 3
3926 8
3927 3
3928 9
3929 1
3930 10
3931 3
3932 15
3933 3
3934 10
3935 10
3936 2
3937 2
3938 1
3939 12
3940 9
3941 19
3942 9
3943 7
3944 10
3945 1
3946 4
3947 12
3948 3
3949 24
3950 10
3951 22
3952 7
3953 0
3954 10
3955 6
3956 10
3957 1
3958 17
3959 23
3960 3
3961 10
3962 3
3963 20
3964 8
3965 24
3966 3
3967 17
3968 19
3969 9
3970 9
3971 10
3972 10
3973 15
3974 4
3975 3
3976 1
3977 21
3978 23
3979 12
3980 9
3981 16
3982 19
3983 0
3984 10
3985 24
3986 9
3987 8
3988 18
3989 9
3990 12
3991 9
3992 1
3993 1
3994 4
3995 13
3996 1
3997 7
3998 6
3999 4
4000 22
4001 9
4002 6
4003 9
4004 12
4005 21
4006 10
4007 13
4008 9
4009 15
4010 10
4011 10
4012 10
4013 1
4014 18
4015 1
4016 2
4017 24
4018 9
4019 3
4020 3
4021 23
4022 3
4023 21
4024 0
4025 9
4026 10
4027 6
4028 1
4029 1
4030 7
4031 10
4032 3
4033 10
4034 12
4035 16
4036 8
4037 2
4038 9
4039 21
4040 9
4041 0
4042 13
4043 5
4044 6
4045 17
4046 4
4047 3
4048 12
4049 10
4050 1
4051 19
4052 15
4053 15
4054 1
4055 11
4056 8
4057 4
4058 9
4059 0
4060 1
4061 10
4062 4
4063 3
4064 9
4065 19
4066 10
4067 11
4068 8
4069 23
4070 0
4071 9
4072 1
4073 10
4074 16
4075 3
4076 1
4077 3
4078 16
4079 9
4080 1
4081 9
4082 8
4083 1
4084 7
4085 5
4086 10
4087 9
4088 8
4089 23
4090 9
4091 10
4092 15
4093 2
4094 10
4095 10
4096 9
4097 10
4098 2
4099 8
4100 9
4101 3
4102 24
4103 1
4104 1
4105 4
4106 21
4107 10
4108 1
4109 1
4110 11
4111 9
4112 3
4113 17
4114 10
4115 15
4116 5
4117 9
4118 2
4119 9
4120 17
4121 13
4122 3
4123 3
4124 18
4125 12
4126 1
4127 10
4128 13
4129 8
4130 19
4131 8
4132 3
4133 1
4134 2
4135 3
4136 12
4137 9
4138 12
4139 1
4140 18
4141 18
4142 1
4143 16
4144 1
4145 12
4146 16
4147 8
4148 16
4149 9
4150 8
4151 4
4152 3
4153 7
4154 22
4155 1
4156 9
4157 1
4158 8
4159 7
4160 16
4161 4
4162 20
4163 12
4164 10
4165 1
4166 1
4167 4
4168 0
4169 13
4170 9
4171 10
4172 4
4173 9
4174 22
4175 18
4176 10
4177 10
4178 4
4179 10
4180 12
4181 1
4182 1
4183 9
4184 8
4185 4
4186 3
4187 16
4188 4
4189 3
4190 12
4191 17
4192 22
4193 0
4194 3
4195 3
4196 1
4197 4
4198 2
4199 24
4200 9
4201 23
4202 10
4203 9
4204 3
4205 9
4206 17
4207 11
4208 13
4209 21
4210 12
4211 8
4212 11
4213 8
4214 10
4215 9
4216 3
4217 17
4218 12
4219 22
4220 4
4221 9
4222 20
4223 9
4224 9
4225 5
4226 4
4227 1
4228 13
4229 7
4230 10
4231 10
4232 15
4233 15
4234 13
4235 3
4236 3
4237 3
4238 23
4239 9
4240 9
4241 2
4242 23
4243 8
4244 11
4245 8
4246 13
4247 9
4248 0
4249 11
4250 8
4251 3
4252 17
4253 19
4254 1
4255 3
4256 15
4257 6
4258 13
4259 3
4260 10
4261 9
4262 10
4263 8
4264 9
4265 9
4266 10
4267 3
4268 17
4269 1
4270 18
4271 8
4272 10
4273 10
4274 0
4275 20
4276 1
4277 14
4278 17
4279 4
4280 1
4281 16
4282 21
4283 11
4284 17
4285 3
4286 21
4287 7
4288 3
4289 21
4290 10
4291 10
4292 7
4293 10
4294 8
4295 7
4296 5
4297 11
4298 6
4299 20
4300 3
4301 2
4302 9
4303 3
4304 1
4305 12
4306 1
4307 12
4308 6
4309 10
4310 6
4311 9
4312 1
4313 3
4314 1
4315 10
4316 23
4317 3
4318 3
4319 9
4320 10
4321 1
4322 10
4323 10
4324 21
4325 3
4326 8
4327 3
4328 9
4329 10
4330 23
4331 10
4332 6
4333 21
4334 9
4335 9
4336 3
4337 16
4338 4
4339 0
4340 8
4341 1
4342 1
4343 11
4344 0
4345 10
4346 10
4347 10
4348 10
4349 3
4350 10
4351 10
4352 3
4353 10
4354 1
4355 1
4356 4
4357 1
4358 1
4359 0
4360 8
4361 9
4362 13
4363 0
4364 20
4365 2
4366 21
4367 1
4368 2
4369 1
4370 19
4371 11
4372 9
4373 9
4374 1
4375 1
4376 10
4377 10
4378 7
4379 1
4380 7
4381 9
4382 7
4383 3
4384 20
4385 9
4386 19
4387 12
4388 11
4389 24
4390 0
4391 20
4392 19
4393 10
4394 16
4395 14
4396 10
4397 6
4398 9
4399 3
4400 9
4401 12
4402 11
4403 3
4404 22
4405 10
4406 9
4407 10
4408 12
4409 21
4410 8
4411 3
4412 10
4413 10
4414 15
4415 10
4416 5
4417 17
4418 15
4419 15
4420 20
4421 4
4422 7
4423 10
4424 23
4425 6
4426 10
4427 1
4428 22
4429 0
4430 4
4431 9
4432 10
4433 0
4434 10
4435 0
4436 19
4437 7
4438 13
4439 21
4440 4
4441 1
4442 5
4443 4
4444 9
4445 10
4446 8
4447 1
4448 10
4449 1
4450 0
4451 15
4452 1
4453 11
4454 9
4455 9
4456 10
4457 3
4458 1
4459 8
4460 11
4461 10
4462 9
4463 12
4464 0
4465 0
4466 9
4467 19
4468 9
4469 8
4470 0
4471 6
4472 10
4473 8
4474 8
4475 7
4476 17
4477 20
4478 1
4479 4
4480 1
4481 10
4482 10
4483 0
4484 8
4485 4
4486 7
4487 17
4488 8
4489 21
4490 1
4491 22
4492 13
4493 3
4494 3
4495 1
4496 19
4497 2
4498 9
4499 10
4500 2
4501 10
4502 9
4503 4
4504 1
4505 0
4506 1
4507 1
4508 18
4509 21
4510 9
4511 9
4512 15
4513 0
4514 3
4515 9
4516 3
4517 10
4518 1
4519 17
4520 3
4521 21
4522 3
4523 11
4524 21
4525 1
4526 10
4527 9
4528 1
4529 9
4530 6
4531 4
4532 1
4533 3
4534 4
4535 21
4536 9
4537 4
4538 6
4539 13
4540 12
4541 9
4542 19
4543 19
4544 3
4545 1
4546 2
4547 3
4548 17
4549 1
4550 23
4551 17
4552 1
4553 10
4554 9
4555 6
4556 9
4557 10
4558 12
4559 7
4560 9
4561 12
4562 9
4563 5
4564 17
4565 9
4566 3
4567 5
4568 3
4569 1
4570 1
4571 19
4572 0
4573 3
4574 0
4575 8
4576 8
4577 3
4578 9
4579 2
4580 10
4581 3
4582 23
4583 9
4584 19
4585 8
4586 1
4587 2
4588 23
4589 3
4590 8
4591 18
4592 10
4593 17
4594 10
4595 5
4596 9
4597 9
4598 9
4599 1
4600 9
4601 12
4602 19
4603 10
4604 21
4605 1
4606 10
4607 23
4608 8
4609 8
4610 8
4611 1
4612 9
4613 17
4614 3
4615 1
4616 7
4617 3
4618 13
4619 8
4620 22
4621 1
4622 9
4623 15
4624 1
4625 12
4626 5
4627 7
4628 10
4629 1
4630 14
4631 10
4632 10
4633 16
4634 16
4635 9
4636 10
4637 9
4638 9
4639 14
4640 10
4641 8
4642 11
4643 12
4644 9
4645 1
4646 10
4647 10
4648 11
4649 2
4650 3
4651 9
4652 4
4653 10
4654 18
4655 7
4656 1
4657 2
4658 10
4659 7
4660 15
4661 3
4662 4
4663 2
4664 1
4665 23
4666 18
4667 11
4668 11
4669 2
4670 8
4671 2
4672 8
4673 5
4674 10
4675 3
4676 8
4677 1
4678 15
4679 10
4680 15
4681 1
4682 9
4683 23
4684 1
4685 3
4686 10
4687 17
4688 4
4689 10
4690 1
4691 13
4692 11
4693 11
4694 3
4695 6
4696 24
4697 3
4698 9
4699 10
4700 9
4701 9
4702 7
4703 2
4704 9
4705 8
4706 9
4707 0
4708 20
4709 1
4710 1
4711 9
4712 8
4713 1
4714 1
4715 2
4716 8
4717 12
4718 22
4719 19
4720 10
4721 15
4722 20
4723 3
4724 6
4725 9
4726 3
4727 1
4728 2
4729 19
4730 4
4731 17
4732 10
4733 10
4734 7
4735 9
4736 2
4737 2
4738 1
4739 12
4740 7
4741 3
4742 10
4743 10
4744 1
4745 7
4746 9
4747 10
4748 4
4749 8
4750 3
4751 10
4752 1
4753 8
4754 8
4755 10
4756 4
4757 19
4758 1
4759 23
4760 24
4761 13
4762 9
4763 7
4764 7
4765 9
4766 10
4767 9
4768 15
4769 5
4770 12
4771 20
4772 9
4773 9
4774 18
4775 0
4776 5
4777 9
4778 6
4779 9
4780 9
4781 3
4782 4
4783 3
4784 1
4785 19
4786 9
4787 23
4788 17
4789 8
4790 18
4791 2
4792 1
4793 9
4794 8
4795 8
4796 7
4797 8
4798 14
4799 2
4800 10
4801 9
4802 3
4803 23
4804 2
4805 5
4806 23
4807 8
4808 9
4809 4
4810 3
4811 3
4812 8
4813 8
4814 20
4815 8
4816 7
4817 7
4818 10
4819 23
4820 12
4821 13
4822 10
4823 10
4824 9
4825 14
4826 9
4827 18
4828 2
4829 1
4830 18
4831 11
4832 22
4833 13
4834 8
4835 9
4836 13
4837 10
4838 17
4839 4
4840 17
4841 5
4842 10
4843 19
4844 9
4845 11
4846 1
4847 21
4848 1
4849 6
4850 3
4851 3
4852 19
4853 3
4854 9
4855 8
4856 17
4857 1
4858 0
4859 16
4860 3
4861 24
4862 9
4863 3
4864 3
4865 9
4866 8
4867 10
4868 2
4869 14
4870 6
4871 2
4872 1
4873 9
4874 1
4875 3
4876 11
4877 23
4878 10
4879 8
4880 16
4881 14
4882 8
4883 17
4884 0
4885 2
4886 9
4887 1
4888 5
4889 5
4890 0
4891 19
4892 0
4893 9
4894 3
4895 9
4896 9
4897 9
4898 18
4899 10
4900 11
4901 10
4902 11
4903 3
4904 3
4905 3
4906 15
4907 0
4908 11
4909 1
4910 4
4911 8
4912 9
4913 7
4914 15
4915 1
4916 3
4917 9
4918 1
4919 16
4920 4
4921 9
4922 4
4923 9
4924 0
4925 9
4926 2
4927 8
4928 17
4929 3
4930 9
4931 12
4932 1
4933 17
4934 0
4935 15
4936 12
4937 1
4938 3
4939 4
4940 12
4941 10
4942 3
4943 1
4944 0
4945 20
4946 3
4947 1
4948 9
4949 10
4950 9
4951 9
4952 21
4953 10
4954 1
4955 9
4956 1
4957 3
4958 9
4959 8
4960 9
4961 1
4962 9
4963 4
4964 1
4965 24
4966 15
4967 1
4968 24
4969 12
4970 1
4971 10
4972 9
4973 23
4974 9
4975 7
4976 7
4977 10
4978 0
4979 19
4980 10
4981 11
4982 3
4983 12
4984 9
4985 6
4986 8
4987 9
4988 10
4989 1
4990 3
4991 8
4992 9
4993 0
4994 4
4995 8
4996 9
4997 1
4998 9
4999 9
5000 3
5001 10
5002 9
5003 3
5004 22
5005 9
5006 4
5007 21
5008 5
5009 17
5010 9
5011 10
5012 3
5013 0
5014 19
5015 19
5016 1
5017 20
5018 0
5019 9
5020 3
5021 1
5022 1
5023 10
5024 3
5025 3
5026 8
5027 4
5028 7
5029 1
5030 9
5031 23
5032 9
5033 3
5034 10
5035 5
5036 15
5037 7
5038 7
5039 8
5040 15
5041 6
5042 4
5043 7
5044 8
5045 3
5046 19
5047 11
5048 10
5049 1
5050 1
5051 1
5052 19
5053 3
5054 10
5055 3
5056 22
5057 3
5058 21
5059 19
5060 10
5061 5
5062 1
5063 3
5064 0
5065 1
5066 4
5067 10
5068 6
5069 9
5070 22
5071 20
5072 0
5073 10
5074 1
5075 9
5076 5
5077 3
5078 1
5079 9
5080 8
5081 1
5082 9
5083 9
5084 9
5085 17
5086 8
5087 10
5088 1
5089 20
5090 4
5091 12
5092 1
5093 10
5094 0
5095 4
5096 12
5097 23
5098 0
5099 1
5100 9
5101 20
5102 8
5103 11
5104 10
5105 4
5106 1
5107 1
5108 1
5109 4
5110 13
5111 10
5112 2
5113 21
5114 1
5115 3
5116 1
5117 20
5118 10
5119 10
5120 1
5121 18
5122 3
5123 10
5124 4
5125 8
5126 1
5127 9
5128 22
5129 5
5130 10
5131 1
5132 0
5133 10
5134 2
5135 15
5136 1
5137 11
5138 5
5139 6
5140 3
5141 10
5142 9
5143 9
5144 24
5145 3
5146 12
5147 8
5148 10
5149 0
5150 8
5151 10
5152 4
5153 19
5154 21
5155 11
5156 9
5157 1
5158 0
5159 9
5160 11
5161 18
5162 10
5163 1
5164 9
5165 10
5166 4
5167 9
5168 9
5169 8
5170 5
5171 14
5172 10
5173 1
5174 10
5175 3
5176 3
5177 10
5178 8
5179 7
5180 19
5181 10
5182 10
5183 3
5184 12
5185 9
5186 18
5187 21
5188 1
5189 3
5190 17
5191 2
5192 1
5193 18
5194 12
5195 1
5196 1
5197 12
5198 14
5199 10
5200 24
5201 1
5202 0
5203 8
5204 1
5205 3
5206 11
5207 3
5208 9
5209 4
5210 8
5211 8
5212 9
5213 6
5214 0
5215 17
5216 1
5217 7
5218 10
5219 10
5220 9
5221 20
5222 8
5223 6
5224 10
5225 23
5226 12
5227 7
5228 2
5229 17
5230 19
5231 11
5232 9
5233 19
5234 3
5235 2
5236 17
5237 5
5238 1
5239 19
5240 22
5241 9
5242 2
5243 23
5244 3
5245 8
5246 3
5247 0
5248 15
5249 12
5250 0
5251 10
5252 12
5253 9
5254 4
5255 8
5256 10
5257 21
5258 1
5259 7
5260 10
5261 9
5262 17
5263 5
5264 23
5265 17
5266 9
5267 22
5268 17
5269 10
5270 3
5271 10
5272 8
5273 3
5274 10
5275 3
5276 1
5277 0
5278 12
5279 9
5280 11
5281 19
5282 8
5283 9
5284 22
5285 3
5286 21
5287 9
5288 8
5289 10
5290 11
5291 23
5292 0
5293 3
5294 1
5295 0
5296 1
5297 11
5298 12
5299 3
5300 0
5301 8
5302 16
5303 10
5304 14
5305 17
5306 10
5307 1
5308 12
5309 18
5310 14
5311 9
5312 8
5313 3
5314 15
5315 1
5316 10
5317 9
5318 8
5319 13
5320 4
5321 16
5322 9
5323 9
5324 10
5325 9
5326 8
5327 1
5328 14
5329 9
5330 1
5331 15
5332 5
5333 3
5334 8
5335 13
5336 1
5337 18
5338 10
5339 3
5340 2
5341 12
5342 1
5343 3
5344 8
5345 21
5346 1
5347 9
5348 17
5349 1
5350 16
5351 21
5352 2
5353 8
5354 5
5355 6
5356 20
5357 10
5358 8
5359 4
5360 2
5361 10
5362 22
5363 11
5364 10
5365 3
5366 22
5367 3
5368 19
5369 0
5370 1
5371 2
5372 6
5373 9
5374 1
5375 8
5376 21
5377 1
5378 1
5379 18
5380 12
5381 17
5382 1
5383 0
5384 3
5385 9
5386 10
5387 1
5388 1
5389 13
5390 12
5391 9
5392 10
5393 3
5394 1
5395 9
5396 18
5397 15
5398 3
5399 8
5400 3
5401 0
5402 3
5403 5
5404 1
5405 20
5406 12
5407 8
5408 9
5409 8
5410 4
5411 21
5412 8
5413 10
5414 1
5415 17
5416 3
5417 10
5418 17
5419 9
5420 8
5421 10
5422 4
5423 1
5424 15
5425 16
5426 10
5427 10
5428 9
5429 23
5430 1
5431 14
5432 1
5433 0
5434 0
5435 23
5436 7
5437 10
5438 9
5439 1
5440 10
5441 8
5442 19
5443 4
5444 8
5445 12
5446 1
5447 20
5448 0
5449 15
5450 21
5451 16
5452 1
5453 10
5454 7
5455 10
5456 9
5457 5
5458 3
5459 10
5460 1
5461 9
5462 1
5463 2
5464 10
5465 10
5466 4
5467 11
5468 9
5469 12
5470 7
5471 0
5472 9
5473 9
5474 10
5475 10
5476 9
5477 10
5478 9
5479 11
5480 8
5481 17
5482 17
5483 12
5484 1
5485 3
5486 9
5487 1
5488 12
5489 5
5490 8
5491 1
5492 23
5493 5
5494 22
5495 15
5496 3
5497 10
5498 0
5499 1
5500 3
5501 3
5502 17
5503 9
5504 4
5505 1
5506 4
5507 5
5508 9
5509 6
5510 10
5511 12
5512 9
5513 10
5514 9
5515 10
5516 10
5517 2
5518 9
5519 3
5520 1
5521 1
5522 18
5523 14
5524 7
5525 9
5526 10
5527 1
5528 3
5529 17
5530 9
5531 17
5532 1
5533 12
5534 16
5535 15
5536 5
5537 1
5538 23
5539 9
5540 4
5541 2
5542 9
5543 10
5544 1
5545 19
5546 9
5547 4
5548 1
5549 6
5550 9
5551 10
5552 10
5553 21
5554 1
5555 9
5556 0
5557 12
5558 3
5559 3
5560 0
5561 8
5562 1
5563 3
5564 9
5565 21
5566 23
5567 23
5568 6
5569 12
5570 16
5571 10
5572 10
5573 22
5574 1
5575 9
5576 11
5577 3
5578 1
5579 4
5580 14
5581 9
5582 6
5583 17
5584 9
5585 9
5586 20
5587 14
5588 9
5589 2
5590 1
5591 3
5592 18
5593 3
5594 1
5595 0
5596 9
5597 3
5598 20
5599 8
5600 9
5601 9
5602 2
5603 16
5604 7
5605 15
5606 8
5607 23
5608 16
5609 7
5610 16
5611 6
5612 1
5613 17
5614 22
5615 11
5616 9
5617 3
5618 3
5619 9
5620 17
5621 7
5622 9
5623 18
5624 16
5625 9
5626 12
5627 3
5628 9
5629 23
5630 7
5631 12
5632 3
5633 9
5634 7
5635 9
5636 16
5637 21
5638 7
5639 8
5640 7
5641 22
5642 15
5643 1
5644 9
5645 21
5646 1
5647 14
5648 9
5649 9
5650 3
5651 15
5652 9
5653 23
5654 10
5655 9
5656 8
5657 1
5658 1
5659 1
5660 23
5661 1
5662 6
5663 1
5664 20
5665 23
5666 23
5667 9
5668 9
5669 8
5670 0
5671 3
5672 17
5673 9
5674 1
5675 17
5676 1
5677 1
5678 2
5679 20
5680 1
5681 0
5682 10
5683 2
5684 4
5685 12
5686 19
5687 1
5688 21
5689 6
5690 23
5691 3
5692 8
5693 0
5694 20
5695 14
5696 7
5697 1
5698 6
5699 9
5700 1
5701 3
5702 2
5703 9
5704 8
5705 3
5706 9
5707 4
5708 10
5709 3
5710 1
5711 3
5712 17
5713 20
5714 3
5715 1
5716 9
5717 2
5718 9
5719 8
5720 10
5721 3
5722 4
5723 17
5724 20
5725 9
5726 10
5727 9
5728 5
5729 9
5730 7
5731 10
5732 8
5733 9
5734 3
5735 24
5736 1
5737 20
5738 8
5739 23
5740 8
5741 10
5742 23
5743 23
5744 0
5745 9
5746 9
5747 4
5748 5
5749 9
5750 1
5751 5
5752 1
5753 7
5754 10
5755 3
5756 3
5757 15
5758 16
5759 8
5760 9
5761 0
5762 17
5763 1
5764 9
5765 7
5766 0
5767 0
5768 1
5769 3
5770 9
5771 18
5772 9
5773 3
5774 10
5775 9
5776 13
5777 6
5778 4
5779 1
5780 16
5781 14
5782 3
5783 12
5784 21
5785 9
5786 1
5787 8
5788 2
5789 10
5790 19
5791 6
5792 3
5793 9
5794 2
5795 1
5796 0
5797 12
5798 3
5799 10
5800 2
5801 1
5802 4
5803 9
5804 3
5805 10
5806 3
5807 10
5808 10
5809 8
5810 9
5811 10
5812 3
5813 10
5814 10
5815 10
5816 9
5817 17
5818 10
5819 17
5820 10
5821 21
5822 9
5823 7
5824 1
5825 9
5826 3
5827 15
5828 10
5829 3
5830 14
5831 1
5832 16
5833 16
5834 10
5835 17
5836 10
5837 12
5838 9
5839 10
5840 10
5841 13
5842 19
5843 24
5844 10
5845 19
5846 24
5847 1
5848 1
5849 8
5850 10
5851 18
5852 21
5853 5
5854 10
5855 9
5856 13
5857 16
5858 19
5859 6
5860 10
5861 9
5862 14
5863 4
5864 1
5865 17
5866 9
5867 9
5868 9
5869 3
5870 1
5871 10
5872 3
5873 7
5874 0
5875 4
5876 14
5877 9
5878 18
5879 23
5880 7
5881 0
5882 9
5883 23
5884 3
5885 9
5886 0
5887 3
5888 8
5889 9
5890 0
5891 9
5892 1
5893 9
5894 12
5895 4
5896 10
5897 9
5898 10
5899 0
5900 3
5901 14
5902 2
5903 10
5904 22
5905 12
5906 9
5907 4
5908 1
5909 5
5910 9
5911 1
5912 1
5913 1
5914 3
5915 7
5916 16
5917 1
5918 8
5919 9
5920 10
5921 0
5922 20
5923 10
5924 10
5925 9
5926 3
5927 1
5928 2
5929 0
5930 3
5931 3
5932 7
5933 10
5934 0
5935 9
5936 10
5937 3
5938 10
5939 1
5940 4
5941 10
5942 3
5943 1
5944 16
5945 1
5946 6
5947 3
5948 22
5949 17
5950 15
5951 8
5952 9
5953 15
5954 9
5955 6
5956 4
5957 19
5958 11
5959 11
5960 8
5961 17
5962 0
5963 9
5964 0
5965 10
5966 10
5967 10
5968 1
5969 3
5970 13
5971 10
5972 22
5973 17
5974 8
5975 10
5976 9
5977 10
5978 9
5979 9
5980 1
5981 1
5982 10
5983 3
5984 1
5985 7
5986 11
5987 8
5988 1
5989 1
5990 10
5991 6
5992 18
5993 1
5994 24
5995 1
5996 10
5997 10
5998 1
5999 7
6000 9
6001 8
6002 11
6003 10
6004 19
6005 10
6006 9
6007 11
6008 1
6009 24
6010 19
6011 9
6012 3
6013 1
6014 3
6015 0
6016 8
6017 3
6018 9
6019 23
6020 22
6021 7
6022 10
6023 16
6024 10
6025 13
6026 8
6027 9
6028 3
6029 10
6030 4
6031 11
6032 1
6033 1
6034 0
6035 10
6036 3
6037 6
6038 1
6039 0
6040 9
6041 12
6042 1
6043 10
6044 9
6045 2
6046 9
6047 9
6048 14
6049 23
6050 9
6051 10
6052 3
6053 8
6054 19
6055 21
6056 4
6057 16
6058 11
6059 10
6060 10
6061 6
6062 9
6063 1
6064 9
6065 2
6066 4
6067 3
6068 12
6069 12
6070 5
6071 16
6072 11
6073 6
6074 1
6075 2
6076 9
6077 6
6078 7
6079 1
6080 8
6081 6
6082 9
6083 19
6084 8
6085 5
6086 3
6087 7
6088 9
6089 10
6090 3
6091 9
6092 14
6093 10
6094 1
6095 1
6096 9
6097 10
6098 1
6099 3
6100 6
6101 3
6102 9
6103 3
6104 1
6105 1
6106 10
6107 17
6108 10
6109 0
6110 10
6111 0
6112 9
6113 6
6114 4
6115 0
6116 2
6117 8
6118 9
6119 21
6120 16
6121 1
6122 20
6123 9
6124 2
6125 7
6126 3
6127 8
6128 3
6129 12
6130 1
6131 8
6132 24
6133 20
6134 9
6135 20
6136 18
6137 17
6138 11
6139 1
6140 5
6141 5
6142 11
6143 5
6144 9
6145 7
6146 22
6147 2
6148 5
6149 4
6150 9
6151 16
6152 5
6153 3
6154 10
6155 10
6156 15
6157 1
6158 7
6159 9
6160 3
6161 6
6162 9
6163 3
6164 10
6165 1
6166 9
6167 10
6168 19
6169 6
6170 19
6171 3
6172 8
6173 12
6174 10
6175 1
6176 2
6177 18
6178 8
6179 3
6180 10
6181 2
6182 5
6183 1
6184 3
6185 17
6186 10
6187 1
6188 4
6189 3
6190 3
6191 11
6192 3
6193 10
6194 5
6195 3
6196 18
6197 8
6198 1
6199 8
6200 12
6201 12
6202 12
6203 1
6204 4
6205 1
6206 10
6207 4
6208 11
6209 1
6210 4
6211 9
6212 3
6213 0
6214 6
6215 11
6216 9
6217 20
6218 15
6219 3
6220 9
6221 0
6222 12
6223 8
6224 18
6225 1
6226 9
6227 9
6228 14
6229 9
6230 9
6231 0
6232 1
6233 15
6234 10
6235 0
6236 3
6237 10
6238 1
6239 6
6240 9
6241 0
6242 5
6243 9
6244 9
6245 17
6246 3
6247 0
6248 10
6249 12
6250 1
6251 0
6252 9
6253 16
6254 12
6255 3
6256 3
6257 7
6258 8
6259 9
6260 16
6261 17
6262 10
6263 20
6264 11
6265 0
6266 4
6267 3
6268 1
6269 1
6270 9
6271 9
6272 12
6273 4
6274 14
6275 0
6276 15
6277 1
6278 18
6279 10
6280 9
6281 1
6282 1
6283 10
6284 13
6285 9
6286 0
6287 19
6288 3
6289 9
6290 10
6291 23
6292 1
6293 0
6294 0
6295 10
6296 9
6297 10
6298 3
6299 7
6300 2
6301 12
6302 3
6303 9
6304 4
6305 10
6306 3
6307 10
6308 9
6309 7
6310 1
6311 5
6312 3
6313 9
6314 9
6315 5
6316 12
6317 3
6318 10
6319 9
6320 18
6321 2
6322 3
6323 10
6324 23
6325 4
6326 2
6327 3
6328 10
6329 15
6330 7
6331 14
6332 4
6333 12
6334 10
6335 15
6336 18
6337 17
6338 4
6339 18
6340 3
6341 22
6342 0
6343 14
6344 8
6345 2
6346 9
6347 3
6348 21
6349 12
6350 0
6351 10
6352 9
6353 10
6354 10
6355 9
6356 15
6357 8
6358 4
6359 17
6360 4
6361 2
6362 4
6363 24
6364 0
6365 2
6366 22
6367 16
6368 4
6369 9
6370 10
6371 8
6372 7
6373 3
6374 3
6375 1
6376 1
6377 10
6378 0
6379 0
6380 9
6381 8
6382 0
6383 9
6384 6
6385 17
6386 1
6387 4
6388 0
6389 12
6390 12
6391 11
6392 1
6393 23
6394 12
6395 8
6396 10
6397 10
6398 3
6399 9
6400 9
6401 3
6402 3
6403 1
6404 4
6405 10
6406 15
6407 22
6408 10
6409 17
6410 3
6411 9
6412 22
6413 3
6414 3
6415 16
6416 4
6417 9
6418 2
6419 18
6420 10
6421 10
6422 9
6423 15
6424 24
6425 7
6426 14
6427 19
6428 10
6429 12
6430 2
6431 1
6432 9
6433 10
6434 1
6435 1
6436 17
6437 9
6438 17
6439 20
6440 12
6441 9
6442 0
6443 10
6444 19
6445 12
6446 11
6447 16
6448 10
6449 9
6450 10
6451 9
6452 1
6453 11
6454 10
6455 15
6456 20
6457 7
6458 3
6459 1
6460 17
6461 4
6462 8
6463 3
6464 23
6465 1
6466 2
6467 1
6468 9
6469 10
6470 8
6471 24
6472 9
6473 5
6474 14
6475 23
6476 10
6477 3
6478 8
6479 24
6480 9
6481 14
6482 0
6483 23
6484 7
6485 1
6486 19
6487 20
6488 12
6489 9
6490 2
6491 16
6492 9
6493 4
6494 10
6495 2
6496 20
6497 15
6498 8
6499 3
6500 10
6501 14
6502 9
6503 8
6504 21
6505 15
6506 17
6507 1
6508 1
6509 10
6510 7
6511 10
6512 10
6513 3
6514 15
6515 7
6516 1
6517 1
6518 20
6519 17
6520 0
6521 23
6522 9
6523 9
6524 16
6525 4
6526 5
6527 1
6528 6
6529 3
6530 20
6531 0
6532 15
6533 11
6534 17
6535 10
6536 10
6537 2
6538 7
6539 8
6540 6
6541 8
6542 10
6543 0
6544 4
6545 17
6546 12
6547 10
6548 3
6549 9
6550 1
6551 21
6552 9
6553 9
6554 8
6555 22
6556 4
6557 10
6558 1
6559 1
6560 21
6561 9
6562 0
6563 13
6564 3
6565 8
6566 9
6567 9
6568 9
6569 3
6570 9
6571 10
6572 10
6573 9
6574 8
6575 4
6576 6
6577 10
6578 1
6579 2
6580 10
6581 5
6582 18
6583 2
6584 6
6585 10
6586 4
6587 4
6588 0
6589 10
6590 10
6591 1
6592 3
6593 1
6594 21
6595 6
6596 20
6597 14
6598 1
6599 5
6600 12
6601 5
6602 12
6603 1
6604 13
6605 3
6606 2
6607 4
6608 3
6609 9
6610 3
6611 21
6612 16
6613 4
6614 3
6615 10
6616 6
6617 12
6618 8
6619 17
6620 8
6621 5
6622 8
6623 2
6624 10
6625 1
6626 9
6627 13
6628 9
6629 21
6630 1
6631 9
6632 10
6633 10
6634 2
6635 1
6636 6
6637 9
6638 12
6639 12
6640 8
6641 8
6642 17
6643 0
6644 5
6645 9
6646 9
6647 1
6648 5
6649 3
6650 2
6651 10
6652 10
6653 0
6654 10
6655 3
6656 20
6657 23
6658 10
6659 5
6660 9
6661 1
6662 3
6663 1
6664 15
6665 3
6666 3
6667 1
6668 3
6669 9
6670 10
6671 1
6672 11
6673 4
6674 12
6675 8
6676 3
6677 16
6678 10
6679 6
6680 1
6681 4
6682 0
6683 18
6684 17
6685 3
6686 0
6687 7
6688 3
6689 21
6690 3
6691 1
6692 12
6693 9
6694 12
6695 8
6696 10
6697 10
6698 10
6699 3
6700 22
6701 1
6702 23
6703 0
6704 9
6705 10
6706 1
6707 1
6708 4
6709 19
6710 8
6711 3
6712 9
6713 0
6714 2
6715 1
6716 8
6717 12
6718 1
6719 8
6720 6
6721 3
6722 9
6723 12
6724 19
6725 9
6726 10
6727 15
6728 6
6729 7
6730 3
6731 0
6732 10
6733 3
6734 18
6735 8
6736 9
6737 7
6738 11
6739 9
6740 9
6741 10
6742 9
6743 5
6744 2
6745 12
6746 0
6747 11
6748 9
6749 1
6750 21
6751 4
6752 23
6753 8
6754 10
6755 10
6756 1
6757 3
6758 14
6759 13
6760 9
6761 21
6762 9
6763 0
6764 1
6765 0
6766 3
6767 8
6768 10
6769 4
6770 3
6771 8
6772 0
6773 10
6774 18
6775 6
6776 3
6777 16
6778 17
6779 3
6780 10
6781 9
6782 24
6783 0
6784 3
6785 10
6786 8
6787 8
6788 1
6789 10
6790 19
6791 10
6792 3
6793 23
6794 10
6795 1
6796 7
6797 17
6798 3
6799 10
6800 15
6801 0
6802 23
6803 9
6804 1
6805 14
6806 16
6807 10
6808 12
6809 14
6810 9
6811 3
6812 4
6813 3
6814 1
6815 10
6816 19
6817 1
6818 18
6819 11
6820 10
6821 10
6822 7
6823 9
6824 2
6825 10
6826 5
6827 4
6828 10
6829 9
6830 10
6831 20
6832 11
6833 7
6834 9
6835 3
6836 1
6837 9
6838 16
6839 16
6840 19
6841 1
6842 10
6843 3
6844 9
6845 9
6846 7
6847 9
6848 3
6849 9
6850 17
6851 15
6852 2
6853 10
6854 10
6855 17
6856 19
6857 16
6858 10
6859 1
6860 1
6861 0
6862 1
6863 8
6864 9
6865 1
6866 0
6867 8
6868 10
6869 7
6870 7
6871 16
6872 8
6873 17
6874 4
6875 8
6876 9
6877 1
6878 0
6879 0
6880 13
6881 10
6882 0
6883 18
6884 16
6885 9
6886 9
6887 9
6888 12
6889 9
6890 4
6891 8
6892 8
6893 1
6894 1
6895 17
6896 10
6897 9
6898 9
6899 1
6900 4
6901 9
6902 14
6903 8
6904 10
6905 2
6906 4
6907 10
6908 9
6909 3
6910 7
6911 9
6912 9
6913 23
6914 9
6915 15
6916 1
6917 2
6918 10
6919 9
6920 8
6921 18
6922 3
6923 10
6924 9
6925 18
6926 15
6927 9
6928 22
6929 1
6930 9
6931 0
6932 5
6933 11
6934 2
6935 5
6936 5
6937 10
6938 3
6939 14
6940 10
6941 12
6942 9
6943 4
6944 0
6945 0
6946 19
6947 19
6948 24
6949 10
6950 12
6951 9
6952 8
6953 1
6954 9
6955 2
6956 8
6957 1
6958 12
6959 3
6960 12
6961 3
6962 8
6963 10
6964 18
6965 10
6966 3
6967 9
6968 1
6969 13
6970 5
6971 9
6972 4
6973 9
6974 9
6975 9
6976 1
6977 10
6978 3
6979 1
6980 17
6981 1
6982 1
6983 16
6984 0
6985 1
6986 9
6987 17
6988 9
6989 9
6990 13
6991 16
6992 19
6993 0
6994 10
6995 12
6996 1
6997 18
6998 0
6999 1
7000 1
7001 8
7002 12
7003 16
7004 8
7005 3
7006 9
7007 9
7008 1
7009 11
7010 1
7011 17
7012 23
7013 12
7014 10
7015 13
7016 23
7017 15
7018 9
7019 10
7020 1
7021 2
7022 9
7023 10
7024 24
7025 15
7026 1
7027 9
7028 3
7029 1
7030 3
7031 9
7032 1
7033 6
7034 10
7035 15
7036 1
7037 15
7038 3
7039 6
7040 1
7041 21
7042 5
7043 1
7044 17
7045 1
7046 9
7047 9
7048 19
7049 1
7050 1
7051 2
7052 12
7053 11
7054 11
7055 10
7056 8
7057 7
7058 9
7059 1
7060 1
7061 0
7062 9
7063 3
7064 2
7065 10
7066 9
7067 11
7068 1
7069 9
7070 8
7071 9
7072 7
7073 1
7074 9
7075 2
7076 0
7077 1
7078 15
7079 8
7080 9
7081 6
7082 21
7083 4
7084 17
7085 0
7086 17
7087 1
7088 12
7089 10
7090 3
7091 7
7092 9
7093 1
7094 1
7095 1
7096 8
7097 10
7098 0
7099 23
7100 8
7101 0
7102 9
7103 10
7104 6
7105 1
7106 12
7107 3
7108 1
7109 1
7110 9
7111 7
7112 10
7113 0
7114 7
7115 20
7116 11
7117 23
7118 9
7119 1
7120 1
7121 9
7122 6
7123 8
7124 23
7125 4
7126 10
7127 0
7128 3
7129 19
7130 15
7131 12
7132 6
7133 21
7134 17
7135 17
7136 12
7137 3
7138 16
7139 0
7140 9
7141 3
7142 3
7143 9
7144 12
7145 3
7146 23
7147 12
7148 9
7149 24
7150 8
7151 23
7152 17
7153 1
7154 2
7155 3
7156 22
7157 1
7158 15
7159 23
7160 4
7161 9
7162 3
7163 12
7164 23
7165 6
7166 14
7167 8
7168 9
7169 8
7170 19
7171 14
7172 1
7173 3
7174 10
7175 11
7176 14
7177 0
7178 10
7179 4
7180 3
7181 14
7182 2
7183 6
7184 5
7185 1
7186 11
7187 3
7188 9
7189 22
7190 2
7191 1
7192 10
7193 2
7194 3
7195 9
7196 15
7197 17
7198 17
7199 17
7200 21
7201 4
7202 12
7203 15
7204 14
7205 0
7206 4
7207 15
7208 9
7209 5
7210 10
7211 10
7212 19
7213 11
7214 10
7215 0
7216 9
7217 9
7218 10
7219 7
7220 11
7221 3
7222 8
7223 4
7224 19
7225 15
7226 2
7227 1
7228 8
7229 0
7230 3
7231 3
7232 17
7233 2
7234 20
7235 16
7236 10
7237 3
7238 1
7239 10
7240 0
7241 14
7242 10
7243 11
7244 23
7245 23
7246 9
7247 13
7248 9
7249 1
7250 2
7251 3
7252 10
7253 7
7254 3
7255 1
7256 10
7257 10
7258 17
7259 10
7260 9
7261 20
7262 23
7263 9
7264 11
7265 1
7266 10
7267 3
7268 10
7269 18
7270 19
7271 7
7272 20
7273 8
7274 10
7275 15
7276 12
7277 10
7278 24
7279 9
7280 22
7281 7
7282 4
7283 16
7284 9
7285 12
7286 6
7287 9
7288 12
7289 2
7290 2
7291 10
7292 22
7293 10
7294 9
7295 9
7296 3
7297 9
7298 10
7299 1
7300 7
7301 10
7302 11
7303 17
7304 6
7305 19
7306 3
7307 12
7308 10
7309 1
7310 3
7311 2
7312 19
7313 19
7314 4
7315 1
7316 10
7317 10
7318 12
7319 19
7320 8
7321 10
7322 8
7323 1
7324 17
7325 10
7326 1
7327 3
7328 1
7329 1
7330 17
7331 10
7332 1
7333 2
7334 1
7335 1
7336 12
7337 1
7338 21
7339 19
7340 3
7341 1
7342 10
7343 6
7344 10
7345 9
7346 3
7347 7
7348 9
7349 13
7350 1
7351 8
7352 9
7353 12
7354 9
7355 3
7356 9
7357 23
7358 16
7359 9
7360 10
7361 15
7362 19
7363 20
7364 1
7365 8
7366 12
7367 2
7368 11
7369 12
7370 9
7371 9
7372 10
7373 0
7374 0
7375 8
7376 17
7377 12
7378 0
7379 10
7380 2
7381 10
7382 8
7383 8
7384 10
7385 8
7386 5
7387 5
7388 20
7389 9
7390 7
7391 19
7392 9
7393 1
7394 16
7395 3
7396 0
7397 3
7398 3
7399 1
7400 9
7401 7
7402 17
7403 2
7404 3
7405 7
7406 3
7407 14
7408 1
7409 14
7410 19
7411 3
7412 5
7413 17
7414 8
7415 5
7416 3
7417 12
7418 15
7419 23
7420 3
7421 7
7422 2
7423 10
7424 20
7425 10
7426 6
7427 15
7428 10
7429 15
7430 10
7431 1
7432 21
7433 0
7434 0
7435 10
7436 0
7437 3
7438 0
7439 10
7440 10
7441 9
7442 8
7443 1
7444 12
7445 24
7446 9
7447 0
7448 3
7449 9
7450 18
7451 6
7452 8
7453 10
7454 17
7455 23
7456 2
7457 0
7458 11
7459 16
7460 3
7461 15
7462 11
7463 1
7464 1
7465 1
7466 4
7467 9
7468 3
7469 10
7470 10
7471 10
7472 18
7473 3
7474 3
7475 11
7476 7
7477 9
7478 3
7479 1
7480 1
7481 1
7482 12
7483 17
7484 9
7485 4
7486 9
7487 0
7488 5
7489 9
7490 13
7491 12
7492 3
7493 13
7494 5
7495 3
7496 13
7497 1
7498 12
7499 18
7500 1
7501 19
7502 19
7503 10
7504 10
7505 17
7506 10
7507 15
7508 7
7509 9
7510 4
7511 9
7512 8
7513 23
7514 22
7515 8
7516 20
7517 1
7518 8
7519 2
7520 9
7521 12
7522 24
7523 8
7524 19
7525 10
7526 4
7527 12
7528 13
7529 24
7530 0
7531 10
7532 12
7533 7
7534 6
7535 21
7536 10
7537 16
7538 8
7539 13
7540 11
7541 23
7542 21
7543 9
7544 9
7545 9
7546 11
7547 18
7548 15
7549 4
7550 1
7551 3
7552 10
7553 9
7554 3
7555 17
7556 18
7557 1
7558 8
7559 9
7560 8
7561 22
7562 9
7563 12
7564 9
7565 10
7566 4
7567 23
7568 1
7569 8
7570 2
7571 3
7572 10
7573 12
7574 10
7575 14
7576 17
7577 5
7578 11
7579 9
7580 10
7581 9
7582 23
7583 10
7584 12
7585 1
7586 1
7587 13
7588 3
7589 9
7590 12
7591 9
7592 1
7593 4
7594 1
7595 12
7596 7
7597 10
7598 0
7599 17
7600 17
7601 9
7602 3
7603 0
7604 1
7605 11
7606 3
7607 0
7608 20
7609 3
7610 10
7611 15
7612 8
7613 8
7614 1
7615 15
7616 16
7617 21
7618 9
7619 1
7620 10
7621 1
7622 9
7623 8
7624 11
7625 12
7626 8
7627 10
7628 13
7629 22
7630 11
7631 9
7632 3
7633 0
7634 9
7635 7
7636 7
7637 9
7638 1
7639 17
7640 4
7641 2
7642 4
7643 19
7644 1
7645 10
7646 1
7647 3
7648 10
7649 1
7650 3
7651 17
7652 17
7653 17
7654 10
7655 10
7656 10
7657 4
7658 7
7659 9
7660 3
7661 12
7662 1
7663 3
7664 1
7665 8
7666 13
7667 1
7668 19
7669 10
7670 11
7671 9
7672 18
7673 9
7674 9
7675 3
7676 1
7677 3
7678 10
7679 1
7680 10
7681 9
7682 10
7683 21
7684 9
7685 9
7686 3
7687 10
7688 10
7689 8
7690 11
7691 17
7692 16
7693 3
7694 14
7695 16
7696 10
7697 9
7698 5
7699 0
7700 5
7701 4
7702 17
7703 1
7704 14
7705 15
7706 9
7707 23
7708 3
7709 3
7710 11
7711 21
7712 1
7713 10
7714 1
7715 5
7716 1
7717 17
7718 1
7719 10
7720 9
7721 15
7722 18
7723 0
7724 8
7725 9
7726 8
7727 11
7728 8
7729 8
7730 10
7731 9
7732 8
7733 8
7734 3
7735 9
7736 2
7737 1
7738 0
7739 23
7740 9
7741 4
7742 10
7743 7
7744 9
7745 12
7746 9
7747 20
7748 15
7749 3
7750 21
7751 12
7752 6
7753 10
7754 0
7755 7
7756 4
7757 2
7758 3
7759 3
7760 13
7761 19
7762 10
7763 17
7764 22
7765 15
7766 21
7767 1
7768 1
7769 11
7770 3
7771 1
7772 10
7773 2
7774 20
7775 10
7776 14
7777 1
7778 3
7779 4
7780 20
7781 7
7782 1
7783 3
7784 8
7785 10
7786 6
7787 3
7788 5
7789 1
7790 18
7791 1
7792 1
7793 3
7794 24
7795 4
7796 0
7797 9
7798 10
7799 12
7800 3
7801 9
7802 9
7803 8
7804 3
7805 1
7806 0
7807 9
7808 3
7809 2
7810 1
7811 3
7812 8
7813 16
7814 0
7815 21
7816 3
7817 9
7818 9
7819 1
7820 1
7821 1
7822 10
7823 1
7824 8
7825 3
7826 10
7827 1
7828 23
7829 15
7830 19
7831 12
7832 17
7833 22
7834 9
7835 1
7836 10
7837 15
7838 2
7839 0
7840 2
7841 3
7842 9
7843 9
7844 1
7845 17
7846 5
7847 0
7848 3
7849 12
7850 0
7851 9
7852 12
7853 15
7854 19
7855 9
7856 12
7857 1
7858 4
7859 6
7860 1
7861 11
7862 3
7863 10
7864 3
7865 5
7866 1
7867 3
7868 9
7869 9
7870 6
7871 4
7872 21
7873 1
7874 14
7875 8
7876 24
7877 8
7878 9
7879 2
7880 9
7881 1
7882 1
7883 12
7884 15
7885 9
7886 9
7887 10
7888 10
7889 10
7890 0
7891 5
7892 2
7893 0
7894 15
7895 1
7896 9
7897 19
7898 10
7899 4
7900 9
7901 12
7902 10
7903 10
7904 10
7905 0
7906 22
7907 1
7908 9
7909 8
7910 9
7911 23
7912 3
7913 11
7914 5
7915 2
7916 8
7917 6
7918 1
7919 9
7920 6
7921 1
7922 9
7923 1
7924 11
7925 9
7926 3
7927 2
7928 10
7929 17
7930 10
7931 17
7932 3
7933 5
7934 17
7935 9
7936 1
7937 19
7938 24
7939 6
7940 21
7941 21
7942 19
7943 1
7944 9
7945 2
7946 5
7947 10
7948 21
7949 24
7950 15
7951 10
7952 13
7953 10
7954 19
7955 17
7956 16
7957 6
7958 7
7959 9
7960 16
7961 1
7962 9
7963 9
7964 9
7965 21
7966 9
7967 9
7968 9
7969 1
7970 19
7971 9
7972 23
7973 0
7974 6
7975 3
7976 8
7977 12
7978 23
7979 1
7980 1
7981 1
7982 3
7983 1
7984 8
7985 10
7986 2
7987 9
7988 14
7989 1
7990 1
7991 1
7992 14
7993 0
7994 6
7995 4
7996 23
7997 3
7998 0
7999 10
8000 18
8001 19
8002 14
8003 0
8004 9
8005 3
8006 0
8007 17
8008 22
8009 17
8010 10
8011 0
8012 3
8013 1
8014 1
8015 10
8016 9
8017 9
8018 17
8019 5
8020 9
8021 17
8022 4
8023 10
8024 9
8025 10
8026 1
8027 6
8028 9
8029 1
8030 8
8031 21
8032 9
8033 10
8034 10
8035 4
8036 12
8037 2
8038 9
8039 1
8040 12
8041 3
8042 10
8043 7
8044 10
8045 15
8046 1
8047 1
8048 11
8049 3
8050 10
8051 9
8052 3
8053 22
8054 9
8055 0
8056 3
8057 10
8058 10
8059 10
8060 9
8061 9
8062 3
8063 4
8064 18
8065 0
8066 2
8067 10
8068 0
8069 1
8070 3
8071 19
8072 18
8073 22
8074 21
8075 17
8076 19
8077 18
8078 9
8079 9
8080 16
8081 12
8082 20
8083 22
8084 11
8085 9
8086 9
8087 0
8088 9
8089 7
8090 19
8091 1
8092 3
8093 1
8094 8
8095 3
8096 3
8097 15
8098 7
8099 13
8100 1
8101 6
8102 10
8103 10
8104 12
8105 3
8106 1
8107 19
8108 2
8109 1
8110 9
8111 6
8112 9
8113 1
8114 8
8115 17
8116 10
8117 1
8118 14
8119 9
8120 3
8121 11
8122 3
8123 7
8124 10
8125 6
8126 10
8127 10
8128 10
8129 11
8130 12
8131 8
8132 1
8133 7
8134 17
8135 18
8136 7
8137 9
8138 3
8139 10
8140 10
8141 10
8142 9
8143 23
8144 3
8145 9
8146 8
8147 8
8148 9
8149 4
8150 10
8151 1
8152 10
8153 12
8154 5
8155 23
8156 18
8157 9
8158 1
8159 2
8160 21
8161 11
8162 20
8163 10
8164 9
8165 10
8166 16
8167 10
8168 6
8169 16
8170 12
8171 15
8172 8
8173 1
8174 8
8175 10
8176 24
8177 13
8178 1
8179 4
8180 9
8181 3
8182 1
8183 3
8184 10
8185 0
8186 3
8187 1
8188 7
8189 7
8190 2
8191 21
8192 3
8193 16
8194 7
8195 4
8196 8
8197 1
8198 10
8199 1
8200 4
8201 9
8202 20
8203 1
8204 10
8205 1
8206 14
8207 8
8208 1
8209 1
8210 0
8211 8
8212 3
8213 8
8214 3
8215 1
8216 6
8217 8
8218 8
8219 14
8220 7
8221 10
8222 21
8223 5
8224 9
8225 3
8226 14
8227 10
8228 3
8229 0
8230 18
8231 18
8232 1
8233 21
8234 8
8235 10
8236 10
8237 13
8238 10
8239 18
8240 2
8241 11
8242 9
8243 3
8244 17
8245 4
8246 8
8247 4
8248 9
8249 3
8250 17
8251 9
8252 8
8253 10
8254 3
8255 1
8256 9
8257 6
8258 14
8259 3
8260 0
8261 1
8262 8
8263 18
8264 17
8265 5
8266 2
8267 8
8268 3
8269 11
8270 0
8271 11
8272 18
8273 17
8274 22
8275 2
8276 10
8277 2
8278 9
8279 3
8280 15
8281 12
8282 21
8283 11
8284 0
8285 10
8286 10
8287 1
8288 12
8289 14
8290 4
8291 0
8292 9
8293 12
8294 7
8295 13
8296 6
8297 15
8298 1
8299 8
8300 11
8301 9
8302 8
8303 13
8304 9
8305 1
8306 2
8307 1
8308 12
8309 0
8310 10
8311 9
8312 24
8313 8
8314 12
8315 17
8316 1
8317 10
8318 10
8319 9
8320 9
8321 1
8322 10
8323 9
8324 12
8325 8
8326 10
8327 4
8328 9
8329 10
8330 9
8331 16
8332 9
8333 1
8334 3
8335 3
8336 3
8337 10
8338 10
8339 12
8340 22
8341 14
8342 10
8343 10
8344 17
8345 0
8346 2
8347 2
8348 1
8349 11
8350 3
8351 22
8352 1
8353 3
8354 20
8355 9
8356 3
8357 17
8358 15
8359 17
8360 9
8361 5
8362 8
8363 3
8364 4
8365 12
8366 7
8367 8
8368 3
8369 22
8370 11
8371 8
8372 3
8373 10
8374 1
8375 1
8376 21
8377 1
8378 8
8379 7
8380 1
8381 10
8382 10
8383 15
8384 3
8385 13
8386 3
8387 14
8388 4
8389 1
8390 3
8391 10
8392 1
8393 23
8394 9
8395 3
8396 3
8397 2
8398 2
8399 10
8400 3
8401 9
8402 8
8403 9
8404 12
8405 9
8406 6
8407 9
8408 5
8409 9
8410 10
8411 0
8412 23
8413 10
8414 1
8415 17
8416 23
8417 9
8418 19
8419 2
8420 17
8421 3
8422 5
8423 9
8424 2
8425 1
8426 11
8427 20
8428 9
8429 9
8430 1
8431 9
8432 3
8433 12
8434 3
8435 9
8436 9
8437 1
8438 3
8439 11
8440 4
8441 3
8442 1
8443 23
8444 17
8445 9
8446 9
8447 6
8448 20
8449 9
8450 3
8451 9
8452 6
8453 4
8454 1
8455 15
8456 9
8457 14
8458 23
8459 17
8460 20
8461 6
8462 24
8463 9
8464 10
8465 15
8466 17
8467 4
8468 10
8469 10
8470 22
8471 13
8472 17
8473 3
8474 0
8475 12
8476 1
8477 15
8478 0
8479 7
8480 10
8481 23
8482 8
8483 20
8484 16
8485 9
8486 9
8487 6
8488 17
8489 9
8490 10
8491 6
8492 3
8493 3
8494 1
8495 9
8496 1
8497 1
8498 1
8499 9
8500 23
8501 1
8502 15
8503 8
8504 3
8505 4
8506 0
8507 15
8508 1
8509 8
8510 11
8511 9
8512 21
8513 10
8514 15
8515 15
8516 8
8517 9
8518 10
8519 16
8520 9
8521 1
8522 10
8523 18
8524 8
8525 10
8526 17
8527 3
8528 19
8529 4
8530 9
8531 10
8532 22
8533 9
8534 12
8535 1
8536 3
8537 1
8538 13
8539 0
8540 3
8541 8
8542 4
8543 1
8544 3
8545 0
8546 10
8547 1
8548 8
8549 9
8550 9
8551 4
8552 5
8553 9
8554 11
8555 10
8556 6
8557 1
8558 9
8559 0
8560 3
8561 4
8562 4
8563 17
8564 8
8565 8
8566 8
8567 9
8568 24
8569 16
8570 1
8571 3
8572 10
8573 1
8574 1
8575 10
8576 9
8577 14
8578 2
8579 8
8580 9
8581 9
8582 14
8583 9
8584 9
8585 7
8586 9
8587 14
8588 23
8589 3
8590 1
8591 9
8592 8
8593 10
8594 23
8595 3
8596 14
8597 12
8598 15
8599 9
8600 2
8601 8
8602 10
8603 6
8604 15
8605 3
8606 0
8607 24
8608 1
8609 14
8610 7
8611 7
8612 1
8613 10
8614 10
8615 1
8616 15
8617 9
8618 9
8619 20
8620 19
8621 9
8622 2
8623 3
8624 8
8625 8
8626 12
8627 1
8628 9
8629 8
8630 10
8631 10
8632 4
8633 9
8634 10
8635 6
8636 17
8637 12
8638 9
8639 1
8640 12
8641 1
8642 6
8643 12
8644 10
8645 12
8646 9
8647 1
8648 9
8649 3
8650 9
8651 13
8652 3
8653 1
8654 9
8655 10
8656 21
8657 3
8658 18
8659 2
8660 9
8661 9
8662 12
8663 10
8664 1
8665 9
8666 1
8667 1
8668 13
8669 13
8670 11
8671 8
8672 14
8673 8
8674 4
8675 13
8676 19
8677 6
8678 1
8679 9
8680 18
8681 10
8682 10
8683 1
8684 1
8685 1
8686 3
8687 0
8688 6
8689 1
8690 1
8691 10
8692 4
8693 12
8694 3
8695 8
8696 3
8697 8
8698 9
8699 9
8700 4
8701 7
8702 9
8703 10
8704 15
8705 12
8706 1
8707 17
8708 1
8709 10
8710 3
8711 24
8712 23
8713 21
8714 17
8715 9
8716 3
8717 9
8718 10
8719 22
8720 8
8721 4
8722 11
8723 1
8724 9
8725 4
8726 22
8727 9
8728 1
8729 3
8730 12
8731 19
8732 24
8733 1
8734 8
8735 7
8736 11
8737 8
8738 0
8739 8
8740 8
8741 5
8742 13
8743 9
8744 4
8745 1
8746 12
8747 10
8748 0
8749 3
8750 11
8751 1
8752 1
8753 0
8754 19
8755 15
8756 12
8757 1
8758 9
8759 1
8760 1
8761 1
8762 10
8763 21
8764 0
8765 2
8766 8
8767 0
8768 0
8769 0
8770 10
8771 9
8772 0
8773 18
8774 3
8775 8
8776 11
8777 3
8778 9
8779 20
8780 12
8781 10
8782 10
8783 9
8784 12
8785 12
8786 20
8787 17
8788 9
8789 8
8790 1
8791 15
8792 5
8793 10
8794 0
8795 2
8796 1
8797 10
8798 8
8799 14
8800 2
8801 17
8802 12
8803 3
8804 1
8805 3
8806 3
8807 5
8808 9
8809 9
8810 10
8811 18
8812 7
8813 6
8814 15
8815 3
8816 8
8817 8
8818 9
8819 3
8820 3
8821 15
8822 19
8823 9
8824 5
8825 12
8826 8
8827 3
8828 3
8829 7
8830 20
8831 1
8832 10
8833 0
8834 1
8835 10
8836 3
8837 5
8838 17
8839 9
8840 8
8841 4
8842 9
8843 9
8844 8
8845 5
8846 3
8847 23
8848 21
8849 8
8850 7
8851 11
8852 10
8853 13
8854 9
8855 15
8856 8
8857 3
8858 9
8859 1
8860 23
8861 9
8862 0
8863 3
8864 16
8865 8
8866 8
8867 15
8868 8
8869 1
8870 3
8871 10
8872 17
8873 17
8874 3
8875 21
8876 2
8877 3
8878 9
8879 1
8880 1
8881 10
8882 10
8883 8
8884 12
8885 12
8886 9
8887 18
8888 10
8889 22
8890 0
8891 10
8892 10
8893 10
8894 10
8895 9
8896 2
8897 20
8898 1
8899 0
8900 9
8901 8
8902 23
8903 8
8904 24
8905 1
8906 17
8907 0
8908 19
8909 4
8910 10
8911 9
8912 21
8913 1
8914 9
8915 10
8916 10
8917 19
8918 13
8919 24
8920 4
8921 10
8922 0
8923 8
8924 9
8925 10
8926 17
8927 9
8928 1
8929 15
8930 20
8931 9
8932 10
8933 1
8934 0
8935 15
8936 1
8937 9
8938 5
8939 11
8940 15
8941 8
8942 0
8943 5
8944 10
8945 3
8946 13
8947 3
8948 5
8949 3
8950 9
8951 17
8952 19
8953 10
8954 1
8955 2
8956 2
8957 1
8958 17
8959 16
8960 17
8961 6
8962 2
8963 17
8964 1
8965 24
8966 3
8967 21
8968 8
8969 8
8970 1
8971 1
8972 10
8973 3
8974 18
8975 1
8976 6
8977 2
8978 12
8979 10
8980 10
8981 9
8982 6
8983 1
8984 17
8985 12
8986 1
8987 10
8988 17
8989 9
8990 10
8991 2
8992 10
8993 3
8994 2
8995 23
8996 10
8997 12
8998 8
8999 3
9000 13
9001 11
9002 10
9003 1
9004 4
9005 21
9006 3
9007 1
9008 0
9009 15
9010 10
9011 8
9012 23
9013 3
9014 9
9015 10
9016 9
9017 10
9018 3
9019 13
9020 10
9021 1
9022 9
9023 6
9024 21
9025 10
9026 10
9027 6
9028 3
9029 11
9030 5
9031 12
9032 9
9033 18
9034 1
9035 0
9036 10
9037 3
9038 9
9039 12
9040 7
9041 9
9042 9
9043 10
9044 1
9045 10
9046 9
9047 3
9048 14
9049 6
9050 3
9051 11
9052 10
9053 10
9054 17
9055 0
9056 8
9057 7
9058 17
9059 8
9060 22
9061 5
9062 19
9063 1
9064 8
9065 5
9066 2
9067 1
9068 24
9069 3
9070 3
9071 12
9072 18
9073 2
9074 12
9075 12
9076 9
9077 23
9078 1
9079 18
9080 22
9081 10
9082 3
9083 3
9084 8
9085 10
9086 3
9087 2
9088 8
9089 10
9090 9
9091 9
9092 10
9093 4
9094 20
9095 10
9096 2
9097 8
9098 10
9099 9
9100 6
9101 5
9102 9
9103 8
9104 1
9105 10
9106 3
9107 9
9108 9
9109 0
9110 9
9111 4
9112 10
9113 10
9114 3
9115 8
9116 10
9117 8
9118 2
9119 10
9120 10
9121 1
9122 5
9123 22
9124 1
9125 9
9126 16
9127 9
9128 1
9129 3
9130 10
9131 17
9132 1
9133 1
9134 4
9135 13
9136 15
9137 17
9138 2
9139 8
9140 1
9141 3
9142 3
9143 1
9144 6
9145 9
9146 10
9147 8
9148 7
9149 4
9150 0
9151 9
9152 10
9153 12
9154 2
9155 12
9156 8
9157 20
9158 9
9159 12
9160 9
9161 10
9162 10
9163 0
9164 5
9165 9
9166 17
9167 22
9168 4
9169 2
9170 1
9171 9
9172 3
9173 1
9174 1
9175 12
9176 1
9177 11
9178 1
9179 1
9180 0
9181 1
9182 18
9183 3
9184 3
9185 5
9186 1
9187 8
9188 19
9189 17
9190 2
9191 4
9192 1
9193 1
9194 6
9195 8
9196 17
9197 10
9198 10
9199 1
9200 1
9201 9
9202 21
9203 10
9204 8
9205 9
9206 20
9207 10
9208 12
9209 18
9210 3
9211 9
9212 12
9213 9
9214 10
9215 1
9216 10
9217 8
9218 6
9219 10
9220 8
9221 10
9222 8
9223 18
9224 24
9225 9
9226 3
9227 8
9228 17
9229 10
9230 7
9231 15
9232 16
9233 9
9234 2
9235 5
9236 11
9237 10
9238 8
9239 23
9240 19
9241 11
9242 15
9243 8
9244 9
9245 10
9246 9
9247 15
9248 3
9249 3
9250 1
9251 1
9252 10
9253 10
9254 9
9255 10
9256 1
9257 18
9258 2
9259 1
9260 12
9261 19
9262 3
9263 9
9264 9
9265 24
9266 20
9267 17
9268 12
9269 1
9270 12
9271 1
9272 1
9273 3
9274 4
9275 10
9276 10
9277 1
9278 0
9279 9
9280 10
9281 15
9282 10
9283 10
9284 2
9285 17
9286 2
9287 1
9288 1
9289 10
9290 12
9291 22
9292 1
9293 16
9294 9
9295 10
9296 12
9297 19
9298 0
9299 20
9300 12
9301 9
9302 9
9303 20
9304 9
9305 13
9306 15
9307 3
9308 3
9309 15
9310 20
9311 16
9312 3
9313 9
9314 10
9315 7
9316 18
9317 23
9318 8
9319 1
9320 15
9321 8
9322 15
9323 7
9324 11
9325 10
9326 18
9327 3
9328 21
9329 5
9330 1
9331 19
9332 1
9333 16
9334 8
9335 17
9336 10
9337 0
9338 8
9339 1
9340 3
9341 10
9342 1
9343 4
9344 1
9345 19
9346 9
9347 6
9348 24
9349 3
9350 4
9351 5
9352 1
9353 7
9354 14
9355 13
9356 12
9357 2
9358 9
9359 1
9360 16
9361 1
9362 2
9363 10
9364 9
9365 10
9366 3
9367 1
9368 12
9369 11
9370 10
9371 11
9372 3
9373 18
9374 9
9375 8
9376 10
9377 8
9378 1
9379 10
9380 8
9381 6
9382 12
9383 0
9384 5
9385 9
9386 0
9387 1
9388 13
9389 10
9390 9
9391 8
9392 6
9393 8
9394 4
9395 9
9396 3
9397 3
9398 8
9399 17
9400 12
9401 10
9402 6
9403 19
9404 16
9405 24
9406 23
9407 5
9408 9
9409 10
9410 7
9411 9
9412 1
9413 1
9414 8
9415 1
9416 10
9417 11
9418 23
9419 19
9420 3
9421 4
9422 3
9423 16
9424 10
9425 8
9426 3
9427 1
9428 8
9429 10
9430 1
9431 1
9432 9
9433 1
9434 10
9435 21
9436 3
9437 10
9438 9
9439 10
9440 2
9441 8
9442 9
9443 9
9444 9
9445 1
9446 12
9447 4
9448 6
9449 9
9450 1
9451 1
9452 0
9453 9
9454 8
9455 0
9456 2
9457 5
9458 1
9459 10
9460 19
9461 12
9462 0
9463 24
9464 9
9465 16
9466 18
9467 3
9468 8
9469 9
9470 9
9471 1
9472 4
9473 14
9474 10
9475 15
9476 19
9477 7
9478 15
9479 7
9480 1
9481 5
9482 17
9483 4
9484 7
9485 11
9486 3
9487 8
9488 5
9489 18
9490 1
9491 4
9492 23
9493 2
9494 10
9495 1
9496 4
9497 6
9498 4
9499 9
9500 9
9501 12
9502 10
9503 21
9504 12
9505 4
9506 17
9507 3
9508 5
9509 3
9510 14
9511 1
9512 10
9513 18
9514 3
9515 16
9516 0
9517 10
9518 1
9519 0
9520 23
9521 9
9522 10
9523 10
9524 3
9525 6
9526 10
9527 3
9528 1
9529 9
9530 3
9531 10
9532 22
9533 1
9534 1
9535 18
9536 9
9537 20
9538 1
9539 1
9540 2
9541 10
9542 11
9543 5
9544 9
9545 10
9546 4
9547 7
9548 21
9549 7
9550 11
9551 8
9552 1
9553 7
9554 8
9555 3
9556 9
9557 10
9558 0
9559 10
9560 1
9561 10
9562 8
9563 1
9564 9
9565 14
9566 4
9567 10
9568 10
9569 11
9570 2
9571 16
9572 10
9573 9
9574 3
9575 13
9576 3
9577 16
9578 24
9579 12
9580 9
9581 1
9582 1
9583 15
9584 7
9585 22
9586 2
9587 19
9588 1
9589 3
9590 16
9591 9
9592 8
9593 0
9594 20
9595 7
9596 8
9597 3
9598 11
9599 9
9600 1
9601 10
9602 14
9603 9
9604 1
9605 0
9606 9
9607 16
9608 10
9609 10
9610 2
9611 20
9612 3
9613 9
9614 1
9615 8
9616 8
9617 9
9618 15
9619 8
9620 10
9621 9
9622 12
9623 2
9624 6
9625 0
9626 12
9627 3
9628 19
9629 8
9630 21
9631 12
9632 9
9633 9
9634 3
9635 12
9636 0
9637 3
9638 1
9639 17
9640 8
9641 7
9642 10
9643 0
9644 19
9645 9
9646 3
9647 12
9648 1
9649 3
9650 0
9651 12
9652 8
9653 10
9654 10
9655 23
9656 1
9657 5
9658 14
9659 9
9660 0
9661 5
9662 11
9663 18
9664 3
9665 4
9666 3
9667 8
9668 1
9669 8
9670 10
9671 9
9672 0
9673 13
9674 10
9675 10
9676 1
9677 3
9678 1
9679 3
9680 9
9681 5
9682 9
9683 0
9684 4
9685 10
9686 0
9687 12
9688 6
9689 5
9690 1
9691 12
9692 7
9693 10
9694 6
9695 0
9696 8
9697 9
9698 3
9699 18
9700 9
9701 10
9702 3
9703 1
9704 3
9705 1
9706 3
9707 9
9708 14
9709 1
9710 21
9711 1
9712 0
9713 9
9714 3
9715 22
9716 8
9717 16
9718 13
9719 7
9720 15
9721 9
9722 10
9723 4
9724 17
9725 5
9726 9
9727 2
9728 2
9729 15
9730 17
9731 17
9732 19
9733 9
9734 1
9735 3
9736 13
9737 15
9738 10
9739 8
9740 5
9741 1
9742 9
9743 9
9744 10
9745 8
9746 9
9747 14
9748 4
9749 7
9750 9
9751 12
9752 1
9753 10
9754 16
9755 10
9756 1
9757 17
9758 8
9759 21
9760 1
9761 10
9762 15
9763 10
9764 9
9765 6
9766 10
9767 3
9768 7
9769 9
9770 2
9771 8
9772 1
9773 17
9774 6
9775 9
9776 9
9777 4
9778 23
9779 0
9780 1
9781 9
9782 9
9783 3
9784 10
9785 14
9786 1
9787 1
9788 1
9789 17
9790 3
9791 18
9792 3
9793 3
9794 10
9795 10
9796 9
9797 10
9798 8
9799 1
9800 8
9801 2
9802 19
9803 4
9804 13
9805 9
9806 9
9807 1
9808 12
9809 1
9810 11
9811 10
9812 5
9813 8
9814 23
9815 7
9816 18
9817 13
9818 17
9819 19
9820 22
9821 8
9822 3
9823 9
9824 10
9825 2
9826 4
9827 11
9828 4
9829 10
9830 8
9831 18
9832 16
9833 10
9834 9
9835 2
9836 12
9837 23
9838 3
9839 3
9840 9
9841 10
9842 18
9843 11
9844 12
9845 16
9846 7
9847 16
9848 10
9849 0
9850 8
9851 1
9852 3
9853 10
9854 10
9855 4
9856 2
9857 3
9858 10
9859 8
9860 0
9861 3
9862 23
9863 9
9864 3
9865 21
9866 16
9867 3
9868 1
9869 8
9870 9
9871 3
9872 8
9873 18
9874 24
9875 13
9876 3
9877 3
9878 10
9879 6
9880 3
9881 1
9882 3
9883 1
9884 0
9885 12
9886 11
9887 10
9888 9
9889 7
9890 4
9891 18
9892 9
9893 1
9894 22
9895 3
9896 1
9897 10
9898 3
9899 1
9900 22
9901 8
9902 9
9903 15
9904 17
9905 4
9906 16
9907 7
9908 1
9909 4
9910 15
9911 3
9912 6
9913 14
9914 1
9915 15
9916 1
9917 4
9918 0
9919 1
9920 20
9921 15
9922 9
9923 15
9924 10
9925 5
9926 14
9927 1
9928 1
9929 8
9930 10
9931 12
9932 9
9933 8
9934 3
9935 0
9936 16
9937 12
9938 3
9939 3
9940 1
9941 3
9942 10
9943 10
9944 18
9945 11
9946 10
9947 13
9948 8
9949 9
9950 9
9951 13
9952 11
9953 5
9954 8
9955 9
9956 14
9957 3
9958 8
9959 15
9960 3
9961 7
9962 12
9963 3
9964 9
9965 11
9966 9
9967 17
9968 10
9969 1
9970 12
9971 2
9972 1
9973 10
9974 21
9975 1
9976 10
9977 1
9978 17
9979 10
9980 21
9981 9
9982 3
9983 4
9984 10
9985 1
9986 9
9987 10
9988 23
9989 3
9990 2
9991 1
9992 1
9993 3
9994 0
9995 1
9996 8
9997 15
9998 10
9999 8
