0 0
1 1
2 2
3 3
4 4
5 5
6 0
7 4
8 1
9 6
10 2
11 7
12 8
13 9
14 10
15 1
16 2
17 1
18 4
19 11
20 9
21 6
22 9
23 12
24 13
25 14
26 5
27 15
28 6
29 3
30 14
31 10
32 9
33 16
34 2
35 9
36 17
37 2
38 10
39 14
40 18
41 9
42 14
43 19
44 9
45 8
46 8
47 9
48 5
49 20
50 21
51 5
52 7
53 10
54 22
55 9
56 14
57 9
58 5
59 23
60 14
61 4
62 24
63 0
64 25
65 3
66 10
67 0
68 5
69 9
70 8
71 15
72 26
73 9
74 9
75 19
76 27
77 28
78 29
79 10
80 30
81 14
82 14
83 10
84 0
85 9
86 8
87 5
88 31
89 32
90 4
91 33
92 34
93 14
94 5
95 0
96 9
97 5
98 14
99 35
100 3
101 5
102 1
103 0
104 36
105 4
106 29
107 37
108 10
109 2
110 1
111 6
112 3
113 1
114 32
115 3
116 32
117 9
118 5
119 22
120 19
121 9
122 3
123 38
124 5
125 7
126 5
127 6
128 7
129 39
130 2
131 40
132 6
133 3
134 5
135 7
136 41
137 2
138 6
139 10
140 14
141 19
142 42
143 14
144 14
145 43
146 0
147 9
148 14
149 7
150 2
151 32
152 15
153 5
154 5
155 3
156 14
157 18
158 19
159 3
160 5
161 44
162 45
163 9
164 15
165 19
166 4
167 15
168 2
169 29
170 46
171 32
172 7
173 10
174 47
175 15
176 48
177 49
178 47
179 0
180 9
181 15
182 15
183 21
184 10
185 1
186 1
187 5
188 47
189 5
190 9
191 50
192 5
193 51
194 8
195 2
196 19
197 14
198 10
199 6
200 0
201 2
202 21
203 9
204 15
205 4
206 3
207 14
208 47
209 7
210 52
211 9
212 53
213 14
214 54
215 22
216 3
217 7
218 14
219 6
220 15
221 55
222 9
223 19
224 56
225 6
226 2
227 9
228 7
229 57
230 7
231 58
232 14
233 7
234 5
235 47
236 47
237 9
238 6
239 15
240 10
241 59
242 55
243 8
244 60
245 61
246 9
247 62
248 9
249 10
250 21
251 9
252 7
253 1
254 14
255 63
256 29
257 9
258 1
259 4
260 3
261 29
262 9
263 15
264 21
265 9
266 14
267 10
268 15
269 9
270 64
271 65
272 32
273 57
274 9
275 15
276 10
277 0
278 14
279 66
280 47
281 67
282 8
283 7
284 3
285 22
286 3
287 9
288 10
289 9
290 6
291 15
292 9
293 2
294 7
295 19
296 3
297 9
298 4
299 3
300 1
301 68
302 0
303 15
304 15
305 65
306 10
307 69
308 32
309 3
310 47
311 18
312 32
313 14
314 9
315 7
316 6
317 5
318 22
319 70
320 71
321 10
322 8
323 5
324 10
325 7
326 3
327 5
328 9
329 72
330 73
331 6
332 4
333 1
334 14
335 15
336 29
337 7
338 10
339 19
340 74
341 3
342 10
343 14
344 75
345 9
346 9
347 76
348 10
349 0
350 9
351 2
352 32
353 10
354 9
355 77
356 78
357 32
358 0
359 9
360 10
361 41
362 9
363 1
364 10
365 10
366 2
367 5
368 5
369 32
370 3
371 2
372 79
373 15
374 2
375 80
376 9
377 0
378 8
379 81
380 14
381 3
382 6
383 0
384 5
385 39
386 5
387 4
388 2
389 9
390 15
391 14
392 9
393 82
394 1
395 6
396 3
397 29
398 83
399 19
400 84
401 1
402 7
403 22
404 1
405 19
406 85
407 86
408 5
409 10
410 14
411 14
412 7
413 7
414 22
415 5
416 19
417 15
418 10
419 3
420 9
421 10
422 5
423 47
424 7
425 3
426 9
427 2
428 9
429 5
430 5
431 87
432 10
433 5
434 8
435 88
436 2
437 89
438 32
439 22
440 90
441 2
442 10
443 14
444 9
445 9
446 91
447 92
448 93
449 9
450 14
451 3
452 4
453 10
454 14
455 0
456 16
457 15
458 3
459 14
460 94
461 10
462 2
463 9
464 15
465 8
466 2
467 6
468 2
469 9
470 9
471 19
472 95
473 96
474 10
475 10
476 32
477 9
478 2
479 0
480 5
481 5
482 1
483 19
484 10
485 6
486 97
487 2
488 4
489 5
490 1
491 21
492 5
493 22
494 14
495 0
496 1
497 4
498 22
499 8
500 2
501 21
502 14
503 2
504 4
505 47
506 5
507 10
508 19
509 5
510 4
511 9
512 9
513 61
514 9
515 47
516 10
517 98
518 2
519 1
520 99
521 63
522 21
523 19
524 100
525 1
526 9
527 2
528 6
529 9
530 2
531 3
532 101
533 3
534 9
535 19
536 9
537 1
538 10
539 0
540 7
541 7
542 3
543 102
544 14
545 8
546 29
547 4
548 15
549 14
550 2
551 21
552 2
553 7
554 2
555 10
556 5
557 5
558 9
559 19
560 2
561 15
562 2
563 10
564 56
565 14
566 9
567 7
568 0
569 5
570 15
571 3
572 8
573 14
574 9
575 103
576 8
577 32
578 94
579 104
580 0
581 32
582 2
583 105
584 10
585 8
586 1
587 5
588 5
589 15
590 9
591 19
592 4
593 106
594 7
595 0
596 107
597 9
598 3
599 9
600 5
601 19
602 32
603 45
604 8
605 29
606 0
607 22
608 32
609 5
610 10
611 14
612 8
613 29
614 9
615 32
616 10
617 5
618 0
619 22
620 5
621 9
622 21
623 108
624 109
625 3
626 0
627 2
628 9
629 5
630 15
631 21
632 8
633 110
634 14
635 0
636 15
637 0
638 5
639 5
640 78
641 111
642 19
643 3
644 7
645 29
646 112
647 5
648 113
649 114
650 8
651 1
652 32
653 6
654 0
655 15
656 14
657 19
658 10
659 14
660 10
661 115
662 7
663 10
664 65
665 116
666 86
667 10
668 117
669 10
670 22
671 118
672 6
673 15
674 119
675 1
676 9
677 9
678 10
679 2
680 10
681 4
682 3
683 4
684 120
685 5
686 5
687 121
688 9
689 4
690 32
691 6
692 1
693 6
694 10
695 122
696 19
697 4
698 123
699 14
700 0
701 32
702 2
703 10
704 14
705 32
706 14
707 0
708 7
709 124
710 10
711 6
712 10
713 7
714 125
715 9
716 126
717 32
718 10
719 127
720 7
721 9
722 10
723 1
724 15
725 32
726 128
727 32
728 9
729 2
730 5
731 4
732 5
733 5
734 3
735 8
736 129
737 0
738 5
739 130
740 10
741 131
742 14
743 132
744 5
745 5
746 66
747 2
748 0
749 14
750 19
751 9
752 6
753 5
754 4
755 15
756 1
757 15
758 133
759 15
760 5
761 134
762 32
763 2
764 3
765 32
766 19
767 0
768 19
769 5
770 108
771 9
772 5
773 2
774 3
775 135
776 5
777 0
778 10
779 9
780 112
781 1
782 10
783 65
784 112
785 9
786 6
787 4
788 10
789 0
790 118
791 136
792 2
793 15
794 5
795 1
796 8
797 8
798 7
799 5
800 14
801 22
802 5
803 22
804 10
805 1
806 10
807 8
808 2
809 10
810 32
811 10
812 0
813 137
814 0
815 1
816 9
817 138
818 2
819 47
820 14
821 10
822 9
823 10
824 124
825 14
826 14
827 32
828 10
829 5
830 0
831 139
832 4
833 140
834 4
835 9
836 6
837 9
838 15
839 4
840 1
841 18
842 19
843 32
844 9
845 2
846 6
847 8
848 14
849 141
850 19
851 142
852 143
853 14
854 144
855 5
856 7
857 32
858 9
859 3
860 3
861 7
862 2
863 1
864 145
865 14
866 140
867 146
868 2
869 8
870 8
871 14
872 0
873 5
874 9
875 15
876 9
877 2
878 2
879 10
880 1
881 147
882 10
883 3
884 0
885 148
886 22
887 32
888 2
889 0
890 7
891 149
892 9
893 4
894 150
895 9
896 8
897 7
898 10
899 10
900 14
901 3
902 21
903 151
904 9
905 14
906 152
907 2
908 19
909 5
910 14
911 7
912 2
913 5
914 9
915 9
916 5
917 107
918 4
919 14
920 9
921 8
922 3
923 2
924 5
925 9
926 1
927 153
928 0
929 1
930 22
931 7
932 0
933 0
934 14
935 7
936 2
937 9
938 2
939 5
940 154
941 155
942 47
943 5
944 10
945 10
946 9
947 10
948 15
949 113
950 9
951 2
952 156
953 9
954 1
955 7
956 157
957 0
958 10
959 5
960 1
961 9
962 4
963 14
964 10
965 158
966 8
967 21
968 29
969 14
970 21
971 10
972 2
973 6
974 14
975 3
976 14
977 159
978 1
979 9
980 4
981 19
982 32
983 0
984 4
985 160
986 161
987 4
988 4
989 0
990 15
991 9
992 14
993 9
994 19
995 1
996 14
997 14
998 19
999 14
1000 162
1001 162
1002 162
1003 162
1004 162
1005 162
1006 162
1007 162
1008 162
1009 162
1010 163
1011 163
1012 163
1013 163
1014 163
1015 163
1016 163
1017 163
1018 163
1019 163
1020 164
1021 164
1022 164
1023 164
1024 164
1025 164
1026 164
1027 164
1028 164
1029 164
1030 165
1031 165
1032 165
1033 165
1034 165
1035 165
1036 165
1037 165
1038 165
1039 165
1040 166
1041 166
1042 166
1043 166
1044 166
1045 166
1046 166
1047 166
1048 166
1049 166
1050 167
1051 167
1052 167
1053 167
1054 167
1055 167
1056 167
1057 167
1058 167
1059 167
1060 168
1061 168
1062 168
1063 168
1064 168
1065 168
1066 168
1067 168
1068 168
1069 168
1070 169
1071 169
1072 169
1073 169
1074 169
1075 169
1076 169
1077 169
1078 169
1079 169
1080 170
1081 170
1082 170
1083 170
1084 170
1085 170
1086 170
1087 170
1088 170
1089 170
1090 171
1091 171
1092 171
1093 171
1094 171
1095 171
1096 171
1097 171
1098 171
1099 171
1100 172
1101 172
1102 172
1103 172
1104 172
1105 172
1106 172
1107 172
1108 172
1109 172
1110 173
1111 173
1112 173
1113 173
1114 173
1115 173
1116 173
1117 173
1118 173
1119 173
1120 174
1121 174
1122 174
1123 174
1124 174
1125 174
1126 174
1127 174
1128 174
1129 174
1130 175
1131 175
1132 175
1133 175
1134 175
1135 175
1136 175
1137 175
1138 175
1139 175
1140 176
1141 176
1142 176
1143 176
1144 176
1145 176
1146 176
1147 176
1148 176
1149 176
1150 177
1151 177
1152 177
1153 177
1154 177
1155 177
1156 177
1157 177
1158 177
1159 177
1160 178
1161 178
1162 178
1163 178
1164 178
1165 178
1166 178
1167 178
1168 178
1169 178
1170 179
1171 179
1172 179
1173 179
1174 179
1175 179
1176 179
1177 179
1178 179
1179 179
1180 180
1181 180
1182 180
1183 180
1184 180
1185 180
1186 180
1187 180
1188 180
1189 180
1190 181
1191 181
1192 181
1193 181
1194 181
1195 181
1196 181
1197 181
1198 181
1199 181
1200 182
1201 182
1202 182
1203 182
1204 182
1205 182
1206 182
1207 182
1208 182
1209 182
1210 183
1211 183
1212 183
1213 183
1214 183
1215 183
1216 183
1217 183
1218 183
1219 183
1220 184
1221 184
1222 184
1223 184
1224 184
1225 184
1226 184
1227 184
1228 184
1229 184
1230 185
1231 185
1232 185
1233 185
1234 185
1235 185
1236 185
1237 185
1238 185
1239 185
1240 186
1241 186
1242 186
1243 186
1244 186
1245 186
1246 186
1247 186
1248 186
1249 186
1250 187
1251 187
1252 187
1253 187
1254 187
1255 187
1256 187
1257 187
1258 187
1259 187
1260 188
1261 188
1262 188
1263 188
1264 188
1265 188
1266 188
1267 188
1268 188
1269 188
1270 189
1271 189
1272 189
1273 189
1274 189
1275 189
1276 189
1277 189
1278 189
1279 189
1280 190
1281 190
1282 190
1283 190
1284 190
1285 190
1286 190
1287 190
1288 190
1289 190
1290 191
1291 191
1292 191
1293 191
1294 191
1295 191
1296 191
1297 191
1298 191
1299 191
1300 192
1301 192
1302 192
1303 192
1304 192
1305 192
1306 192
1307 192
1308 192
1309 192
1310 193
1311 193
1312 193
1313 193
1314 193
1315 193
1316 193
1317 193
1318 193
1319 193
1320 194
1321 194
1322 194
1323 194
1324 194
1325 194
1326 194
1327 194
1328 194
1329 194
1330 195
1331 195
1332 195
1333 195
1334 195
1335 195
1336 195
1337 195
1338 195
1339 195
1340 196
1341 196
1342 196
1343 196
1344 196
1345 196
1346 196
1347 196
1348 196
1349 196
1350 197
1351 197
1352 197
1353 197
1354 197
1355 197
1356 197
1357 197
1358 197
1359 197
1360 198
1361 198
1362 198
1363 198
1364 198
1365 198
1366 198
1367 198
1368 198
1369 198
1370 199
1371 199
1372 199
1373 199
1374 199
1375 199
1376 199
1377 199
1378 199
1379 199
1380 200
1381 200
1382 200
1383 200
1384 200
1385 200
1386 200
1387 200
1388 200
1389 200
1390 201
1391 201
1392 201
1393 201
1394 201
1395 201
1396 201
1397 201
1398 201
1399 201
1400 202
1401 202
1402 202
1403 202
1404 202
1405 202
1406 202
1407 202
1408 202
1409 202
1410 203
1411 203
1412 203
1413 203
1414 203
1415 203
1416 203
1417 203
1418 203
1419 203
1420 204
1421 204
1422 204
1423 204
1424 204
1425 204
1426 204
1427 204
1428 204
1429 204
1430 205
1431 205
1432 205
1433 205
1434 205
1435 205
1436 205
1437 205
1438 205
1439 205
1440 206
1441 206
1442 206
1443 206
1444 206
1445 206
1446 206
1447 206
1448 206
1449 206
1450 207
1451 207
1452 207
1453 207
1454 207
1455 207
1456 207
1457 207
1458 207
1459 207
1460 208
1461 208
1462 208
1463 208
1464 208
1465 208
1466 208
1467 208
1468 208
1469 208
1470 209
1471 209
1472 209
1473 209
1474 209
1475 209
1476 209
1477 209
1478 209
1479 209
1480 210
1481 210
1482 210
1483 210
1484 210
1485 210
1486 210
1487 210
1488 210
1489 210
1490 211
1491 211
1492 211
1493 211
1494 211
1495 211
1496 211
1497 211
1498 211
1499 211
1500 212
1501 212
1502 212
1503 212
1504 212
1505 212
1506 212
1507 212
1508 212
1509 212
1510 213
1511 213
1512 213
1513 213
1514 213
1515 213
1516 213
1517 213
1518 213
1519 213
1520 214
1521 214
1522 214
1523 214
1524 214
1525 214
1526 214
1527 214
1528 214
1529 214
1530 215
1531 215
1532 215
1533 215
1534 215
1535 215
1536 215
1537 215
1538 215
1539 215
1540 216
1541 216
1542 216
1543 216
1544 216
1545 216
1546 216
1547 216
1548 216
1549 216
1550 217
1551 217
1552 217
1553 217
1554 217
1555 217
1556 217
1557 217
1558 217
1559 217
1560 218
1561 218
1562 218
1563 218
1564 218
1565 218
1566 218
1567 218
1568 218
1569 218
1570 219
1571 219
1572 219
1573 219
1574 219
1575 219
1576 219
1577 219
1578 219
1579 219
1580 220
1581 220
1582 220
1583 220
1584 220
1585 220
1586 220
1587 220
1588 220
1589 220
1590 221
1591 221
1592 221
1593 221
1594 221
1595 221
1596 221
1597 221
1598 221
1599 221
1600 222
1601 222
1602 222
1603 222
1604 222
1605 222
1606 222
1607 222
1608 222
1609 222
1610 223
1611 223
1612 223
1613 223
1614 223
1615 223
1616 223
1617 223
1618 223
1619 223
1620 224
1621 224
1622 224
1623 224
1624 224
1625 224
1626 224
1627 224
1628 224
1629 224
1630 225
1631 225
1632 225
1633 225
1634 225
1635 225
1636 225
1637 225
1638 225
1639 225
1640 226
1641 226
1642 226
1643 226
1644 226
1645 226
1646 226
1647 226
1648 226
1649 226
1650 227
1651 227
1652 227
1653 227
1654 227
1655 227
1656 227
1657 227
1658 227
1659 227
1660 228
1661 228
1662 228
1663 228
1664 228
1665 228
1666 228
1667 228
1668 228
1669 228
1670 229
1671 229
1672 229
1673 229
1674 229
1675 229
1676 229
1677 229
1678 229
1679 229
1680 230
1681 230
1682 230
1683 230
1684 230
1685 230
1686 230
1687 230
1688 230
1689 230
1690 231
1691 231
1692 231
1693 231
1694 231
1695 231
1696 231
1697 231
1698 231
1699 231
1700 232
1701 232
1702 232
1703 232
1704 232
1705 232
1706 232
1707 232
1708 232
1709 232
1710 233
1711 233
1712 233
1713 233
1714 233
1715 233
1716 233
1717 233
1718 233
1719 233
1720 234
1721 234
1722 234
1723 234
1724 234
1725 234
1726 234
1727 234
1728 234
1729 234
1730 235
1731 235
1732 235
1733 235
1734 235
1735 235
1736 235
1737 235
1738 235
1739 235
1740 236
1741 236
1742 236
1743 236
1744 236
1745 236
1746 236
1747 236
1748 236
1749 236
1750 237
1751 237
1752 237
1753 237
1754 237
1755 237
1756 237
1757 237
1758 237
1759 237
1760 238
1761 238
1762 238
1763 238
1764 238
1765 238
1766 238
1767 238
1768 238
1769 238
1770 239
1771 239
1772 239
1773 239
1774 239
1775 239
1776 239
1777 239
1778 239
1779 239
1780 240
1781 240
1782 240
1783 240
1784 240
1785 240
1786 240
1787 240
1788 240
1789 240
1790 241
1791 241
1792 241
1793 241
1794 241
1795 241
1796 241
1797 241
1798 241
1799 241
1800 242
1801 242
1802 242
1803 242
1804 242
1805 242
1806 242
1807 242
1808 242
1809 242
1810 243
1811 243
1812 243
1813 243
1814 243
1815 243
1816 243
1817 243
1818 243
1819 243
1820 244
1821 244
1822 244
1823 244
1824 244
1825 244
1826 244
1827 244
1828 244
1829 244
1830 245
1831 245
1832 245
1833 245
1834 245
1835 245
1836 245
1837 245
1838 245
1839 245
1840 246
1841 246
1842 246
1843 246
1844 246
1845 246
1846 246
1847 246
1848 246
1849 246
1850 247
1851 247
1852 247
1853 247
1854 247
1855 247
1856 247
1857 247
1858 247
1859 247
1860 248
1861 248
1862 248
1863 248
1864 248
1865 248
1866 248
1867 248
1868 248
1869 248
1870 249
1871 249
1872 249
1873 249
1874 249
1875 249
1876 249
1877 249
1878 249
1879 249
1880 250
1881 250
1882 250
1883 250
1884 250
1885 250
1886 250
1887 250
1888 250
1889 250
1890 251
1891 251
1892 251
1893 251
1894 251
1895 251
1896 251
1897 251
1898 251
1899 251
1900 252
1901 252
1902 252
1903 252
1904 252
1905 252
1906 252
1907 252
1908 252
1909 252
1910 253
1911 253
1912 253
1913 253
1914 253
1915 253
1916 253
1917 253
1918 253
1919 253
1920 254
1921 254
1922 254
1923 254
1924 254
1925 254
1926 254
1927 254
1928 254
1929 254
1930 255
1931 255
1932 255
1933 255
1934 255
1935 255
1936 255
1937 255
1938 255
1939 255
1940 256
1941 256
1942 256
1943 256
1944 256
1945 256
1946 256
1947 256
1948 256
1949 256
1950 257
1951 257
1952 257
1953 257
1954 257
1955 257
1956 257
1957 257
1958 257
1959 257
1960 258
1961 258
1962 258
1963 258
1964 258
1965 258
1966 258
1967 258
1968 258
1969 258
1970 259
1971 259
1972 259
1973 259
1974 259
1975 259
1976 259
1977 259
1978 259
1979 259
1980 260
1981 260
1982 260
1983 260
1984 260
1985 260
1986 260
1987 260
1988 260
1989 260
1990 261
1991 261
1992 261
1993 261
1994 261
1995 261
1996 261
1997 261
1998 261
1999 261
