1 0
976 0
1472 0
1554 0
3418 1
4557 0
4641 0
4950 0
5343 0
5494 0
6558 0
9103 0
18029 2
24799 3
28609 4
30231 5
34446 6
2 7
1713 8
3334 7
6645 7
14070 7
17346 7
20029 7
22019 7
23016 7
23556 7
25878 7
26041 7
26845 9
29052 10
31635 11
33585 12
34540 13
3 14
2954 14
5385 14
7127 15
9591 14
10530 14
11293 14
11330 16
14008 14
17413 17
19415 18
19608 14
22995 14
23105 14
23459 14
24381 19
31254 20
4 21
45 21
1250 21
2475 21
2790 21
5864 22
7616 21
13695 21
14152 23
16231 21
17685 24
18955 21
19853 21
20865 21
25692 25
31862 26
34218 27
5 28
2260 29
3377 30
9408 28
20121 28
20499 31
24650 32
25609 28
26681 28
28813 28
29270 28
31177 28
33551 33
33595 28
34298 28
34327 28
6 10
12794 10
14716 32
15385 10
19357 10
21131 10
22284 34
23470 35
23927 36
27628 10
28655 37
32298 38
32731 10
33269 10
33877 10
34487 10
34494 10
7 39
9772 25
11234 39
14306 40
15468 41
16731 39
17364 39
17442 39
20064 39
20984 39
25934 39
26762 39
27261 42
27477 39
27501 39
31977 43
34121 44
8 45
739 45
1052 45
3135 46
4465 45
5331 45
5397 45
10002 2
11159 45
12936 47
13249 45
13980 45
16579 45
18364 45
19107 48
24593 49
31054 50
9 51
118 51
868 51
885 51
1551 51
2502 51
2909 51
3021 51
3877 51
4664 52
5384 51
7963 51
9867 10
10022 53
23538 54
32207 55
34408 56
10 57
2898 58
3222 57
15735 57
23745 59
24443 34
25822 57
25902 57
30618 57
31033 57
31356 57
31638 57
32344 57
33932 60
34232 11
34264 57
34448 61
11 62
48 27
7849 63
9252 64
10961 62
12906 62
21847 62
26352 42
27217 62
30202 65
31113 62
33250 62
33436 62
33672 62
33749 62
33818 11
34484 64
12 66
2000 66
4518 66
4890 67
6021 66
6171 68
7454 66
8723 69
13181 66
15906 66
16521 66
17181 66
21148 66
23671 66
28245 70
28771 71
32762 72
13 73
4357 74
4962 75
4993 73
20766 76
22541 77
25208 73
26619 73
27327 55
27520 73
29570 73
31614 59
31819 73
32129 73
32707 73
32965 73
34541 73
14 78
5025 79
5950 78
6603 53
14143 78
17269 79
19110 80
25546 81
29812 78
30262 78
30413 78
31549 78
32704 78
32788 78
33264 78
33516 78
34531 73
15 82
843 82
1754 82
2303 82
2337 82
2378 82
2518 83
2959 82
3489 82
3631 82
4504 84
4806 82
7485 82
16690 85
24707 86
25906 64
34489 87
16 88
710 88
881 88
910 88
2103 88
3134 88
3851 88
4299 88
4306 88
5118 88
7426 88
10774 16
15618 20
27129 89
31044 42
32607 61
34261 90
17 91
1849 91
2537 91
2602 91
2743 91
3107 92
3327 91
3335 93
3531 91
4140 91
6117 94
7237 91
7840 91
7950 91
11492 95
28803 5
34177 96
18 97
1312 97
3816 97
6625 97
9221 98
10075 99
11989 100
20974 89
26474 97
27504 97
28674 97
29861 97
30205 19
31441 97
32589 97
33249 97
34387 13
19 101
1868 101
13284 102
19251 103
24025 101
25581 101
28538 101
29551 101
30258 11
31745 104
33225 105
33348 101
33948 101
34155 101
34224 101
34436 101
20 106
3798 107
6801 106
7380 108
11014 109
15111 110
15289 106
15927 106
21799 106
22476 111
23430 106
23767 112
25329 106
26972 106
28127 106
33970 106
34305 106
21 113
167 113
698 113
1795 113
2851 113
3480 113
4092 113
4400 113
5855 113
7207 113
7618 113
14592 36
19018 114
23177 73
29766 115
32148 11
33315 89
22 61
5169 61
9654 61
12552 61
16245 116
17362 61
20736 117
23266 118
23276 61
23312 61
25715 119
29146 61
31333 98
32158 61
33318 119
33500 61
34320 61
23 120
1137 120
1300 120
1670 120
2099 120
2619 120
3609 120
4448 120
4635 120
5291 120
6928 120
8788 121
9579 122
10907 123
27438 5
29891 2
32904 124
24 125
5528 126
5807 125
10365 57
11024 125
12545 125
14101 125
14112 125
14334 125
17436 125
20220 125
20695 73
23761 125
24662 125
30738 127
33314 89
33391 128
25 6
430 129
5830 6
8997 6
10433 130
16940 6
22973 6
26667 131
27949 6
31673 132
33598 6
33775 13
34030 6
34094 6
34444 6
26 26
2798 133
24219 26
27316 26
29122 60
30189 134
31291 26
31679 26
32712 26
33162 135
33306 26
33479 59
33623 26
33645 26
33654 26
27 133
369 133
3160 133
3351 133
4891 133
5059 133
5073 133
5273 136
5316 133
6451 133
7350 133
7674 133
10714 137
16668 138
29657 139
34107 33
34277 140
28 141
8079 50
8156 141
9466 141
10034 141
10559 141
13055 141
15858 141
15873 141
20859 141
21341 141
21517 141
24156 135
27147 142
30354 143
31347 11
33096 144
29 145
78 145
228 145
2681 145
7666 145
7957 145
10173 146
11613 145
12727 145
14707 145
16331 145
17489 145
20113 147
31366 128
32295 135
33028 73
33974 148
30 73
5429 149
6249 11
6577 73
15978 73
20193 73
23578 150
24121 73
25395 73
26104 151
26467 6
33941 152
34179 73
34276 73
34351 73
34440 73
31 153
5848 153
5986 154
7493 153
10625 153
17140 153
19349 155
19955 153
21826 153
22201 153
22468 128
22567 153
24352 153
24471 153
25397 151
28120 79
31487 156
32 157
348 157
2458 157
2493 157
3668 157
4142 157
4291 157
4322 157
5537 157
6854 157
8611 157
11634 158
16049 128
16320 159
21356 33
25218 160
29692 60
33 116
1599 116
4752 116
6883 116
7478 116
9854 11
15889 116
17677 135
18274 116
18935 116
20027 116
21132 116
23017 27
28412 102
30444 60
34304 161
34 162
573 163
6304 162
7000 162
8971 162
9214 162
14185 162
14513 162
14654 72
16978 162
22949 162
23712 162
23941 162
25461 164
26387 165
29603 112
32591 73
35 73
1064 73
2835 73
7321 106
7650 166
13729 167
27674 73
29141 73
29616 73
32236 33
32677 168
33183 73
33953 73
34182 142
34396 73
34544 73
36 70
2008 169
4026 170
4827 171
15826 70
16312 61
25488 70
27611 154
27895 70
29806 2
30863 70
31230 70
32386 70
32397 70
34011 70
34330 70
34452 172
37 173
3270 173
3711 173
6177 173
9219 173
9853 173
10374 173
11870 173
12133 173
13783 173
18883 174
19410 173
22242 11
23161 61
25095 103
25150 175
33252 127
38 73
7001 73
9011 176
13878 60
22439 73
23438 20
24300 73
24966 73
26705 177
27867 73
28042 73
31226 73
32048 73
32162 178
32359 73
33378 179
33720 73
39 20
2373 20
9137 180
13058 20
16348 181
20607 182
22032 20
22459 60
27863 20
28156 20
29394 2
30515 20
31080 20
31368 20
31588 20
33325 20
34259 89
40 19
8060 19
10677 19
11676 19
15344 73
19065 183
22052 73
25007 31
25452 19
29706 61
30223 143
30729 19
31330 19
31523 19
32675 19
33025 19
33301 19
41 184
151 184
173 184
750 184
1751 184
2224 184
2576 184
2601 184
4478 184
5666 184
5751 184
6256 2
10201 185
20378 186
29297 187
31974 188
32045 103
42 189
975 189
1199 189
1988 189
3104 189
3724 189
4052 189
4312 189
4849 189
7296 189
8267 135
8474 189
9088 190
20939 191
26074 102
32760 96
43 192
860 192
1019 192
1140 192
4012 192
4063 192
4490 192
4499 192
4728 192
5060 192
5378 192
6989 192
16948 2
33737 193
34254 19
44 194
4427 195
6368 196
10712 148
19973 194
22302 194
25486 194
27665 194
28924 59
30215 194
30788 64
31078 194
31474 194
33189 194
33425 194
34083 194
34109 31
5850 197
9825 198
10864 199
12447 21
17057 31
31053 200
34418 201
46 94
405 94
559 94
1370 94
1523 94
2055 94
3515 10
6084 94
9027 159
9075 94
9386 94
9469 94
27156 202
29315 128
33589 203
34112 73
47 204
1338 205
4572 20
5770 204
6554 204
17560 204
21710 13
22626 204
23202 204
24978 204
25244 204
26271 204
27540 204
27721 204
28653 86
30733 206
4223 207
24505 101
26674 27
27336 36
29170 27
29363 27
31448 27
31882 208
33626 27
33690 27
33734 13
34141 27
34253 27
34379 27
49 207
1027 207
1279 207
2063 148
2887 207
3337 43
4114 207
4741 207
5214 207
6846 10
7365 207
8265 207
8892 207
9055 207
19310 42
24764 209
50 158
436 158
1853 158
2400 158
3431 158
4049 158
4196 158
4817 158
5704 158
7596 158
8500 158
17144 210
27155 11
31658 171
32763 211
34439 128
51 212
1417 212
1674 212
2027 212
2124 212
3088 212
3309 212
4038 212
5170 212
7913 212
8503 212
10852 213
14137 214
17901 215
27400 212
32846 216
34022 60
52 52
599 52
2928 217
3767 52
3885 52
4076 218
8059 219
9572 52
12763 52
15300 52
18551 52
20631 52
21099 52
22679 52
23604 142
24666 52
31582 61
53 220
5783 221
10422 220
15052 109
16301 222
23230 220
23317 201
24478 220
26675 220
26846 220
27923 220
30957 220
31727 220
33842 220
33863 68
34089 220
54 20
10459 140
14999 20
15633 84
17996 223
22113 20
24035 20
25785 224
27268 20
27996 20
30073 42
33559 20
33850 20
34385 20
34529 20
34530 73
34539 20
55 225
1432 226
8638 227
20694 225
23374 225
24686 73
27564 228
28079 36
30634 225
30682 225
32867 225
33581 225
33671 225
33778 225
34435 225
34506 225
56 229
1746 230
3317 229
4037 22
4614 229
5823 231
6280 229
11287 229
12618 229
12790 232
13254 229
14937 229
17169 229
18092 229
18766 229
27322 64
33293 233
57 98
3060 13
10212 234
18387 61
18741 98
20041 98
20582 27
23697 98
28583 98
30330 98
30766 235
31509 236
31911 98
33658 98
33805 98
34161 98
58 1
2020 1
6446 237
7865 1
8893 1
9722 238
10642 1
15581 101
19416 1
20243 1
21289 2
21369 1
23912 1
26120 1
29713 151
32987 211
59 169
1971 169
2543 169
2605 169
3397 169
4018 169
4627 169
4688 169
7573 169
8850 169
10792 32
11836 239
27743 240
30101 241
34185 38
60 242
4751 242
8836 95
10795 242
10897 73
11939 61
14211 243
20459 242
25470 242
26416 242
26501 242
27695 242
28404 242
29526 242
32616 138
33554 102
34097 87
61 159
1692 159
1815 159
2542 159
3458 91
4945 159
6380 159
6601 159
6722 159
8988 159
9213 159
15328 2
22240 244
30240 216
33908 55
34127 53
62 140
1739 140
10800 140
12262 140
17952 245
22884 140
23200 246
27815 64
28396 36
28901 140
29312 140
31410 140
31922 46
33497 140
33785 140
34186 247
63 248
6852 100
7264 210
7566 128
15217 249
17748 248
27458 248
30120 103
30705 248
31512 248
32401 31
32622 248
33030 248
33156 248
33394 248
33577 248
33684 248
64 250
4043 250
6945 251
10354 252
10947 250
11172 250
11248 250
14106 250
15890 250
17755 250
22185 250
24165 250
24671 250
28053 11
29309 28
34342 61
65 243
1003 243
1016 243
1579 243
1840 243
6087 243
6425 253
6741 243
6906 155
7244 243
7785 243
7998 243
8559 243
22514 254
23728 255
27618 60
34509 13
66 256
1025 256
1403 256
1430 256
2647 256
2813 256
3301 256
3959 256
5787 256
7832 256
9425 256
12452 256
20466 187
22638 44
25947 148
29819 245
34395 20
67 162
2900 162
8864 200
10454 257
12356 258
13466 162
16589 249
18712 162
19589 211
34300 4
68 259
4017 259
7521 259
10946 259
15437 259
21445 259
22493 259
22998 260
25561 259
25571 259
26152 259
26805 259
30752 73
32660 261
33099 20
33198 2
34492 61
69 34
1273 34
2564 262
3682 34
5228 62
6497 34
8144 172
10853 34
12021 34
12229 34
12231 34
14828 34
16712 34
17615 34
20136 263
31327 128
31907 257
70 264
8362 265
11856 264
14756 103
15122 266
23238 267
24349 68
26706 264
27671 264
28343 264
28624 264
29277 264
29765 264
30013 264
30356 264
30759 264
31753 60
71 268
4134 268
7200 268
7595 13
9621 268
12764 268
12918 23
15450 268
16196 25
16691 268
16784 268
19016 220
21181 268
22486 68
23641 268
23950 268
28542 64
72 21
3103 240
7893 21
14834 35
14933 269
15314 270
22573 123
29248 127
73 271
8015 271
16726 271
21778 271
22431 271
23840 272
24498 61
25516 271
27192 68
30956 271
32103 271
32525 73
33328 271
33665 19
33668 271
34273 271
74 273
108 273
1076 273
2927 273
3100 273
4364 273
4985 273
6134 273
6390 273
7907 273
9417 273
11760 274
12488 275
14689 276
27645 78
33280 235
75 277
2156 277
4810 277
5786 277
6112 277
6887 277
10050 277
11345 277
11650 277
13742 107
14054 277
15754 278
18322 89
22557 279
31140 280
34250 281
34357 65
76 282
1138 282
1330 282
2733 282
2861 282
3543 282
3690 282
3905 282
4865 283
6265 282
8498 282
20377 284
29316 179
30407 31
31884 285
33640 166
34340 124
77 286
1158 286
1184 286
1862 286
2657 286
3899 287
4288 286
4318 286
5496 286
6861 288
7470 286
8032 286
8883 286
15802 128
16356 214
30698 289
8679 145
13505 145
19934 123
22138 71
22353 290
24656 10
29382 11
34173 35
79 161
6019 29
11153 240
19389 161
20052 64
24774 291
28432 2
30409 161
31082 161
32644 60
33023 161
33444 161
33870 161
34111 161
34202 161
34482 161
34523 161
80 283
9920 292
13114 293
15980 283
18309 283
23113 283
25288 283
25555 283
25701 124
26654 283
27462 283
28816 283
29127 283
30095 274
32560 193
81 294
406 294
683 294
1051 294
2088 294
3582 294
3787 294
3987 294
4235 294
7164 294
16064 60
18123 28
20204 101
28632 271
31001 78
33911 206
82 260
1760 295
5460 271
6895 260
9347 260
16748 260
23682 260
24798 296
28474 260
30284 260
31318 12
31653 260
31962 260
32187 260
32967 50
34099 260
34156 2
83 297
821 297
1525 297
2033 297
2420 297
3593 297
3792 297
4339 297
6386 298
6704 297
7014 297
7790 297
15068 73
19913 299
31145 220
31180 31
84 300
3161 300
4305 300
4359 300
5813 300
9424 300
9730 300
10560 300
11156 300
11522 300
12632 300
15010 301
15594 99
16943 44
17247 255
29368 151
29524 285
85 38
14791 302
14880 38
15414 101
16905 38
17268 10
21035 38
21798 303
25216 38
26017 73
27958 38
32847 38
32934 210
33701 38
33973 38
34144 38
86 46
10334 222
11785 46
18173 105
21273 199
22982 46
24074 209
24925 46
29505 46
31338 46
31647 46
31760 46
31944 304
32468 46
32545 46
33154 166
33157 46
87 178
3433 178
9946 178
14042 178
15404 178
20282 178
21733 178
23982 108
25064 178
27755 305
28400 31
29435 178
30704 178
32711 178
34104 112
88 306
513 306
1293 306
1388 306
2866 10
2947 306
2995 306
3402 306
5493 307
6204 306
6970 306
7791 306
8187 306
14124 37
22782 13
27178 308
32499 151
89 21
2513 21
2586 21
3444 21
3486 21
3583 21
3943 21
6329 21
7043 21
8206 21
8378 21
9487 309
16019 104
19520 214
31267 61
32076 104
34513 64
90 310
1585 250
10416 134
14663 310
15478 311
16392 310
17420 312
19145 310
22753 313
24054 310
26257 310
27872 310
28414 310
28725 314
29845 310
30449 310
30958 142
91 315
613 315
764 315
1435 315
1686 315
2333 315
3471 315
4103 315
4282 315
5899 315
6356 315
11658 19
15753 316
29745 188
32307 305
32774 317
92 103
7482 318
9894 137
14625 28
15484 103
16158 146
26764 103
28695 103
30623 103
31768 103
32299 114
33488 109
33611 103
34130 103
34407 103
34497 103
34533 103
93 24
244 24
319 24
2833 24
3057 24
3219 24
4360 24
4585 24
5604 24
6282 24
8823 24
16728 24
19246 319
30417 31
30491 320
32484 2
34538 148
94 321
2968 8
3588 16
3922 321
8116 188
12532 235
12904 321
17376 321
21155 321
21828 321
22082 321
22402 321
23090 321
24203 321
24669 321
34438 5
95 322
2504 322
3903 240
10816 322
12040 323
12246 324
12376 322
13168 325
15727 322
17870 322
18489 322
24401 322
24485 322
25022 73
26297 322
26782 322
32106 211
96 326
493 327
963 326
1807 326
1841 326
1983 326
3284 326
3596 326
4934 328
5267 326
6104 326
6484 326
7408 311
8609 326
21241 95
32831 10
34485 60
97 129
345 129
377 129
1716 129
2758 129
2976 129
3197 129
6267 129
6798 129
8323 129
9233 129
18003 329
20384 330
22420 331
29572 2
29627 53
98 332
4530 61
13570 333
16289 332
19482 332
20307 332
20942 332
24163 332
24296 332
26242 332
26320 216
28603 334
29224 332
30476 332
32028 332
99 230
234 230
301 230
5010 230
6553 230
11765 230
14175 230
14902 19
15396 335
16622 230
18726 230
18992 61
19169 230
27709 60
31693 13
32679 73
100 336
2934 336
3656 337
4441 336
4615 338
6762 336
6818 336
7598 336
9420 336
11051 336
11203 336
11788 336
12121 336
21784 114
22957 339
27888 128
31141 166
101 340
329 340
7524 340
10222 340
12457 340
14541 112
15863 340
16908 341
17863 340
18980 340
19007 340
19235 340
19564 340
24299 246
27843 114
29597 47
34115 280
102 194
5519 20
10106 128
18626 194
20775 342
21660 343
22098 194
30438 194
30674 194
32137 114
33552 73
33913 194
103 344
2552 344
3698 344
5946 345
6136 344
6780 344
7975 344
9286 344
10510 344
11155 344
13610 344
14460 73
16795 344
17435 182
17695 346
20836 176
28499 245
104 347
444 347
1357 347
3401 347
3575 347
3651 347
4375 347
4898 347
6994 347
8867 347
9519 347
11661 126
13930 25
17434 348
21372 220
24640 13
32520 114
105 2
9782 2
10221 96
14995 2
19521 10
24663 37
25965 2
27380 112
29213 2
29320 2
29620 36
30447 59
31598 2
32806 2
34053 2
106 349
540 349
2069 349
2148 349
3488 349
3745 349
5123 349
5841 349
6246 349
7282 349
13116 59
19514 28
28307 2
33151 106
33417 289
33868 188
107 350
501 350
1553 350
2279 350
3675 350
3694 350
4605 350
7347 350
7358 351
7393 350
8230 350
8320 350
9079 33
10760 352
25406 186
28864 44
15846 353
22167 211
22564 19
26040 276
26504 73
31214 354
109 355
1145 355
1353 355
1514 355
1539 355
3203 355
3964 355
4556 355
5840 355
6388 355
9082 355
11766 151
15595 356
21049 357
25301 64
26730 358
32814 28
110 359
6111 359
10134 359
12598 280
15116 360
16518 280
18452 359
19503 359
20441 359
20580 359
22036 359
23869 359
25172 361
25843 359
26097 359
27308 142
34464 20
111 132
543 362
9476 60
12241 73
15497 132
16062 132
16538 132
18770 363
27648 132
28818 132
31645 132
32414 132
33005 132
33111 10
33766 187
34192 132
112 188
8668 31
11690 188
12072 5
19740 188
22137 33
26925 188
28175 188
28828 343
29777 188
31762 364
31888 188
32579 188
33605 188
34281 188
34339 188
34432 33
113 365
1699 156
5277 365
13935 365
14909 365
16531 365
20152 365
21698 365
21818 365
23428 365
23510 365
27315 31
31172 31
33032 366
33652 109
34477 19
114 245
3558 245
11582 245
11706 367
12234 245
13165 245
17817 332
18820 245
23129 42
23742 245
25037 354
26462 20
30430 245
30489 64
33543 245
33616 245
34490 245
115 368
2271 368
3437 368
6599 368
7944 368
9176 368
13534 293
14024 368
14826 369
16187 368
16752 368
17622 368
17861 368
27463 225
31956 35
32271 36
34137 334
116 370
4547 208
11776 370
13211 370
15371 370
16724 370
17246 370
17584 370
18336 181
22489 370
22937 370
23146 370
23693 180
24142 370
24531 247
24736 370
117 60
3312 369
12351 371
16233 60
16785 372
23596 60
25512 60
26115 60
26168 60
26439 60
26644 11
27792 60
29985 60
33858 60
33956 60
34520 123
2632 16
6403 285
31089 20
34100 267
119 373
4150 93
8087 342
9815 373
16013 374
16128 373
19407 373
19558 318
20369 373
20667 373
20877 375
21711 373
22330 373
22639 373
23408 373
31066 376
33662 60
120 207
1266 207
1671 207
2824 207
3196 207
3230 207
4503 207
5370 207
8387 207
8818 207
17132 31
19042 317
26205 19
26442 308
28913 36
29971 112
121 377
456 377
939 377
1610 377
2013 377
2952 377
4564 377
5358 377
6274 377
7766 377
8467 377
8581 323
8729 377
14852 2
17019 60
31169 73
32615 13
122 378
425 378
554 378
2030 378
2307 378
2692 378
2948 379
3032 378
3260 378
4051 378
4128 356
6096 378
6594 378
12601 142
22128 295
123 380
4485 380
4947 380
7370 380
8255 381
8585 380
9843 380
14500 128
14664 380
15648 380
16779 380
17720 380
18189 380
25759 126
33213 59
33900 382
124 383
638 384
5491 383
6235 383
8586 383
10866 323
14832 383
16271 383
17031 383
19672 36
20831 383
22661 383
23790 383
27037 152
29576 172
31988 356
34458 2
125 371
1782 371
4264 371
6489 371
7084 371
10105 371
11672 371
11717 371
11993 371
12037 371
17888 314
20474 320
21146 44
25702 330
34160 31
34208 89
126 2
4803 31
10837 112
11617 2
16345 60
19186 2
19937 2
23283 2
23328 2
24935 2
25904 2
26190 20
28149 2
28253 64
30517 2
34038 2
127 138
4621 138
5141 167
13853 385
21002 138
22191 386
25637 138
26349 138
29507 64
30557 387
31393 388
31605 138
31637 138
31902 138
32474 138
33907 138
34194 138
128 389
5524 270
7272 389
7335 389
9012 389
11438 227
12759 389
15810 389
16763 390
17113 389
19568 389
20481 389
22432 389
23820 389
28010 271
30116 31
31522 4
129 136
308 336
1891 136
2239 136
2717 136
4376 136
4983 136
5838 136
6201 136
6807 136
7372 136
8770 368
8932 136
20105 391
20471 372
31590 392
32130 393
130 341
2906 341
2969 341
4463 341
5763 341
6814 341
9158 341
16409 341
17029 2
18693 341
19323 341
28467 394
29448 395
33898 330
34451 123
131 394
490 56
1095 394
2719 394
3637 394
6943 394
7990 396
8118 243
13981 394
14212 394
15208 394
15938 394
17927 394
19454 394
20532 394
22710 25
33530 316
132 397
6138 398
6475 397
8104 397
10887 397
11501 397
13281 82
13413 399
14228 397
14843 60
16405 397
17795 397
19027 397
20080 397
23795 2
25071 397
133 351
339 351
442 351
725 351
1752 351
2471 351
2792 351
3151 351
3333 351
4390 351
4551 351
5253 64
9404 320
11659 400
15243 401
25803 402
27921 85
134 36
3482 36
4643 36
5975 403
18527 404
19058 36
20202 36
20642 60
21022 208
22484 280
27378 36
27966 36
29373 36
29408 36
30617 36
32208 6
33815 36
135 55
5497 126
14299 55
15752 258
22698 335
23684 55
29485 3
31061 220
31108 55
31241 55
32349 55
33453 55
33840 55
34243 55
34378 55
34499 13
34505 55
136 405
5670 203
17223 405
17763 406
21101 279
23716 247
24405 405
25438 405
27298 103
27716 405
29673 405
30054 199
30707 405
31048 405
31081 405
31905 405
31969 223
137 407
347 407
357 407
421 407
929 407
1066 407
1776 407
2287 407
3095 407
3699 408
5517 407
9021 407
20340 2
27925 161
29230 68
33773 36
138 73
9019 327
9410 73
13513 73
19057 152
23069 409
23704 73
23762 73
24667 73
29784 128
30298 73
31724 73
34204 19
34443 31
139 124
449 204
805 261
5007 410
9029 411
11274 124
13653 124
15960 124
19095 412
23899 357
24182 124
28530 124
31446 124
31586 124
33925 124
34000 124
140 87
857 413
7487 414
8990 304
12291 415
14757 87
17631 87
25432 87
29173 87
29707 87
30181 87
32122 112
32157 28
32753 87
33220 87
33633 87
34431 87
141 416
6903 290
11701 36
21759 416
23957 2
25437 416
27040 4
27694 416
27862 416
28112 276
28590 264
30512 416
31889 416
32490 416
32804 416
33347 416
34142 416
142 41
2251 417
3420 418
4124 41
8831 301
15277 41
17148 41
18180 71
18977 41
21095 114
22322 41
23720 41
23838 41
24090 41
25271 41
143 419
1951 419
2818 419
3105 419
4079 419
4143 419
4405 419
4630 419
4838 419
5090 419
5952 419
25646 420
30671 220
33728 55
33874 2
34325 2
144 421
9267 112
10127 422
14550 253
15797 152
16565 10
17928 423
18119 421
20099 421
22837 421
28313 421
30688 421
30876 421
31821 421
32081 421
32126 421
32255 421
145 381
2325 381
2857 381
4261 381
8702 381
9289 381
12878 61
14455 381
14674 381
15001 381
15400 73
17432 381
30131 330
30585 424
32997 203
33531 36
146 33
416 247
11560 249
16012 33
19401 10
19957 33
24859 50
27203 33
27364 33
28585 33
31392 33
31656 33
32408 33
33801 33
34257 33
147 289
2232 289
4603 289
11002 31
12085 109
13491 425
14655 426
15074 289
21846 289
22768 60
32969 289
33211 289
33423 289
33724 289
34034 289
34413 289
34527 59
148 427
408 427
1379 427
1512 427
1549 427
2230 427
4232 427
4896 427
5098 427
5650 427
6372 427
8642 60
23389 5
24625 72
24655 428
24991 429
33319 28
149 91
351 91
1834 91
2183 91
4080 91
5581 91
7325 91
8193 91
9068 91
20094 208
21542 430
28889 320
29256 72
30208 57
32501 431
150 142
3231 142
6767 142
10184 432
13936 142
14118 202
17219 36
27807 142
27825 142
29556 13
32639 148
33205 142
33239 142
33580 142
34081 4
34495 142
34511 142
21313 280
25269 64
27526 410
33982 330
34181 140
152 413
592 413
1321 413
1883 413
2117 413
2200 413
2825 413
2937 413
4238 413
5146 413
6305 60
8366 142
8900 413
13500 228
26342 186
26376 433
33610 64
153 115
2187 115
5851 434
15124 115
21253 186
25113 410
25559 354
25998 115
26729 115
28689 115
29391 115
30177 115
32034 36
32854 115
33038 115
33795 36
33943 115
154 112
12006 112
12165 112
21839 61
22245 112
26035 152
27486 435
29405 436
29762 112
31144 112
31457 112
31600 112
31799 255
32473 64
33620 112
34528 112
155 22
721 22
1830 22
2878 22
2931 128
5760 22
7704 22
8044 22
8137 22
9038 22
9049 22
9446 22
13127 323
16553 261
19209 140
21526 437
156 438
545 438
1037 438
1162 438
1210 438
2720 438
3028 438
3037 438
3789 438
5222 438
8098 438
8771 438
26149 439
27119 31
28309 420
32031 42
157 437
6292 437
6840 437
6871 89
11798 440
20639 64
21121 437
25060 437
25347 437
30708 36
31621 437
32302 87
32565 437
32568 437
32610 437
32638 437
33297 32
158 128
4725 128
5827 441
10438 442
19331 443
21752 28
22854 128
26024 128
26254 119
28545 128
29222 35
31858 128
31967 441
33124 128
33569 128
33924 128
34546 128
159 444
1800 444
2142 444
2993 444
3500 444
3670 444
4250 444
4325 444
6781 444
7310 444
7558 444
7767 445
7909 446
8571 444
8636 447
20091 448
34526 128
160 286
285 286
895 286
1955 286
2048 286
3058 286
4724 286
5065 286
5068 286
6237 286
6805 286
17111 407
19388 449
23980 450
27582 103
30273 37
33504 267
161 51
476 51
636 51
667 51
862 51
2044 51
2614 51
2942 51
4205 51
4268 51
4926 51
12501 219
14041 101
19941 330
22631 11
29087 60
33125 102
162 79
1339 451
8706 10
10380 79
17396 79
23586 79
24122 280
26276 79
26645 128
28015 337
28746 102
30709 79
31235 79
33185 79
33606 79
33912 79
34483 79
163 452
1034 452
1074 452
1209 452
1998 452
2466 453
3757 452
4871 452
5293 452
7314 452
8471 452
16263 454
28085 455
29352 2
30540 103
32874 271
34491 208
164 269
520 269
6160 269
6988 456
8537 269
11636 269
12896 269
16912 269
22579 269
23886 269
24721 269
30828 73
31429 203
32855 200
34269 178
34315 13
165 29
3070 29
3113 29
3316 253
3491 29
4492 29
4539 29
4785 29
5342 29
5785 29
7695 29
8708 55
10603 203
23818 20
28295 457
32649 458
166 459
9216 459
17158 205
18542 60
19106 459
24038 459
26850 459
27785 459
27814 459
28193 459
28367 459
28790 459
29149 459
32393 85
33632 203
33843 2
34465 166
4072 389
6212 460
11098 461
30542 462
32727 206
168 432
233 432
1625 432
2158 432
2786 432
2865 432
2922 432
3519 432
4271 432
4964 432
8728 432
14680 140
19792 384
21437 180
24525 463
32433 61
32469 193
169 359
171 359
180 359
479 359
866 359
1219 359
1491 359
1685 359
2256 359
4887 359
5111 359
5390 464
12960 465
23714 457
25316 245
170 89
5311 89
10632 49
14516 31
17875 89
20889 36
22425 466
23664 89
23738 467
27456 89
30616 89
31034 89
33572 89
33614 25
33857 89
34502 89
34542 36
11875 103
13770 319
13987 468
23321 334
23350 90
26930 31
172 274
417 198
12862 396
12949 274
17455 274
17536 274
18112 21
19758 369
29289 274
30225 274
31055 274
31236 441
32350 191
32523 274
32529 274
33243 274
33492 274
3506 469
12124 137
19680 470
21702 471
31099 472
33210 354
174 198
675 198
684 198
858 198
897 198
2386 198
3614 198
4570 198
5062 473
6405 198
6885 198
25900 245
27208 390
34307 172
175 235
2370 235
2815 166
5755 235
9662 235
25856 87
28289 235
28604 235
30038 245
30536 235
31627 235
31786 235
33221 235
33693 112
34222 235
176 69
1580 69
2249 69
3144 69
3399 69
4109 69
4324 69
4650 69
7599 69
7989 69
8491 474
8661 69
15057 31
17064 20
17538 222
30963 31
31841 447
177 259
6795 475
10347 259
17703 259
18079 259
18313 259
18836 177
19147 259
20338 259
20806 259
21182 259
21989 235
22964 259
24985 28
25384 259
29596 320
178 229
595 229
604 229
1069 229
3286 229
3697 229
4167 229
4199 229
4656 229
5933 229
6444 476
7413 229
7562 132
13286 122
26402 334
34381 64
179 60
2838 60
5425 60
9718 73
11216 20
11505 60
13077 477
16155 2
26219 60
27569 60
27632 60
27720 60
29081 90
29846 60
33445 86
33485 60
34214 320
9545 478
11887 64
13150 35
28478 208
29119 44
30112 479
181 28
1301 262
1584 28
2636 327
6694 28
9836 409
17735 28
21524 28
29295 28
29647 28
30474 28
30971 28
31923 28
32937 151
182 210
10178 210
12755 452
13453 276
16990 210
18994 210
20704 148
24053 210
24837 210
24929 210
26904 210
28393 210
30367 99
31142 28
32751 210
33153 210
34521 2
183 218
896 218
1079 218
1332 218
1477 218
3285 218
4442 218
5730 409
5776 218
5971 480
8344 218
8434 218
9246 162
18811 60
25418 334
26131 11
184 481
3703 61
5817 481
6247 481
6385 481
12146 60
12567 481
12680 481
13132 122
14012 481
14456 481
15585 145
16959 481
17451 481
17958 481
30372 61
33812 236
185 180
8178 482
17389 60
20509 180
21474 200
22778 180
23658 180
24839 334
25807 180
26301 180
26409 458
28230 180
30024 180
32697 180
33753 180
34149 10
186 251
816 483
3495 251
5739 481
6759 484
8587 251
13264 251
18958 251
20181 251
21932 251
23318 115
24555 251
25435 251
25930 251
30053 60
32037 73
187 168
1976 2
2490 168
8958 235
19382 168
24133 485
26496 168
27970 168
32539 168
32548 168
33517 168
34164 168
34168 168
34354 356
34545 128
188 28
3782 28
11855 486
12799 337
14812 28
22226 28
23617 28
25068 28
27059 392
27687 28
30153 60
31419 28
33450 28
33679 10
33763 154
34274 28
189 487
468 487
972 487
1111 487
1784 487
3269 487
4229 487
4532 487
4588 487
4772 487
4821 487
8105 487
19439 488
20464 270
22101 25
32016 285
190 423
1153 423
1178 423
1284 159
1398 423
1442 423
1658 423
3129 423
3557 423
3984 423
5502 423
6614 423
7526 79
13297 489
21264 490
26410 376
34047 31
191 399
4740 491
5708 105
6227 399
9817 367
10289 399
10388 399
11450 399
14471 399
18648 19
18784 399
24688 44
24771 399
30907 399
31825 399
32915 399
192 492
3068 492
3194 493
4832 492
5308 492
6902 494
7153 495
10839 492
15998 492
18325 492
19071 492
20328 492
22022 492
22667 492
28945 102
193 13
7225 13
8862 23
14875 21
16955 313
19244 172
26724 13
27284 13
27735 13
30228 13
30915 13
31397 13
31681 156
34308 13
34399 13
34429 25
194 128
8165 152
10971 222
14090 496
17441 128
23650 497
24691 128
27727 128
29246 289
29571 57
30834 128
31880 128
32164 128
33332 128
34117 128
34124 128
195 368
4221 368
4330 368
9456 368
11034 368
12774 368
12850 454
15857 368
16844 368
17479 368
17956 498
18837 385
19872 368
21208 2
30747 28
33009 98
196 109
8778 365
10400 109
15982 123
17013 109
21962 109
23341 109
26173 109
26433 499
27222 142
31312 6
32672 109
33365 109
33596 109
34372 109
34442 109
197 460
1143 460
1644 460
3127 460
5355 460
7417 101
8023 460
10617 460
12693 460
14462 460
14910 145
15136 460
15433 460
29781 479
34423 472
198 64
1040 500
13201 64
13800 501
14847 64
17135 64
18900 502
19612 64
24064 64
24284 64
29573 188
30471 64
31107 285
32617 64
32728 64
34133 64
199 503
1239 503
1642 362
2254 503
2272 503
2845 503
2973 503
3487 503
3691 503
5112 503
5891 503
7326 503
28205 504
28671 178
200 505
1318 505
1410 505
1910 505
4256 505
4716 505
4733 505
5158 505
5667 245
6827 505
7412 505
8195 505
16239 42
23217 181
32203 95
32656 506
34213 172
201 5
1422 176
8446 5
9848 5
22865 61
24164 5
26345 5
27681 142
28633 5
29642 364
29855 5
30465 31
32657 5
34049 276
34317 5
202 507
6923 385
8454 203
12017 507
12931 507
13197 507
14037 507
14157 507
18147 507
19652 507
19925 507
20020 52
20543 57
21924 507
22956 507
29930 318
203 508
222 508
373 508
491 508
905 508
1103 508
1161 508
5084 508
5278 508
7777 59
8243 508
8337 508
11425 256
25326 60
30653 332
32508 114
34537 64
204 10
9929 305
11561 10
12035 10
12308 25
13867 10
15454 60
18035 10
21940 10
22983 267
25356 10
26648 10
27476 10
30046 10
30884 509
34286 20
205 369
831 369
887 369
1421 369
1935 369
2376 369
3481 369
4095 510
4933 369
5224 369
5232 161
9445 369
23770 175
29454 206
29614 55
32291 19
206 93
1206 93
1603 93
2618 93
2741 93
3026 96
3669 93
4861 93
5195 93
5509 93
7570 93
11396 122
18541 245
26325 31
32146 2
32681 13
207 140
375 301
11571 140
14205 35
16441 140
20264 140
24735 124
26557 89
26969 140
27133 511
31263 140
31848 55
32912 140
33454 140
33878 140
208 298
5353 57
6790 354
9708 298
13379 203
15772 298
19917 298
20782 298
20807 298
21525 512
21902 298
23293 298
23351 298
24557 298
24870 298
27810 102
31559 194
209 472
6745 513
13763 99
15691 365
25812 514
30102 472
31671 472
31925 472
32481 472
33006 472
33339 11
33643 472
33959 472
34361 472
34425 472
210 515
2381 30
2422 515
10460 515
13032 515
15106 515
16108 515
17055 515
17731 515
18259 515
18435 515
18638 148
18788 515
20901 64
28237 124
32450 484
34294 53
211 425
681 425
4883 425
5854 425
5924 425
6003 425
9705 425
11567 425
13680 425
15294 425
16746 2
28490 382
28784 10
28834 172
31798 109
212 516
2374 516
3428 516
5712 516
10366 516
10389 516
11967 516
12213 516
12685 208
14775 516
16471 192
16946 516
17633 516
30909 228
31481 255
31986 73
213 2
4298 88
6211 39
11824 2
11980 2
18657 64
25045 489
26801 517
28248 2
29184 2
30835 2
32409 2
32925 2
33161 128
33501 2
33853 2
34301 222
214 198
251 198
511 198
1251 198
1651 198
1678 198
2182 198
3235 5
3244 198
3429 198
4236 198
5321 198
12886 164
13371 119
20619 253
22290 245
34450 31
215 313
5359 313
13426 245
13734 313
16962 313
17855 313
18447 313
20125 313
21051 313
22488 313
23692 313
27905 20
29333 325
30104 43
33409 166
216 518
585 518
761 518
1126 518
1819 518
2265 518
2971 518
3176 518
4155 518
5265 518
9303 518
16893 116
18213 127
25277 519
26578 520
29648 44
217 35
3036 35
13369 35
16058 35
20650 152
21153 73
25018 35
27917 64
29870 342
30010 220
30412 35
31687 85
32250 35
32995 35
33767 35
218 521
930 64
4234 387
5615 521
6635 521
10443 32
12456 521
12514 521
18053 521
19368 431
22228 521
22743 521
24195 521
24499 521
25425 521
28735 36
30988 73
219 132
2707 230
6536 295
10258 132
21958 132
22503 149
22565 132
24882 522
28562 132
30665 132
31068 132
33191 73
33411 523
220 64
2298 64
15271 412
20303 64
21190 238
25104 524
25391 64
25937 525
28060 64
28893 225
29225 64
30483 64
32197 64
33781 64
34195 64
221 518
226 518
424 518
1676 518
2355 518
2481 518
3265 518
3607 518
6316 518
7805 518
8785 518
16554 526
20820 61
26926 35
31362 2
34493 36
1437 527
22754 191
23978 334
25249 220
27597 76
33755 86
34535 354
223 198
611 198
10166 198
10170 198
10458 198
10566 198
15635 528
16890 198
16945 198
17082 198
18334 198
19666 198
22519 285
22755 177
30563 140
34236 36
224 314
2012 529
5532 530
10689 531
14829 314
15767 314
23447 61
23783 314
25871 314
27796 314
29963 314
33229 439
33377 89
33525 314
33700 314
33758 314
34313 314
225 510
657 510
1383 510
2121 510
2639 510
3407 510
4594 510
4921 510
7402 510
9096 510
9317 117
9359 510
30351 44
32991 9
34543 11
9468 64
10241 532
20267 90
27449 114
30124 271
34363 44
227 11
6312 533
13894 528
23379 11
24287 11
26285 483
27209 11
27318 11
28743 11
29446 89
30987 454
31064 11
32982 31
33238 11
33792 11
34368 11
34478 11
7273 534
21096 145
30067 172
229 407
2503 407
4657 495
11130 407
11849 407
15729 407
16709 407
16815 407
18099 407
18907 20
19621 407
20234 407
24960 60
25615 61
29470 372
230 535
6492 123
8590 467
9823 535
18528 535
20801 535
22026 220
22071 535
22180 535
23624 535
23968 535
24682 535
24715 535
26286 535
32574 166
33881 112
231 536
8903 537
11437 536
13080 536
16111 536
16298 536
16330 536
17612 536
18106 536
19480 536
21020 19
21868 536
24470 536
28881 19
29589 280
30779 25
33201 64
232 538
601 475
1762 538
2237 538
2713 538
3740 538
3968 538
4266 538
4314 538
4527 538
4535 538
4800 538
8965 281
9327 176
13587 260
17341 48
31817 275
6619 539
8494 64
8951 382
14848 112
24675 540
32863 101
6154 411
7399 230
8639 5
29336 31
31470 73
235 174
688 174
1057 174
4500 174
4913 174
4970 174
6142 174
9163 174
9752 206
10715 174
10784 174
12218 174
19461 123
20074 64
24169 541
34420 10
236 34
2484 128
4560 137
8421 34
8671 34
12487 217
31736 119
34334 25
237 451
306 451
317 451
786 451
1655 451
3074 451
3907 451
4394 451
5089 451
5711 306
6669 451
8944 542
18812 213
23256 2
29579 334
238 543
1089 543
5037 543
5255 544
6391 545
7423 543
11105 543
11922 543
16057 543
16376 543
16523 337
18778 543
19704 543
22673 543
25939 318
26191 499
26902 330
239 220
2266 220
4920 220
12285 64
21297 220
21362 103
22114 220
24388 546
27942 220
30661 220
31178 220
31929 61
32667 220
34234 57
34323 222
34398 220
240 393
964 393
14364 482
19201 299
21224 308
24416 247
24654 393
26507 393
28785 289
29296 393
30627 393
31111 393
32427 393
32485 393
33128 393
241 487
1062 487
1381 487
1880 487
2390 487
2448 487
2551 487
2659 277
3067 487
6685 487
8264 487
8827 487
9361 487
28707 89
31941 20
242 431
938 339
14055 431
17038 431
20112 431
23277 476
26176 37
26293 431
26842 431
28389 547
28950 431
29964 345
29981 431
33273 431
33508 128
243 7
4198 7
5953 7
9437 7
9911 548
14915 7
17907 7
19641 549
20827 7
23505 7
25256 7
25509 7
26451 114
28519 59
33121 484
33831 128
6543 213
10035 17
24438 328
26287 148
245 315
933 317
3201 315
3766 61
6242 315
6310 315
9677 315
12198 315
13015 315
17667 315
17988 315
18015 315
20870 315
30340 472
34508 89
246 362
324 362
1010 362
2139 362
3110 362
3250 362
4082 362
4106 362
4435 362
7630 550
9159 362
16423 109
28002 551
31970 33
34343 60
34376 20
247 254
1117 254
1174 254
1940 254
2089 254
2426 254
2695 354
3298 254
3799 254
4544 254
4591 254
7557 292
8204 254
13494 354
24275 552
31982 99
248 553
9113 553
14686 553
16159 553
17046 553
18310 31
18636 553
19579 320
20176 553
21599 553
22033 553
22718 553
23151 553
28956 28
29129 59
249 118
6354 191
6419 57
10769 118
12984 118
13035 554
15089 555
15367 118
18456 118
23814 118
29169 118
29376 118
29500 178
29602 447
30949 118
31136 118
31998 118
250 556
4201 223
8829 556
10373 556
10602 556
11895 556
13366 556
14064 556
15492 556
15844 556
15864 142
20811 556
20919 556
21602 134
26083 127
27373 49
34060 128
4511 548
5523 313
22796 557
32051 79
32739 33
252 161
2258 161
8479 558
8870 29
21582 161
24547 161
25542 114
31661 161
34019 161
34456 161
34507 36
253 263
4284 495
8239 263
9717 559
11483 263
11790 36
13241 366
15311 263
17877 298
18277 263
21734 263
22693 263
22844 263
24591 263
24896 263
25044 263
31152 233
254 560
2091 560
4569 413
4954 324
5793 560
8735 560
10102 89
11493 560
13013 560
13322 560
13918 289
15740 560
16645 560
16869 61
20944 228
21232 560
30918 509
255 561
714 561
849 562
1192 561
1837 561
1999 561
3839 561
4181 561
4254 561
6072 561
8184 561
8880 561
12572 247
19936 357
20719 208
26374 455
256 563
945 563
1086 563
1833 563
2259 563
2454 563
3915 563
4600 563
7459 563
7691 563
8443 563
10501 564
10810 303
22041 565
29815 152
31707 102
257 64
5782 64
16637 64
17159 64
18633 64
21688 566
22876 2
23275 64
25656 194
26249 64
27852 64
29459 64
32687 161
33027 64
34242 64
34514 19
258 567
4696 183
5149 568
6604 567
6901 567
7016 567
10233 567
10645 567
11298 567
11597 567
13640 567
15888 567
16393 567
16653 119
16666 567
23361 73
23797 73
259 219
845 219
1097 219
2749 219
6515 219
7538 219
7972 219
9618 219
10214 219
11097 36
11779 219
15679 219
31867 154
31937 108
32434 90
33975 10
260 569
664 569
874 569
4671 569
7476 569
8662 569
9880 569
11705 245
12553 551
13186 569
16088 569
16134 569
17348 569
34148 267
34504 64
261 570
394 570
5145 570
5865 570
7670 570
18054 570
19189 59
19283 570
19602 571
20072 551
23153 570
23532 35
28543 570
32180 570
33847 2
33864 570
262 339
2921 339
9093 339
9802 203
13927 339
14628 355
21916 244
23357 339
23851 572
24657 573
26395 339
28115 122
28347 339
28447 339
30318 339
32504 339
263 574
3320 574
4502 574
5117 324
5445 487
6670 574
6941 6
9653 574
14148 574
15285 574
15473 574
15749 574
17278 574
17885 574
24144 61
30241 57
264 468
3585 468
4804 492
5329 468
8487 468
10615 468
14515 468
14705 2
16125 468
16212 468
18672 468
19938 468
20419 468
31636 372
32772 50
34197 280
265 226
1175 226
1298 226
1450 226
1664 226
2555 226
3192 226
3722 226
4112 5
4545 226
7301 320
9431 226
13052 19
17238 382
29314 102
266 133
3781 133
6830 236
10180 133
11527 133
13377 133
14546 133
16734 133
16891 121
18419 133
19171 133
19177 123
19683 133
23921 433
24017 133
27920 223
34067 87
267 575
731 575
1028 575
1188 575
2346 575
2699 575
2714 575
2779 575
2884 575
4358 575
5809 575
16904 576
17925 103
27343 6
33004 152
34140 271
34297 236
268 287
1626 83
2280 287
5053 287
8025 31
8162 287
9241 287
11122 287
11541 287
12898 287
13076 287
13288 423
16366 287
17264 287
25040 68
31844 31
269 5
3416 370
3652 33
12483 317
12568 11
16510 5
18083 5
20552 11
21757 321
28070 5
32276 5
33268 5
270 164
10948 164
22239 164
26529 152
26673 164
27629 164
28359 164
28388 164
29689 164
29753 164
32416 70
32620 555
33209 31
33462 354
271 123
6189 60
9128 33
16410 23
20960 31
23227 64
26324 123
26361 36
28372 123
29300 123
29710 123
30612 123
31386 123
33541 123
34260 123
34383 123
272 577
7527 577
8372 577
20825 128
22609 577
23308 577
24358 577
27237 577
27528 577
27567 578
29161 55
29449 577
29946 577
30118 579
30914 577
273 217
1043 217
7917 217
9702 217
11005 217
11605 217
13969 217
15161 168
15714 217
15771 217
17065 217
20162 580
24434 108
32242 581
32994 216
34406 73
274 128
11226 128
22281 127
23710 128
24717 128
27948 128
28931 128
30626 382
31045 128
31388 11
33174 128
33735 106
275 175
1348 175
2289 175
3477 175
3937 175
4050 175
5257 175
6375 175
6657 175
7276 175
7375 175
22120 366
27499 210
27795 211
28750 582
29417 179
34471 11
276 110
886 325
1742 110
3208 110
5935 104
6035 110
6831 110
7910 280
14779 583
15160 110
16090 110
16247 110
16368 110
18041 60
18269 110
34424 112
277 236
6225 236
9763 44
21551 28
23225 236
23373 236
25652 236
27715 236
27791 11
29457 55
30166 236
31266 236
33631 60
34174 236
34283 236
278 87
4406 87
6258 584
6609 235
10820 500
11581 87
13626 87
17297 124
18097 11
24386 64
26863 87
27510 87
28554 87
30175 87
31803 87
31839 87
34172 87
279 585
409 585
841 555
2114 585
3139 585
3844 40
4099 585
5967 585
9189 585
9745 167
15812 585
17395 585
17730 156
20780 585
34369 65
34534 148
280 79
6540 79
9150 477
10798 31
13340 79
25042 79
26142 79
28381 79
30875 168
31980 79
33475 79
33968 79
34113 330
281 303
549 304
1055 303
4513 303
6956 303
13750 303
14565 303
15238 498
21293 448
22360 303
24914 303
25407 367
29406 303
32893 28
282 586
480 586
899 586
1516 587
2935 70
4567 5
5465 586
6301 586
11104 586
13189 586
21572 586
23285 586
24943 586
26791 588
28577 586
28634 589
30350 586
283 487
1085 487
2241 487
2423 487
3941 487
4219 487
4316 487
4321 487
16177 504
18995 554
20746 87
22243 203
27714 27
33895 53
284 419
614 419
907 419
1629 419
2242 419
2477 419
3014 419
4409 419
7409 419
7843 419
9135 419
13754 590
14998 546
20812 591
28320 55
4554 62
4769 73
7665 127
9967 451
14319 421
34237 11
286 203
7435 203
10487 203
10962 366
12096 203
13568 203
18395 203
18981 203
19764 152
22776 2
24274 203
26820 203
28341 31
29133 101
33258 203
34256 4
287 506
2585 506
4681 592
7768 122
15234 11
20438 506
24114 545
27613 506
32065 506
32507 506
32744 506
33146 506
33338 506
33888 506
34125 506
288 62
10595 593
13646 20
18840 62
22117 62
22483 253
23421 168
29022 62
29513 62
30068 62
30342 594
30380 62
30810 223
289 296
1843 2
7086 296
7611 296
10567 61
10592 108
10902 296
13791 296
15653 415
15913 296
17302 296
21417 296
22146 296
22151 296
22436 37
290 64
15167 64
20174 64
24029 595
27443 13
29484 95
31011 64
31205 320
32802 64
33397 314
33403 64
33473 64
34392 64
34517 64
291 596
4459 596
5548 3
7870 596
10548 596
11078 306
14861 596
15084 596
15805 596
16519 596
19770 596
21418 596
22273 374
23634 596
30270 64
31167 128
292 593
418 593
477 593
947 597
1532 593
2197 593
2221 593
3912 593
4598 593
5882 28
7499 593
8242 593
8459 593
23494 148
30740 211
31583 392
293 36
818 203
4040 36
5259 327
5298 36
19989 598
22027 10
24166 36
25895 36
26768 36
27015 36
27666 192
28052 36
33502 36
34486 36
294 33
21727 33
23325 128
23553 31
28187 33
28195 33
30545 33
31282 33
31949 2
32043 53
32206 599
32688 33
33426 33
33437 28
33945 33
34430 33
295 503
4574 503
5441 502
7506 503
8142 503
9013 503
10211 503
10985 503
11826 503
13386 503
15616 503
16303 503
19304 73
27055 156
296 2
7675 2
12792 2
13309 2
15210 121
16101 74
20792 2
25574 2
25814 57
26554 2
26910 600
30920 2
297 601
367 601
775 601
942 601
1799 601
2170 601
2923 601
3376 601
7060 601
7887 601
9448 601
13430 30
27183 40
27286 342
27775 20
31106 60
32514 245
298 23
7383 61
11599 23
12276 23
13420 23
13543 23
15258 23
15409 28
15655 23
18664 23
18795 23
19726 496
20903 23
21387 23
21682 465
24357 583
34488 128
299 602
521 602
651 602
1806 602
2159 602
3163 602
4294 602
4717 602
5227 602
6631 602
6673 602
9133 324
16339 86
17812 19
23009 168
27455 60
33548 10
300 73
3848 73
6360 73
9781 292
21299 77
21531 151
24303 73
26813 73
27961 73
28673 555
30317 248
30411 73
30641 73
30903 73
32827 73
34075 59
1395 230
10607 312
11563 230
17816 208
21532 89
26664 28
29889 124
30628 119
302 368
5903 368
6350 423
7589 368
14564 516
31611 276
32277 61
32733 385
303 351
836 351
950 351
1335 351
2054 351
3362 19
4453 351
6962 351
7249 603
8251 351
8315 351
8417 351
25173 491
29162 62
31438 245
33988 20
304 494
1006 494
1741 203
1808 494
2294 501
3773 494
4904 494
5027 494
5884 494
7257 494
7410 494
7919 494
9786 604
12091 245
18676 345
22966 584
26492 13
305 605
502 605
979 605
1142 605
2693 605
3238 605
4014 605
4652 605
5020 605
7145 605
8397 605
24251 431
25389 73
27167 73
31695 47
1926 606
19174 13
29844 148
34441 68
307 434
1000 434
1147 61
1340 434
2784 434
3200 434
3266 434
3331 434
5676 434
6842 434
6853 252
7394 548
9222 434
13107 114
18267 318
34219 166
1110 362
3900 336
5790 336
6702 336
9308 336
11304 336
14912 336
17303 336
17361 336
17380 336
17425 336
19696 128
24734 247
31850 257
309 29
686 29
1362 29
1440 29
3746 29
5877 29
6288 29
7931 29
17412 408
23050 497
27580 57
30784 85
310 99
8404 38
22724 99
25687 72
25819 99
26831 99
28433 64
28627 99
29407 99
29530 64
29700 9
30459 99
32932 99
33049 99
33872 99
311 607
1517 607
2687 607
3046 608
3464 607
3805 607
4141 607
4474 607
5451 607
5507 607
6894 607
8014 607
20247 402
28906 64
33278 89
312 227
1461 227
2212 227
9234 227
9580 227
10147 227
10171 227
10683 227
10723 227
11710 227
12390 31
14286 227
15338 227
21158 112
22794 549
30146 128
313 492
2332 492
7498 492
8981 65
14450 16
19190 492
24680 50
26686 128
33883 320
314 194
4349 478
8815 194
10517 194
12267 194
21760 194
23335 603
25247 194
29083 609
32377 109
315 610
1828 610
2104 610
2207 610
2541 610
2590 610
3549 610
5508 610
6527 610
6809 610
9006 610
9554 610
17186 586
30309 396
31703 290
32597 55
33659 142
316 120
322 120
403 120
766 120
1156 120
1965 120
2529 120
2578 120
4310 120
6371 120
8070 110
8211 120
11431 301
28951 61
30727 465
33345 206
2135 573
8054 73
24278 357
318 611
3639 611
3778 611
3977 17
5988 2
9052 611
12737 611
13801 611
14722 611
22838 611
23037 611
23149 612
24563 402
26676 611
27024 274
32642 31
14305 506
20054 478
22196 479
31571 12
320 202
5474 613
11941 202
12630 202
13830 118
14921 202
18578 614
25668 202
28329 202
29933 202
30237 615
30917 202
30976 202
33422 202
34310 13
321 616
1759 616
1825 616
2070 616
2633 616
3403 616
3779 616
3841 616
5821 616
8306 616
9160 616
23178 40
25994 387
26580 56
29998 109
31269 128
6184 617
7074 223
7166 50
13603 316
31162 188
32535 38
323 60
1913 61
4300 481
7837 18
9693 395
25735 60
28408 96
28868 60
30314 60
31427 112
32233 60
32261 60
32304 60
32745 60
33460 60
7719 362
18113 253
24824 599
30576 31
325 305
10738 305
11883 2
12048 103
13443 245
14210 590
19413 305
24670 305
25797 305
29455 50
31602 305
31864 305
32017 305
32115 386
33613 305
33727 305
34191 305
326 56
5510 236
21371 355
21695 526
26338 56
27281 56
28001 119
28623 56
29796 56
29915 56
29960 56
31087 56
32040 249
33396 206
33813 56
34010 56
327 618
3218 226
5705 619
5846 620
11657 618
15186 618
16240 618
18441 618
18574 618
18804 618
20943 618
21842 618
23147 316
23343 618
24437 618
30496 506
328 592
659 592
1920 592
1936 592
2613 592
3415 592
5129 592
5185 592
5500 592
8692 592
11242 64
14894 334
21225 621
30272 96
32035 95
34246 320
2615 622
8970 161
11516 340
13479 19
14349 340
33743 61
330 342
6939 342
7179 347
11301 439
24699 125
27050 342
27266 342
27801 342
27960 342
30901 342
31818 342
32542 342
32742 73
34203 86
331 28
2515 623
4279 39
5663 28
7304 624
7876 28
13384 50
19221 233
19387 28
20047 28
23888 28
25714 28
26609 442
31520 28
332 543
8916 379
12471 543
13074 210
13552 543
15528 84
21203 543
27649 152
27776 533
29720 334
333 400
783 400
5387 400
8349 400
9443 400
9788 400
12619 400
15292 400
16413 400
17086 400
22206 245
22497 625
23393 308
28920 203
33981 36
334 109
2465 109
8405 109
13751 109
15603 15
19256 109
27257 109
28072 109
28592 36
29536 109
29932 354
31560 626
32702 36
32858 109
32977 109
33219 79
335 324
711 324
1578 324
3459 324
3606 324
4918 324
5991 324
8307 324
21062 627
26261 334
28231 25
31810 330
32716 128
336 108
4745 108
5485 334
14531 108
15158 156
16421 108
16740 220
18373 245
18973 108
22190 108
24720 108
30699 140
32314 108
33855 108
34295 108
337 605
1535 605
1858 605
3130 605
3793 605
3804 605
4145 605
4283 605
4447 605
4568 605
5968 605
7896 56
9003 223
11890 20
14684 514
16993 36
33536 301
338 225
8292 101
9586 628
9984 622
11464 225
19505 225
21391 225
21395 382
25635 225
27560 225
28137 241
28719 225
32245 225
33906 32
9326 96
14610 501
28822 202
28928 71
32651 59
34311 10
340 566
7958 308
8531 629
9822 566
13945 566
14873 566
16230 566
17073 566
17571 435
20415 566
21042 566
23388 566
24570 566
31854 31
33889 96
341 630
5984 529
7177 630
8447 630
14029 630
19178 630
19254 630
21073 451
22968 630
23831 630
24080 630
24400 630
26911 595
27834 630
32818 523
342 174
19104 236
21848 222
24356 5
26726 152
28385 319
30420 64
343 89
3122 89
4607 89
4942 399
7311 100
14192 89
17566 89
19127 50
23214 89
27214 233
31551 61
31878 89
32453 11
33310 89
344 510
776 631
883 510
1180 510
1632 510
2700 510
2958 510
3608 632
3980 510
5304 510
7002 510
7391 510
9173 510
26380 20
28806 134
8615 172
20904 633
23133 106
30123 73
346 634
4469 634
6078 634
12551 634
14203 634
18411 15
19163 635
20308 634
24175 634
24458 634
24466 634
24609 634
25011 634
26539 95
31442 28
31553 5
33069 247
3080 121
22863 475
23773 314
32178 203
32958 356
1740 622
16852 43
16998 4
18157 61
19670 513
28942 53
34165 316
349 61
6639 61
6736 61
12520 61
17221 374
21552 61
22247 142
28869 61
29462 439
30820 61
32141 61
32695 220
34473 61
34516 148
350 585
2451 585
4756 585
4848 73
6208 585
8281 585
12339 585
12470 123
13926 601
15744 585
20341 585
21908 585
22590 585
28071 64
33340 79
34415 44
3311 91
16433 5
18294 200
19940 354
33698 331
352 426
801 19
1915 426
6261 426
7093 426
8907 426
9157 579
9778 399
13128 426
14989 426
15910 426
16431 426
17121 320
17959 426
27174 220
31164 73
353 524
2897 239
8627 524
10158 524
11076 542
15903 524
16034 524
19315 524
21212 636
22046 524
23121 524
23777 524
26366 524
26757 89
354 64
4893 301
10570 64
18867 64
19490 64
23278 142
23849 64
24604 73
25970 64
27880 11
31025 64
31797 64
33452 59
34536 64
355 637
411 637
954 637
989 637
1462 637
1609 637
1872 637
3041 637
3982 637
5649 637
8185 203
9339 637
28663 20
30765 413
30889 172
33584 73
356 145
977 145
4764 145
7231 145
14115 145
14653 145
15209 145
16520 145
19807 145
21451 622
22287 240
29031 86
29672 87
34525 2
12420 19
16353 502
18991 103
30739 4
358 358
612 358
1884 358
1889 358
3802 638
7284 358
14249 358
19471 358
21019 358
22898 358
26418 358
26541 53
32301 50
359 628
8136 628
11099 60
11368 628
14789 628
14886 628
22448 628
25667 628
26019 628
27518 628
28044 628
29043 628
29381 447
30144 213
30399 56
30749 20
33922 356
360 295
434 295
579 295
1710 295
1794 295
2171 295
2678 295
2989 295
3318 295
4822 295
6917 295
8147 639
17445 295
22620 64
24961 71
28572 3
361 370
7038 370
7479 370
8430 79
8526 159
13774 370
17525 208
17865 370
22070 285
31511 223
362 306
1722 306
3048 631
4759 306
5798 640
5957 306
6254 306
6680 306
7441 306
12349 306
13354 306
14051 306
23039 300
26253 188
28833 12
33951 49
363 641
1863 641
2308 641
2642 641
4158 641
4980 641
8270 641
8622 641
8783 641
8909 641
9143 641
21003 297
24009 279
30877 587
31519 457
33837 491
364 195
550 195
1927 195
2773 195
2991 7
4067 195
5733 20
5982 195
8946 195
9937 387
12258 195
12323 195
13301 195
16332 195
21545 81
24329 73
31846 95
365 531
6106 531
14468 531
14596 531
20350 531
22079 531
22843 531
23480 531
24748 531
26359 531
27307 531
30052 53
30439 5
30965 2
32883 472
33471 506
34312 372
366 43
6878 292
11398 236
20554 61
20702 201
26069 43
26573 43
29593 43
31782 43
32387 43
32776 43
32866 43
33123 43
33262 43
33744 43
2431 601
5596 410
6937 642
14971 592
18617 504
20158 364
31968 64
368 226
1349 226
1496 226
3359 226
4445 226
6061 236
8629 226
11158 226
12432 28
13141 61
14543 226
19963 226
20484 226
28608 643
31928 97
14643 385
18246 73
28196 73
29592 517
30435 11
32055 206
370 644
2459 644
4412 644
5288 644
7139 231
7430 644
8529 644
9512 644
10132 644
11141 644
12062 644
12249 644
33756 5
34319 220
371 645
4760 646
5531 645
6299 262
8056 645
10537 203
15018 289
16203 645
21060 645
21652 645
22261 645
22346 645
24113 645
25009 645
26012 645
33333 61
372 87
14383 597
15240 87
18231 32
18458 87
18910 152
20440 647
23618 87
24001 87
25335 87
27260 96
29575 36
29827 87
31052 87
32273 87
19453 648
27809 60
374 473
1869 473
2005 473
2322 473
2519 473
2828 473
3728 473
4355 473
4869 473
5238 473
6526 473
23557 457
26601 54
32300 151
32576 64
9993 301
10916 89
11608 649
14233 301
15165 301
21307 152
21459 301
25475 301
26709 301
32222 179
32878 301
33405 301
33498 301
33748 245
376 101
5655 142
10655 101
10987 16
11557 280
27907 101
28011 101
31063 101
31115 101
32159 101
32636 319
34255 101
34367 101
34410 68
8722 240
20380 397
24588 60
28417 594
33217 372
378 282
562 282
632 282
2528 282
2536 282
2907 282
4085 282
4086 282
4660 282
5220 252
6568 67
6797 282
8555 282
11586 465
12541 73
13365 112
31088 72
379 20
2658 20
5139 356
7232 294
9110 20
11290 159
13957 20
25091 20
26067 276
26826 394
30667 20
32472 20
32546 20
33046 20
34079 95
380 453
5792 453
10994 143
11673 13
14976 482
19109 453
20420 453
20626 453
22336 245
23918 453
25618 453
27630 453
28012 245
28188 453
29030 453
29742 441
381 244
6538 485
9681 244
11188 244
13687 244
17070 244
19464 31
20754 244
21197 249
21462 244
24695 244
25182 244
26431 244
30944 472
382 650
7474 650
9017 650
10384 650
11458 73
11871 651
12259 650
14574 650
16164 505
16698 650
17248 650
18522 650
18911 650
19912 650
21327 2
25943 35
30248 70
383 61
643 61
9129 652
14285 61
14772 653
19949 61
20316 61
23593 61
24014 578
24763 293
29814 61
31537 61
384 253
900 253
6043 253
7773 253
9285 484
15686 253
16881 73
22740 253
23823 253
25242 509
26514 253
27683 20
29961 148
32002 222
385 245
1608 73
1816 204
9795 245
15228 462
19990 245
25527 203
27058 245
27889 245
30403 245
31224 245
32911 178
34096 245
386 11
13525 11
18412 11
20386 11
22111 11
22177 61
31607 11
32773 55
33990 64
34029 11
34272 208
387 37
1729 37
4066 601
13364 654
14814 655
19374 87
21768 37
22537 36
28516 37
29372 37
29653 37
30796 37
31908 37
32011 89
32538 37
33851 37
33992 37
388 613
2016 613
2938 656
13157 613
14992 613
19378 613
21078 613
25198 613
25401 613
25748 613
27054 166
28544 613
29548 613
32460 2
33196 222
389 63
5479 241
5887 657
8584 63
9414 658
10646 63
11354 63
11358 63
12459 63
14186 63
15519 63
19909 63
21116 63
26502 128
34064 276
390 659
506 659
3076 532
8628 659
9923 108
13549 659
15488 659
16944 659
17741 659
18625 659
19673 659
21001 659
21375 659
27116 26
30601 96
391 159
2105 541
6748 159
12435 159
12796 159
13131 159
15103 159
15930 32
17062 159
20155 175
20461 159
21748 159
24871 130
392 57
4617 31
5824 315
9528 57
10746 57
17194 660
18287 114
19114 285
22184 57
24387 57
26094 57
27303 73
27614 57
32475 57
32799 57
33177 57
393 20
2462 222
10836 20
16157 314
24845 20
25268 20
29148 140
29220 211
29863 20
31060 19
32361 20
34365 20
2203 230
2752 570
8866 529
14043 570
15102 64
17399 661
24802 570
30972 570
32770 570
32927 621
33648 570
395 542
1146 209
1643 542
2270 542
2966 542
3587 542
3774 542
4274 542
5030 542
5280 542
8433 542
13962 662
16457 542
23613 285
33678 112
396 312
1033 17
1367 313
2985 312
7996 312
9363 312
11397 312
15101 312
18048 312
18144 312
20635 312
25030 101
29499 663
32073 112
34226 103
397 340
2180 340
2213 340
5816 340
7024 340
7097 340
10068 340
10209 340
10353 340
10397 340
12087 340
19081 64
19714 61
30445 99
33588 25
34007 95
398 287
834 287
1075 287
3195 287
3828 287
4415 287
5043 287
6238 287
7299 287
8535 287
9413 664
18845 73
33159 594
33636 188
399 650
5297 160
7751 650
13632 563
14470 665
26457 276
30129 73
31437 61
400 152
11954 666
22823 57
23648 28
23983 152
26761 152
28409 152
31890 152
32705 73
32790 152
32953 13
33078 152
33175 289
33360 152
34058 152
34280 152
401 633
7577 633
7648 633
8039 44
8240 633
14613 633
15589 633
16068 633
17199 633
17403 633
18084 667
18615 25
19155 633
25644 276
25696 665
28701 255
32466 64
402 668
7656 495
11182 668
13942 669
14049 156
16543 122
18513 668
18789 359
21374 668
22899 668
23571 668
24452 668
26302 668
26747 668
27591 668
28299 668
5735 241
15174 53
25205 670
33100 154
34462 25
404 22
475 22
1537 22
2534 22
3246 22
3288 22
3600 22
4684 22
5011 22
6679 167
14469 223
20010 31
24504 2
32213 64
32942 203
9192 661
15108 94
25003 60
27103 128
30443 2
31385 156
33133 36
10973 333
17100 56
18185 328
30871 289
31398 60
31723 20
407 109
994 109
5036 661
8648 165
16807 109
26476 109
27252 108
31462 539
33043 109
33470 109
33969 53
34270 109
4083 5
4515 584
12167 522
29711 140
32030 228
914 182
3002 501
6232 585
6273 585
6952 585
7130 585
14622 16
15237 31
19011 457
25557 99
28453 55
410 440
525 440
2875 440
3290 440
4884 440
5283 440
5945 440
6110 440
6731 440
6742 440
7995 440
11811 235
12586 117
16290 542
21709 393
22775 112
25336 31
4190 502
20892 671
22430 105
23075 42
29401 354
32378 13
412 66
8308 158
12280 179
15273 66
20410 66
21887 66
22523 66
22553 66
22873 66
23894 66
25539 66
25651 66
26001 152
28740 61
31718 220
413 114
1484 114
1772 114
4783 548
18201 114
21520 28
23346 114
26006 47
28483 114
29994 114
32351 114
32497 59
34135 114
34409 114
414 672
1813 672
5406 672
5969 73
5981 347
8784 415
11550 672
12746 672
13929 672
18006 672
21888 672
22068 672
23305 672
23397 96
23654 672
31334 106
415 39
534 39
607 39
2261 39
3796 39
5452 39
5567 39
5702 39
6546 39
8607 39
10790 330
14178 143
15537 421
33927 276
7324 30
10264 101
14003 660
23559 203
25506 247
27736 247
27806 247
28402 247
28535 247
29493 247
30885 247
31589 247
31809 2
33092 247
33859 247
17966 344
18537 245
18725 511
9207 560
25459 547
29733 60
419 673
623 673
2199 673
4048 673
4368 673
4424 673
4573 673
6868 673
6947 673
7138 673
8010 673
15896 674
16951 79
23173 2
25473 65
420 620
967 620
1368 197
2274 620
3791 620
4345 620
4372 620
4618 620
5614 620
7342 620
8435 620
9186 620
9406 620
15988 148
33095 96
34241 87
6612 288
14781 131
15670 2
19037 114
20531 30
30782 73
422 37
4706 6
5135 37
11723 228
14626 37
24829 37
29311 37
29585 26
30712 20
32111 20
32803 37
423 279
2984 279
4464 337
19102 509
19559 279
20683 279
23495 279
24212 279
25194 279
25229 279
25466 279
32765 134
33106 314
34205 317
1001 131
12858 177
22555 114
23627 129
24792 118
12075 245
15792 108
20430 320
22850 289
32996 280
426 365
1078 365
1731 365
3267 365
3871 365
6668 365
6979 365
8224 365
9254 365
9543 365
10680 450
13616 503
26962 92
29848 60
32543 20
32976 152
427 20
11219 73
13041 20
15411 20
19373 20
23765 413
26637 20
27684 20
28232 20
33741 20
33989 20
34129 20
428 10
5074 73
9170 247
10387 285
20586 10
25589 10
27877 10
28479 10
32024 64
32886 10
34382 10
429 642
2497 642
3278 642
3516 642
4475 642
5198 642
5525 112
5919 642
6482 642
7522 642
8747 642
11152 190
18683 59
24803 31
30687 194
18817 544
20376 356
20612 33
23809 124
431 4
7606 143
8488 245
13144 143
16059 12
16939 4
26965 4
29914 4
30927 4
32442 4
33075 4
34057 4
34198 4
432 468
4430 468
6135 468
6370 468
8359 55
8839 468
10229 468
13699 95
13839 468
14140 560
15196 468
20615 389
21393 468
21581 53
21836 468
24963 468
31377 11
433 583
2335 583
2836 583
8410 28
12201 583
12536 72
16152 583
19146 583
21162 583
21651 583
22905 583
23677 73
24472 583
26039 53
32613 140
7123 193
22885 236
29828 128
33544 36
435 148
5978 255
7758 512
15732 563
30204 148
30364 148
30675 675
31733 148
31769 148
31955 148
32343 148
34252 148
34358 127
34370 148
4662 199
6058 289
17301 600
23271 410
24637 25
437 614
17669 676
24684 614
26068 614
26095 614
26626 614
28645 290
29378 614
30922 614
32022 614
32398 614
32839 614
33505 325
34229 64
438 631
6404 105
6803 128
7227 631
10616 631
11108 631
11893 631
12508 94
14472 631
16197 631
16217 631
18073 631
19736 631
22554 73
25195 677
34013 372
439 82
9792 82
10752 82
14797 82
14947 349
16412 337
18382 140
18582 82
18921 82
19136 82
20852 82
21021 82
22874 82
28837 53
32090 95
440 522
3938 522
7121 522
12205 522
12528 522
15076 13
17640 55
20548 522
22791 522
23015 522
23841 522
25107 522
29265 13
31160 281
31355 35
441 230
461 230
1100 230
1136 230
2036 230
3845 230
4774 230
7339 230
7742 230
10150 57
21576 87
24215 42
34017 208
3507 364
19072 255
30210 119
443 203
7834 203
10325 47
12013 16
12997 143
14477 203
17758 203
18064 203
18724 112
27797 203
29239 203
31811 203
32101 356
6785 347
7313 496
26202 103
445 31
1974 678
5992 31
8855 31
9651 59
10175 31
12136 31
13092 31
17265 403
17345 191
23395 31
29189 31
33373 61
34515 31
446 587
1181 372
3678 316
13289 679
17687 587
22358 587
24559 203
25653 587
26569 587
27296 587
29820 587
31507 587
31872 587
32686 587
447 680
867 680
957 680
1900 680
2140 680
2582 680
3024 680
3463 680
5231 680
7064 680
8143 680
8749 26
12242 681
12244 178
14114 682
15828 496
27829 46
448 39
17306 442
18662 39
21274 39
21738 11
22771 39
23159 39
30089 405
33084 73
33958 112
9298 158
11089 33
11095 204
13509 60
14597 204
17408 335
21978 204
22042 204
28220 148
450 651
8127 651
12438 651
16634 651
18545 651
22011 505
22819 135
24301 651
25120 651
25338 651
26201 651
26270 651
26318 613
26871 151
451 61
3213 532
4542 61
9056 61
14893 61
15997 72
16873 220
19404 61
22276 178
23205 431
24276 683
26283 61
32079 61
34211 61
34524 61
452 360
1356 85
4906 360
5815 360
6052 360
9275 64
10658 360
13898 360
17430 360
18264 360
23731 360
24481 360
26950 138
27240 31
33149 53
453 549
3251 549
3891 684
6118 549
13198 20
23044 549
27073 549
27513 128
28376 36
28568 549
28631 549
30572 549
30741 549
30851 549
33166 356
34411 31
454 478
8542 478
9625 478
11327 478
14842 478
15030 478
17320 478
17936 271
20886 478
21205 478
23631 523
31829 36
455 475
514 475
1247 475
1263 475
1436 685
1661 475
2688 475
4533 475
7261 475
8646 475
9162 475
16328 462
23320 122
23521 686
32550 40
8819 520
19838 473
23094 142
28788 73
30838 73
457 535
9878 535
14940 80
25261 72
31853 357
458 25
2463 25
7902 228
9502 25
11694 25
13973 122
19429 200
21105 113
23928 25
27519 32
32075 57
32618 25
33353 25
34188 25
459 206
5484 206
6269 333
12909 610
15783 206
21498 456
24272 206
25405 409
27558 581
28890 206
29375 206
30039 206
30404 13
31371 223
32406 206
32603 206
460 495
1586 495
3047 14
7122 495
10195 498
14120 495
15542 495
19381 495
19685 495
21086 495
21244 10
22065 495
22524 495
24564 495
28921 105
32269 579
32309 506
1503 423
13445 266
19225 148
27461 342
32851 317
462 256
1024 256
5423 256
6286 256
7218 256
8593 256
11194 172
11202 256
14721 640
16016 256
16046 256
21377 641
26119 372
33545 31
33681 123
463 5
10529 339
10739 5
12261 5
17770 428
17915 5
18526 461
19841 216
24807 5
28192 5
32436 5
34052 5
34510 73
464 96
10780 96
13775 96
13925 208
20557 96
22233 687
23923 351
24065 96
25359 89
25679 96
28182 96
28413 96
31191 96
34428 96
465 657
2076 657
2889 657
5956 657
7930 657
13348 657
15236 657
15701 657
16297 657
16335 243
21641 657
21680 10
23136 42
33494 523
34080 44
466 659
3483 219
4816 659
11232 366
11928 659
15674 659
18401 659
19345 659
21052 659
21583 659
21933 659
23619 659
24477 659
31710 2
32533 12
467 203
8539 523
9193 203
12903 79
17365 475
22195 10
25109 203
28708 203
29181 203
29419 225
30337 203
30524 203
32210 203
32816 203
34180 203
17517 10
20490 68
21633 525
30837 73
469 323
1104 323
1324 323
1494 323
1708 323
3945 323
4667 531
4735 323
5551 323
8621 323
9489 323
20482 639
20488 401
21469 388
23223 9
470 309
8003 603
12612 309
14276 309
14897 309
19517 309
20648 211
20885 309
21038 309
21441 309
23422 309
24108 309
26163 3
33739 108
471 407
1573 407
4262 407
6918 407
7745 407
8422 407
9235 64
10666 407
10923 407
11118 407
11295 407
11770 407
15394 688
24907 108
33257 245
472 667
982 623
2220 667
3478 667
7352 667
9220 667
10323 667
12479 667
15538 667
16154 559
17467 667
18210 667
21400 667
21717 68
29324 37
29353 236
33535 612
473 622
978 622
1306 11
1747 622
1804 622
3128 622
4209 622
4425 622
6320 153
7345 622
8612 622
9140 622
30109 431
31133 73
474 55
3604 31
18311 689
19275 460
19665 111
20633 55
21626 55
27689 690
30194 73
30505 55
30787 55
31570 55
34258 55
34374 55
34454 55
34479 55
10672 687
12425 648
27583 73
27711 137
31548 123
6467 354
30410 393
32153 172
33012 222
34349 61
9453 370
10793 657
11914 517
20083 447
32933 188
478 473
2474 473
5520 473
5814 473
10193 473
10993 473
11736 20
11929 473
12675 423
16341 473
16819 473
17534 473
19525 20
22803 443
30396 2
18392 325
21714 64
26005 2
27454 449
32170 64
32412 178
1286 461
6079 586
7850 586
12664 264
15580 30
24061 586
25729 36
32696 382
481 234
2750 413
17539 234
18376 234
20148 234
20536 234
22633 234
23690 234
24972 234
26491 234
28387 234
30051 581
34403 142
482 493
768 493
1809 493
1874 493
1929 493
2082 493
2776 493
3646 493
4098 493
4590 590
5767 493
8309 493
18038 470
20932 161
21990 220
483 546
5651 546
8982 546
11963 62
12127 546
13667 546
16877 546
18643 546
19294 546
20680 6
21411 546
24800 457
26576 546
484 511
4476 199
8065 64
10428 511
12911 511
13591 511
15505 511
17820 511
26786 511
27357 20
30026 511
30206 511
30264 511
30770 43
485 302
913 302
1269 302
1439 302
1444 302
2548 302
2650 302
3264 302
3710 302
5928 302
8520 302
14040 14
14255 65
27492 691
32640 128
486 235
4794 604
12482 28
16814 235
18039 31
20594 235
25088 235
25969 235
26404 235
26598 235
26655 429
28960 73
31573 235
33371 235
487 31
1972 31
10513 31
20565 31
21632 525
26957 31
30088 31
31526 245
32766 124
34041 31
34290 31
34469 68
34518 31
488 50
10197 50
12944 50
13952 50
19015 50
20571 483
25119 33
26794 421
27658 27
28168 50
29004 44
29938 50
30953 50
32362 50
32779 50
34282 50
489 295
1238 36
1961 295
2755 295
2964 295
4965 295
5860 295
6178 295
6616 295
6761 295
6914 295
13875 435
17846 280
30041 90
31211 134
1391 56
11585 72
14343 607
22709 436
23748 56
24223 278
27293 56
28939 56
32333 201
32402 56
33493 56
33947 64
34066 56
3114 59
15970 355
25791 73
31731 134
33223 3
492 251
1768 173
10122 182
11447 251
13617 20
15836 154
16024 251
17416 251
17574 18
27692 587
2318 327
2347 327
2668 327
3727 327
5422 327
5687 327
6038 327
8538 327
9054 327
13314 10
15274 148
30096 152
494 84
533 84
1906 84
2006 84
2240 84
2859 84
2932 84
4255 84
4446 84
5818 84
7705 391
17530 600
27309 10
29631 118
495 205
4977 73
8367 205
13481 205
18169 205
19426 623
20773 240
21316 205
23615 205
25260 529
28068 205
29590 205
30167 205
31322 205
31885 205
32278 255
34225 172
496 2
1322 25
5714 405
10824 2
11190 281
20098 236
23410 2
26434 2
29345 2
31070 2
31935 2
32683 2
32961 2
497 489
1228 489
6834 64
10516 327
13963 489
16600 489
17125 381
17771 489
20753 489
23097 188
24083 489
24101 25
24451 489
31477 354
498 692
3754 692
4612 400
5541 692
6738 692
6961 692
7147 692
13018 577
14019 692
15659 692
17245 692
18787 692
19488 692
22772 316
31215 128
32363 247
499 73
759 346
1155 73
3490 537
8938 73
11547 73
12893 73
21478 166
22312 472
24995 73
30462 152
32050 73
32185 73
33995 73
34352 73
34360 73
500 646
707 646
1267 646
1448 69
2065 646
11278 520
18942 61
19931 646
21997 646
22482 646
23530 260
23597 646
24023 646
25291 646
26070 646
33480 96
2396 541
26866 161
27837 320
28440 187
34055 59
12036 447
15825 662
18067 642
26662 202
30171 201
503 341
6516 341
8129 341
8338 341
9511 341
13843 341
14461 341
14665 28
14736 341
20721 341
21262 341
21296 341
23055 320
32939 31
33765 621
34249 123
504 148
1878 693
4343 317
6351 561
12118 188
25923 148
30230 228
32376 148
32483 148
33455 148
33793 148
34063 148
34078 128
34170 148
34262 148
505 188
4144 564
7451 241
14326 188
27306 188
27453 53
28032 385
28709 188
29293 188
30467 188
31652 188
32528 203
33245 188
33568 172
34036 188
34278 188
4561 659
6022 659
10316 523
11440 659
16452 589
507 218
593 218
598 218
695 218
1536 218
1548 218
4056 218
4875 218
5577 218
5578 218
5669 218
11070 2
25787 122
27886 395
31940 203
32612 289
508 182
1148 182
5931 182
6806 371
8811 114
14357 182
15861 182
19292 182
19728 182
20138 182
20163 182
22668 182
25175 73
30624 68
33540 64
509 536
6560 536
16429 536
16664 536
19800 35
22211 355
25558 70
27205 581
29252 140
29621 318
510 417
1343 417
2149 417
3052 417
3210 417
5006 417
6402 417
6503 417
7305 417
8432 417
16138 301
16721 453
27749 44
27933 33
29096 64
31836 40
3357 219
8921 601
32280 64
33231 588
512 664
3493 664
4916 664
7926 73
7967 664
10662 694
11691 664
15523 664
18873 664
20676 664
21098 664
21483 664
26581 281
27927 55
12123 459
20652 695
20996 245
26777 191
31150 65
2231 696
30455 386
32443 43
33699 10
34050 64
34359 122
515 200
6094 200
12288 134
18786 38
22690 200
25718 40
26713 200
26940 200
27707 200
30485 200
31079 61
32069 200
32844 200
33079 200
516 457
3742 20
6415 31
9302 697
17457 363
25894 457
27548 457
28443 457
28874 457
31343 457
31494 457
32557 457
32699 457
33467 457
517 65
2098 65
4481 65
17882 203
17899 65
21967 65
32224 65
32837 73
33702 65
33725 64
33919 65
34364 65
518 312
952 312
1164 312
1679 312
1847 312
2015 312
2990 312
3241 312
3363 312
5700 312
6041 698
7698 312
16374 208
30979 699
519 20
8317 308
11584 647
13752 399
15916 20
16909 20
19031 58
25920 20
29980 509
32264 20
33047 20
33244 20
8325 269
11090 269
13324 2
17242 700
18051 269
19577 269
27324 354
28820 64
31311 276
12917 18
27782 177
33685 188
522 208
709 208
14423 208
16162 361
17809 208
18105 584
23689 208
24542 208
26195 208
30497 208
31816 37
33509 208
34239 208
523 633
691 633
1458 633
2067 633
3370 633
3965 633
4953 633
5050 633
6002 44
6240 633
7461 633
8605 633
10028 2
21104 270
27164 148
27301 2
32808 73
524 434
917 434
1183 434
2062 434
2950 434
3996 434
4188 434
5233 434
5698 568
6991 434
7033 434
8959 434
19908 47
24348 233
33783 60
19900 104
27469 61
33923 57
34098 53
526 453
1688 453
3623 701
7634 453
9340 453
11835 453
12223 453
12529 453
13423 453
13768 453
14874 453
28854 374
34503 112
527 436
5225 436
5744 44
10823 11
13688 436
13956 436
15811 257
15852 436
22418 436
24259 436
29228 436
30021 436
31489 690
31639 114
31706 376
528 43
1237 43
5515 702
6344 43
9789 43
18848 43
20497 457
24493 2
26196 73
26460 236
33803 236
529 598
8420 502
8966 598
10435 598
10664 598
12783 598
14885 103
18133 598
19910 598
20106 598
21892 598
23740 598
27049 245
34386 314
530 639
1638 639
8073 639
12391 703
13683 639
15435 639
16027 135
16468 639
19821 639
20894 639
22372 639
23752 639
25321 639
26737 19
531 184
706 184
1778 184
1802 184
2085 184
2766 184
2831 480
3658 184
4147 184
5364 184
5728 184
8393 184
33845 95
532 66
1323 30
6276 66
10811 66
11363 66
12083 66
16517 675
17051 10
19840 312
4286 692
15008 260
19047 33
27977 305
30100 276
1088 31
9401 269
14904 115
15867 222
29758 201
32033 60
535 38
3138 38
13000 38
13689 108
13896 568
14432 38
24013 73
26582 95
32070 38
32823 38
33008 38
33140 98
536 168
793 168
15996 422
20130 326
20947 245
22349 604
23022 168
23986 168
27802 168
30110 2
30311 271
32829 168
33711 168
537 527
1916 527
2228 527
2810 527
4596 527
5391 527
8448 527
9430 527
20522 4
25455 504
28622 101
28860 143
28870 203
32901 64
538 682
12920 682
14692 682
17092 682
19573 682
20516 682
21735 682
21976 682
22320 366
22613 682
23870 682
26157 354
31084 128
33469 261
539 492
7550 492
8936 492
9791 492
9881 492
9910 125
11260 492
12265 492
12555 492
17905 492
17951 492
19829 512
21261 492
21929 572
26627 44
28688 36
30424 465
1329 24
3801 349
9830 25
23774 36
29899 31
32371 33
541 704
3202 704
4240 704
4340 704
6490 704
15761 704
15822 73
16578 704
18261 318
20058 704
20118 490
20467 704
23563 704
23924 704
25360 285
27976 533
29645 72
542 312
3750 493
3931 312
11402 312
11574 312
11698 705
12688 312
19344 312
19355 312
19468 312
19757 312
21109 312
21291 99
34463 20
17210 73
28879 5
30849 247
32641 96
544 252
826 252
8241 252
13285 252
13440 252
14387 252
15420 11
17864 252
18153 252
21927 252
26189 454
27083 25
31229 53
32755 320
10882 128
12120 61
30910 245
34326 10
546 73
8045 706
10206 60
20905 73
21744 73
21919 73
23907 73
24290 609
25281 73
25554 128
27292 193
30657 73
32655 579
32723 68
33790 73
547 527
877 483
1350 527
2811 527
3393 301
3695 527
4350 527
4692 527
5087 527
5274 527
5513 527
7032 527
8925 527
21016 60
26691 546
32692 320
548 707
4276 707
5487 707
6528 469
9979 707
10649 60
12484 707
12976 707
14269 707
19093 707
19342 707
20428 707
21382 707
34095 20
3279 382
19516 352
20715 304
24510 304
25621 304
30164 304
31271 304
31370 304
32071 304
32098 304
33076 304
1854 195
6571 678
7009 598
10967 693
16516 18
21891 31
33484 127
551 222
22816 466
24909 222
29064 699
32072 222
32262 97
32856 222
32947 245
33357 222
33593 222
33757 222
34461 222
552 708
2640 708
5949 708
9797 708
14841 708
15351 708
16964 708
17750 708
18036 708
18729 708
20929 708
27235 31
27493 5
28506 609
28787 60
32424 95
32741 122
553 642
10087 642
14104 485
16000 642
16656 642
17150 461
19851 642
20038 642
21055 642
21692 642
23060 642
24622 642
25002 642
27918 64
31934 73
34090 472
969 378
20834 680
20846 188
24028 463
555 561
2718 561
3227 561
4354 561
5061 561
5131 561
5371 561
5440 561
6733 561
6884 561
7092 561
8697 118
28456 60
33438 285
556 50
3635 110
13234 50
20184 143
24876 50
26162 10
27750 50
30055 50
30148 50
33001 50
33036 135
33266 50
34404 103
557 373
1113 373
1921 373
3445 373
4208 373
4381 373
4859 373
5559 373
6499 709
6691 373
8440 373
9146 373
19814 35
21607 65
31209 615
31326 12
558 608
6524 608
7800 608
7801 608
8328 608
9471 608
12444 608
15737 608
16025 608
16113 608
19549 608
21539 237
26147 73
29283 255
29878 73
34328 20
10485 581
11742 402
14086 194
16112 11
19956 60
26986 132
560 481
587 481
740 481
1952 353
2584 481
2895 481
4897 481
5018 481
5077 481
6206 481
9033 481
24318 686
27623 570
31851 70
561 128
1721 632
5489 128
8081 106
21534 128
24355 199
27538 128
30332 128
32000 128
32151 128
34171 161
34223 128
27533 28
30833 2
32287 339
563 19
5258 93
14837 328
23533 247
28261 103
29209 19
30800 19
30824 19
31572 19
33380 19
33521 19
34152 19
564 288
1656 288
3913 234
6198 288
7390 288
7941 288
13891 288
13988 288
14341 288
15535 288
19414 288
24858 461
30812 72
33742 289
565 56
10176 56
12515 56
14415 56
15349 56
15885 580
20799 188
23879 128
26319 56
27816 56
28513 31
29177 56
30480 33
32253 95
33862 56
566 433
1098 433
7208 433
12044 104
12103 433
14381 433
18109 534
19092 15
19303 433
21191 433
22331 203
22994 433
24043 433
24592 433
26924 222
33277 25
567 431
2080 710
6458 438
13838 317
17623 431
23892 431
24997 431
26122 431
26135 148
30036 431
30570 431
31280 138
31990 431
33029 431
33733 25
568 640
6216 640
7529 640
7821 640
9811 603
10475 640
10619 370
11942 640
13085 28
14345 640
14554 640
15163 640
569 452
1415 452
2862 711
7908 452
10955 452
11305 712
11449 452
15516 452
17000 452
21037 452
21661 452
23626 452
24524 452
28794 73
570 432
3875 432
5543 432
11628 432
15095 432
17161 432
18830 432
19527 647
20657 432
20940 432
22424 432
23054 432
24511 89
28832 28
31220 26
32313 57
571 83
2047 83
2457 83
2577 83
3676 83
4025 83
4180 83
6337 83
8695 297
8804 83
8941 83
23523 316
31012 152
33991 103
572 608
797 608
1002 608
1524 608
3000 608
4346 608
4509 608
4742 608
4753 608
5909 608
15098 713
23404 64
30353 161
31324 128
2768 163
5396 163
5462 426
13351 163
14953 163
16418 506
19232 208
20022 163
20399 163
21475 163
22532 163
22879 163
24975 3
26858 163
31114 128
574 5
3388 627
9488 516
11481 68
17014 5
25029 457
27388 424
27626 5
29409 5
32494 5
32517 5
34345 5
575 685
1333 685
1977 685
2075 685
2592 685
2805 685
3323 685
3823 685
4484 685
4853 685
6339 685
11035 9
18559 13
18777 20
29285 385
31473 142
576 168
8109 238
8530 168
10103 31
10903 66
18388 168
25039 168
25897 168
28918 168
30011 95
33950 168
577 550
875 550
1478 550
1641 550
1650 550
2185 550
3864 550
3929 550
7608 550
7669 210
7864 550
8620 550
23126 339
24767 57
28263 161
578 212
4178 212
9440 212
13645 278
17030 128
17493 212
18557 714
21024 212
23280 212
24852 212
25213 212
29520 420
29901 212
31007 212
1797 625
13349 245
19048 377
30619 60
32179 89
32819 99
580 715
1056 715
1540 715
4218 715
4524 715
4837 715
4872 715
5071 715
6129 715
6530 715
6877 261
12236 385
16758 389
23953 222
26082 395
31619 320
581 245
1007 245
2312 199
6398 245
8757 245
10883 245
22354 245
25456 245
31514 245
32663 31
32859 73
34032 245
34265 245
582 238
8263 233
8792 472
10085 238
11917 238
14189 238
15152 238
16723 238
16956 238
17099 238
17447 238
17967 606
20405 238
25601 161
30843 103
583 575
835 716
4422 575
5859 575
6774 575
7932 575
8360 575
10920 575
11627 575
11869 575
14582 575
24532 128
28742 70
30377 320
33562 11
584 135
5959 135
8121 670
18919 64
21527 228
24240 135
27158 103
31028 166
31174 135
32392 135
33181 289
33370 135
33682 135
33891 135
34023 135
4363 440
11086 166
31018 203
34475 36
586 181
7591 181
7776 181
7862 181
9680 181
10319 181
10542 648
12810 298
20214 181
20374 181
20510 181
22049 40
23527 181
25102 181
34285 220
1453 299
5215 104
26010 324
32918 354
588 717
2461 717
7792 717
8252 717
13629 717
15875 717
16838 717
19801 717
20483 161
20525 717
20769 717
23145 717
25532 31
31680 61
34048 28
589 718
2945 718
4203 718
10927 686
14511 718
14649 719
16002 718
18819 718
22044 718
24123 718
24916 718
25884 718
26304 264
28811 718
30857 25
590 292
3725 377
8825 292
10072 292
10600 225
11360 292
13965 16
17764 292
19356 292
20584 292
21141 292
23518 292
23902 292
27566 720
34375 454
591 539
782 348
4979 560
12230 228
15615 539
21890 715
22300 73
23970 539
25087 539
25319 539
26371 539
27522 539
28723 539
29033 539
29928 539
4408 64
13533 108
33290 95
34390 59
780 669
10691 43
14053 216
17127 13
33637 73
594 124
6449 615
18755 124
21440 276
22804 124
30695 31
31458 525
31739 245
32606 124
32713 124
32869 124
34126 236
1907 307
31709 101
34238 320
596 661
2933 128
5658 383
8733 661
10385 420
13009 203
13975 64
15830 354
19701 661
20573 661
21613 661
21986 661
24988 661
25312 661
27277 661
28436 661
29898 661
597 23
949 23
5052 23
6016 23
12383 23
13269 23
13540 23
13798 68
15447 23
16736 100
17005 531
30001 683
6119 578
9212 711
18276 640
22872 64
23504 25
33882 103
8138 182
11456 52
13910 126
18771 52
20066 52
23254 166
32896 6
34322 36
600 239
901 239
1449 239
1783 239
3467 239
3485 239
3948 239
4059 239
4380 239
4695 239
5151 239
9583 511
9787 41
18352 653
21624 388
26677 661
29290 127
1133 334
30135 73
30594 20
602 493
637 493
2464 493
3450 493
3826 493
6033 493
7089 493
7294 493
8067 493
12937 57
13436 688
16033 20
23636 691
26991 60
34166 70
603 90
12607 90
17832 61
22100 90
26081 90
28118 64
28471 90
28744 90
29192 31
30261 90
30521 90
30537 68
34244 64
14298 2
14988 73
19181 44
21421 11
33879 73
34020 103
605 262
855 262
1201 262
2872 262
3193 262
6552 262
7436 262
8604 718
8820 262
8821 262
19170 53
28097 44
31389 61
34422 13
606 721
2817 236
4277 721
4329 721
10693 721
14675 721
15104 415
18224 721
18346 554
18459 722
22099 491
26555 721
26643 721
27994 721
28170 721
28340 721
10957 28
15758 108
18225 468
23353 64
29555 506
608 247
1123 247
7447 624
12400 247
15779 103
21489 247
22739 472
24324 247
28617 123
30763 247
32903 247
32923 247
33035 89
33207 247
609 175
2040 294
4811 175
6502 175
10696 175
11246 175
15130 175
18351 208
19199 175
21043 587
21339 175
21481 404
21866 175
29763 96
610 221
1242 221
6342 221
14348 221
15894 221
17184 221
19390 221
20120 221
23711 221
24894 221
26808 114
29953 447
7662 228
8120 198
11997 198
24424 50
32036 55
1198 560
1235 358
8172 358
12311 89
14005 358
18715 289
21054 31
21812 358
23749 183
8995 160
11413 73
14217 20
14983 287
21329 142
24934 285
32479 89
6544 69
23270 223
30880 281
615 236
7627 44
10025 723
15380 293
15958 236
19813 220
20006 236
23281 236
26693 236
30756 236
32272 236
32902 236
616 459
3273 57
7315 482
10960 178
18975 459
20705 701
23876 459
23979 459
29559 13
33439 2
617 7
8478 13
9926 17
10682 724
13164 7
14283 7
14761 223
15787 7
18821 102
20067 416
22522 7
618 254
2662 661
4826 254
6047 254
11436 254
12697 254
12716 254
14099 254
16140 254
18898 254
20390 254
27670 174
28676 225
619 61
3618 379
8287 33
10879 61
14657 61
15063 61
19220 61
19240 135
21841 61
24207 61
28240 61
31017 61
33165 20
620 675
6123 675
12871 31
18462 675
19276 68
19610 161
26612 675
28838 675
30745 675
31238 13
32346 675
33135 675
33526 675
33621 675
34200 203
621 235
1932 725
2167 166
7752 229
11542 726
15482 185
21363 235
21758 235
28317 61
32123 235
622 411
1592 592
1832 411
1964 411
2133 411
2977 411
4458 2
4982 411
7022 411
9764 411
10654 568
11734 411
12162 411
21192 95
24652 146
30753 4
2081 585
624 540
1344 540
7934 540
8189 540
8296 540
10692 540
12881 475
19706 540
20407 540
20973 128
21413 540
22303 540
26955 472
28916 37
33350 523
625 10
6572 349
10118 10
21713 203
21737 104
30632 10
30640 11
32113 10
32381 68
32635 10
33800 10
34145 10
34501 10
626 323
708 323
1211 323
2179 323
2311 323
2873 323
4278 323
5691 323
6495 323
6926 323
8799 323
17353 293
21416 222
627 592
3430 592
5443 592
6551 619
11509 235
11611 592
14395 592
16486 64
20524 592
20893 592
22556 592
25460 592
29157 592
31555 592
628 273
5611 273
5801 273
6559 273
6642 273
8047 473
9657 273
11494 273
11792 273
12296 273
12465 273
15142 60
16120 273
18001 127
34417 44
629 528
4486 528
5908 528
6681 10
8354 528
8842 528
9090 528
12344 528
13110 528
13537 528
14733 528
15678 528
20698 528
22105 333
22317 630
24993 211
630 143
10563 143
14838 143
22897 178
25073 43
28018 143
29098 143
30387 143
32006 148
32227 143
32429 143
33782 143
631 690
12270 690
13593 690
14594 690
16086 195
17204 690
18598 727
19905 2
22473 690
23427 690
23824 690
26479 220
29237 690
31527 314
8451 490
9696 479
13604 12
22578 31
633 265
1049 265
1873 265
2416 402
2747 265
2894 265
3038 265
3613 265
5347 265
5481 265
6547 265
9500 265
10462 304
15393 167
19999 11
27685 13
31842 31
634 73
1909 82
6197 698
11003 73
24433 73
27604 73
28480 73
29355 73
30652 73
32715 320
34287 128
635 142
749 142
3339 90
7763 472
10376 123
14441 142
16097 142
20896 55
29291 103
32857 142
34217 142
8389 28
9290 240
10295 59
10933 409
32789 72
2264 356
9665 12
31363 11
32547 73
3936 210
7614 384
9564 384
10442 384
11767 384
17840 384
19877 384
20514 384
22929 384
23611 384
33395 148
639 179
1479 182
6573 68
10914 179
16824 179
26892 13
28262 179
31202 293
31877 179
32496 179
33117 179
33274 179
640 383
1979 222
3216 383
3736 383
3856 383
4748 383
4886 383
5105 383
5394 58
6578 383
8096 383
9304 383
28721 589
31496 87
641 569
1303 569
4997 569
5595 569
5720 569
7169 569
10037 569
11165 569
13600 569
15339 569
19825 569
29839 615
32147 2
32155 564
34015 280
642 627
794 627
1134 627
1141 627
1337 627
2201 627
3605 627
4552 627
5137 627
6441 53
6707 627
26066 28
29666 314
31278 220
34500 68
7439 622
7605 440
12701 61
14868 349
17487 61
18743 484
20874 422
21306 61
30473 61
32506 19
33949 61
34512 61
644 52
4714 728
4958 343
6754 112
25993 382
28660 140
645 724
2455 724
2666 724
2703 724
3566 724
4293 724
4374 724
4444 724
4824 724
5857 724
7729 724
9225 724
18753 109
20599 68
21657 621
646 729
1473 729
1520 729
1734 729
2795 729
4356 729
4392 729
4665 729
5239 729
6080 729
8114 729
13095 534
14169 726
22931 6
30137 2
31725 79
647 253
2912 253
3496 253
3951 253
8693 253
9496 253
10831 253
11523 253
11882 253
12084 253
14301 103
16847 118
23822 42
29026 59
32066 59
32322 228
648 119
10892 49
13376 457
15965 73
21516 225
21973 119
24857 119
25560 119
25820 119
29818 119
33566 119
33587 119
33600 12
649 240
2038 240
4874 240
13156 240
13588 2
13792 625
19695 240
19823 705
20914 240
24521 240
24851 240
28186 3
28566 240
31776 10
650 700
1354 700
15256 628
15738 700
16121 700
19359 700
20475 15
20921 700
22282 700
22531 700
22648 700
23224 700
23354 700
27117 730
28247 36
29379 59
1469 108
12132 103
19979 34
33375 201
33574 261
652 96
1083 123
10553 505
14887 96
24109 96
24728 96
24784 32
28981 96
29756 245
30983 96
32671 96
33826 96
653 731
795 731
1275 731
1639 731
3101 731
3205 731
3214 731
3366 731
4857 731
5601 414
6030 731
7728 731
16153 669
19993 404
26967 127
654 375
3281 375
3901 375
4744 128
12007 375
14126 375
15848 485
18694 375
20629 375
20787 375
22474 375
25226 375
26108 375
32820 20
655 17
1005 17
4319 17
4467 17
4507 17
6029 17
6100 591
6684 17
6909 478
7021 17
7507 17
14857 95
21858 236
34001 201
656 601
1297 253
3592 601
6082 601
12494 50
12625 601
13437 601
13527 601
15298 601
19473 601
21344 601
22962 601
23952 601
27963 106
31971 201
4398 678
6155 169
21629 245
31468 127
33054 31
658 347
1376 347
1636 347
1953 347
2763 347
3116 347
3813 347
3950 347
6124 347
7268 222
8368 347
8683 347
18256 261
31815 112
32357 447
5301 389
11537 60
14236 99
22035 732
30809 33
33615 108
34388 354
660 548
1583 548
1689 548
2620 548
3087 548
3427 548
3830 548
5032 464
5230 548
5310 548
17876 733
34476 188
661 734
1216 734
1805 734
2131 734
4451 734
4636 734
4870 734
5046 734
5271 734
7920 734
9373 734
28008 61
28427 73
33774 208
662 466
1207 325
3336 466
12024 73
12647 466
19179 466
20583 466
21731 466
21904 119
23012 466
23906 466
24804 70
24913 466
29975 203
663 253
1130 253
3955 284
4033 589
6120 206
7935 440
34138 122
6607 569
7337 569
7858 510
23241 735
30823 36
665 460
893 460
5448 460
6828 460
8208 460
9510 460
10520 460
11294 460
12510 460
14370 201
16205 545
18690 171
33168 247
666 34
5337 323
11947 34
12171 34
14396 34
16118 34
17363 34
19418 34
19445 34
19532 34
29851 354
30587 247
32020 73
33677 61
13756 732
18115 537
23375 670
27473 89
28084 669
32127 59
668 403
1728 403
2031 403
2132 403
4336 403
5187 403
6557 403
7303 403
7885 403
8035 403
9477 403
14136 319
21385 119
22088 72
32552 354
32962 65
669 45
751 45
1480 45
2591 35
3277 45
4454 45
4546 45
5066 707
5254 45
5731 45
7036 45
7233 45
8468 45
29697 372
670 278
884 278
1106 278
1255 278
1792 278
2369 278
2955 278
4064 278
4653 352
5132 278
5164 278
7664 278
15262 50
20132 220
20446 621
671 248
10342 258
19472 248
27875 64
28594 248
29018 261
30418 248
30799 248
31407 439
34082 382
672 61
5106 203
6776 61
17316 499
18505 372
21861 61
26832 714
27366 61
28462 61
28905 61
29361 61
32664 188
673 245
791 245
2746 245
9281 245
15842 58
17779 73
23687 245
27710 245
31384 35
32926 245
33275 245
33697 60
34380 245
674 356
4749 54
13287 13
20604 356
21139 235
21196 356
21763 356
24030 356
24587 356
27480 356
28300 356
28382 356
28823 20
32938 356
2599 64
18282 736
18703 146
21497 148
33938 103
34466 2
676 109
1411 354
11622 109
15015 330
21072 151
21975 15
26708 109
29615 109
30368 109
33571 109
34073 60
677 568
2032 568
2498 568
4342 568
4395 568
7623 12
7677 568
7760 568
8084 568
8812 568
24397 267
678 35
2168 35
4320 737
5466 35
10402 35
16527 680
19044 594
29662 35
30937 354
33695 35
34116 35
679 609
1240 396
4011 186
5244 609
8874 609
23300 609
23699 609
23713 506
25740 160
27340 79
27874 609
29969 609
30203 609
30329 609
31073 222
680 626
7295 626
11283 89
14730 626
15145 112
15870 626
27691 626
28208 626
29604 626
29684 260
30400 626
30656 626
32946 626
2247 425
2413 236
7401 425
29577 247
30178 49
32784 105
682 20
13613 20
14059 20
26443 547
26513 318
26617 10
27299 20
29384 20
30723 20
30966 581
33160 20
33440 20
33780 20
4164 528
12342 33
20001 128
29472 2
29943 61
33824 472
5295 92
12786 73
21045 65
25010 57
685 268
6751 268
12406 712
18622 27
29537 431
31958 152
11593 57
25083 354
26277 71
30381 203
31027 38
32142 101
687 657
2715 657
17478 547
21424 234
24573 681
25570 203
26961 89
26995 248
17050 496
22696 61
24178 554
29241 33
689 102
18037 598
21730 102
24095 102
24183 738
24323 64
25625 102
28661 102
29105 102
30764 102
31618 102
33254 102
34306 102
690 633
2628 10
3369 633
8737 148
9354 633
16487 6
25877 73
29420 669
33983 334
5022 476
6689 11
17224 65
24866 64
27789 739
692 190
920 190
1859 190
5104 190
5275 190
6262 190
8128 190
12938 190
14967 190
27106 6
32184 260
32428 73
33447 53
693 163
2587 671
5771 163
5822 163
6308 163
8289 163
10446 621
10535 163
11044 163
11047 163
14344 163
14410 163
15031 163
16416 163
32340 25
694 324
7585 324
8533 740
18442 324
18507 324
20325 324
21808 324
26106 324
27535 73
27642 324
29120 324
29223 337
31495 247
34405 60
5777 435
11697 90
31465 86
32189 506
696 505
9721 505
10937 505
11861 505
12320 505
12372 505
16488 505
19755 505
19777 447
20738 505
32175 245
32448 225
34457 44
697 191
1105 597
2901 191
6435 191
9004 370
15550 446
16165 686
17041 191
21860 33
26767 191
27663 191
28260 191
28429 191
32057 191
32908 191
8017 280
9685 28
16934 208
17105 211
24744 20
699 111
2014 111
3158 79
6060 111
13408 111
14556 111
20555 319
24208 111
24683 111
25036 183
25258 111
25528 111
26452 61
700 67
965 67
1047 67
1467 67
1568 67
1771 67
2544 67
3511 67
3581 67
3642 67
4830 67
13476 210
17932 68
21409 564
21579 284
24446 20
30303 122
701 741
7247 741
10846 741
11594 61
11762 741
11827 741
12696 741
13469 317
20359 741
21081 741
22716 741
22943 741
23935 741
24822 741
702 115
5126 115
9307 109
10633 115
11149 372
18358 115
28669 115
30780 115
30923 115
32334 128
32815 115
703 578
7504 105
16473 87
16530 578
18763 314
20379 578
21837 578
25165 578
28509 20
31006 578
31035 578
31316 578
31663 578
33055 578
704 61
4736 742
11651 591
11752 61
13447 743
21584 61
25690 61
27586 36
31405 293
33155 2
705 87
2956 87
4416 5
4691 87
9197 87
10307 361
12098 87
13464 87
16131 323
18030 87
26230 87
28602 87
29761 87
32104 456
34427 44
5248 34
10829 61
25579 178
10499 744
18331 646
19123 646
19328 541
24941 112
28961 280
32684 35
3744 76
6248 667
34240 223
17294 736
17987 208
18296 245
24823 316
27609 208
27734 208
29261 31
31024 208
32952 208
2057 88
23560 472
24558 105
25905 146
33663 281
1058 324
7448 392
9573 225
23683 203
26471 57
28734 36
712 220
1294 220
6116 695
8845 220
10054 220
13219 220
15119 220
21276 361
21817 220
28361 206
29160 220
29719 220
713 36
12003 725
18696 36
22091 36
23883 64
24462 123
27231 36
27677 722
29698 36
30724 354
31062 36
34498 36
9227 31
17202 304
19810 46
24350 647
30510 31
32590 357
715 5
2469 79
2623 5
3315 212
4087 5
16420 412
20178 5
21522 5
22510 11
29535 5
31408 5
716 172
13705 439
13879 172
22629 214
25412 148
30844 172
31596 172
31764 12
31961 172
33358 172
33557 201
34092 172
717 60
14337 375
14637 60
23919 60
24801 60
26656 206
27882 56
30326 60
32941 60
34318 55
718 561
4296 561
5427 561
7717 561
17310 64
18564 561
19499 561
20228 561
21918 561
22200 561
24059 561
24718 561
26489 68
28703 104
34120 203
719 673
1316 673
2846 673
6712 60
10012 673
13060 497
13721 673
14004 673
15878 673
17555 673
17632 673
18010 673
18355 673
31945 334
720 394
3145 284
12367 394
17060 394
26091 59
34163 13
4988 108
16599 395
17171 139
25799 320
27883 31
722 240
3564 178
8949 240
9669 240
11374 240
11757 240
11850 240
13704 240
14615 240
22551 382
25423 137
31927 57
31984 99
723 189
2725 189
3574 189
4483 189
6596 189
6822 189
9416 189
10044 189
14256 189
16687 189
18009 189
20686 194
29859 95
724 169
992 169
2284 169
3540 169
7005 169
12959 169
14174 169
14698 169
17961 169
28286 55
33674 20
5726 136
10671 648
16920 314
23211 564
30697 90
726 468
9918 468
11647 468
27034 13
727 703
1992 703
2358 703
2858 703
2996 215
3834 703
4789 703
5279 703
6036 703
8383 703
8978 703
9457 703
9751 260
22134 266
34004 472
728 515
1205 515
1274 515
2050 515
2470 515
2999 515
3174 515
3743 515
3815 515
4541 515
6335 515
20927 656
27333 225
32257 114
729 255
3148 745
16507 255
23715 255
24551 255
29053 20
29397 211
30279 255
30761 255
730 746
1108 746
1555 746
1730 746
2184 746
2850 746
3056 746
3084 746
3263 746
4996 746
5874 523
8326 746
12748 354
19431 165
31020 20
31985 13
10065 599
15453 582
17104 36
31670 53
31875 112
32281 334
732 659
2944 659
19241 382
21023 61
30393 320
33993 320
733 427
5216 427
7096 427
8012 427
8704 427
9931 427
11185 427
11876 427
13046 427
15107 427
16771 427
26393 2
29469 96
32457 260
33809 87
734 11
8202 130
11230 73
14768 245
23074 11
23160 11
23326 11
23661 11
26707 293
30022 11
30415 11
34401 11
735 152
9383 152
10565 172
13914 152
17118 4
21142 152
21360 64
22948 152
24921 152
33441 152
33963 152
34337 454
736 72
17305 72
20093 730
20961 72
21715 72
26689 72
27114 142
27545 72
29991 72
31752 72
31920 72
33510 72
33848 87
34051 203
737 476
1481 476
1725 476
2126 476
3517 476
3665 476
4922 31
5570 476
6012 476
6768 60
9467 476
9527 476
10818 112
22635 747
27748 748
738 112
2748 277
10030 46
20980 112
21964 148
26084 53
26206 112
27325 112
27594 112
28098 112
7230 45
8567 45
12542 10
14089 45
20749 220
30919 317
1373 604
5028 140
5467 592
16262 463
16865 410
741 549
5536 549
8878 412
13618 219
22763 549
22889 331
25047 549
28755 549
30454 549
31467 4
32003 549
32074 168
742 542
4730 542
5088 542
5917 542
9164 542
9886 542
10322 542
10713 542
19907 542
34069 128
743 348
8915 64
10420 348
11683 348
13924 348
15973 348
16776 348
16802 348
17575 348
19066 348
23940 96
744 176
1160 176
1304 496
3375 176
8742 176
9181 176
10355 176
10386 176
16454 176
16741 176
27062 37
32633 599
745 749
882 749
891 749
1445 749
2549 749
2638 749
2685 749
3819 749
4246 749
4959 749
5003 749
17208 366
23286 28
25181 750
30106 115
746 172
7175 172
9562 172
10348 172
10411 101
26259 126
28241 172
29497 172
32228 172
32316 172
32811 172
747 20
6239 31
9426 535
9754 20
14216 20
23403 20
25093 20
31554 722
34072 28
34093 20
748 319
14050 319
17488 319
17762 20
18606 283
18697 319
22507 319
23492 252
25265 319
26918 59
31194 319
31361 319
32430 334
32662 319
33230 319
2593 142
11934 142
13158 142
20255 142
21011 751
28830 142
29539 142
32637 142
12440 322
22454 241
22868 592
24519 577
30472 68
30508 104
18270 729
26486 5
27201 372
29238 304
31732 89
752 105
3211 105
5100 240
5379 96
13199 105
14697 338
17637 105
25398 105
27144 105
27744 105
30032 105
33999 105
34143 13
753 679
2403 679
11019 679
11127 314
12357 679
19524 679
20143 679
20572 679
20595 679
22855 329
22944 679
23299 679
24298 679
27332 35
34532 44
754 515
1893 515
2783 515
3426 515
3939 515
4169 515
4361 515
4833 515
6717 515
8188 515
8717 334
9094 515
13091 349
32838 11
755 266
4139 266
4226 266
6376 266
9229 266
10379 266
12097 166
13601 266
18110 266
18993 266
20691 220
21066 266
26306 11
33170 241
756 338
2407 338
3065 338
4531 338
8887 338
13611 338
17314 338
17605 338
17742 338
18314 338
19820 338
33265 334
757 298
3177 298
4768 84
5690 484
6348 298
6623 354
11536 298
13180 298
15042 60
17569 298
19596 298
19737 298
22539 298
23514 298
30482 555
30567 13
758 606
1933 606
2445 606
2757 606
2775 606
3354 606
3466 606
6796 606
8849 606
9078 606
11102 236
11400 662
22029 178
22701 13
31156 73
33139 148
5697 346
6073 346
10765 346
11411 346
13380 315
15495 346
15614 346
16715 346
17572 346
17931 346
29374 73
33511 134
760 663
3083 2
7712 663
12589 663
16156 663
16407 663
18912 89
25252 663
25450 663
26133 663
26379 374
26495 663
27869 663
33477 31
8507 64
18005 81
24044 36
762 52
3121 52
6948 52
11446 52
11614 52
13553 52
13822 52
15354 52
15765 52
17003 52
22481 52
26353 53
33190 267
34043 64
763 245
4088 455
5092 245
10076 245
12110 245
12185 245
14576 752
16576 222
23199 245
23391 61
25207 128
28778 509
33313 245
13003 475
18102 68
18121 753
18471 123
765 103
2051 103
8381 538
13612 103
27752 103
30374 103
30821 103
31993 103
11973 187
24328 103
25499 191
33164 6
767 20
9387 20
21487 220
24227 488
26595 20
28967 20
31090 166
32364 73
3003 730
20423 115
21535 245
30197 205
769 156
1985 156
3143 499
15360 639
17388 354
19655 156
22866 65
26488 156
28407 156
28799 2
32320 156
32737 156
33085 454
33944 156
33996 156
770 311
5738 311
5774 311
6297 311
8396 311
12325 311
15440 311
15643 745
17869 311
18406 311
20141 311
20899 311
25543 4
26748 36
30092 177
771 694
10812 390
13163 654
13919 694
13997 694
14561 694
14745 694
14954 694
17225 694
17492 694
17724 21
18681 346
21401 694
23399 694
24620 694
29013 108
772 586
10109 586
15070 631
15582 586
18427 586
20422 20
23489 410
25096 20
25221 586
28792 586
28937 586
32282 13
773 149
8470 201
10049 149
10505 149
12156 149
16388 664
19815 149
20771 149
22241 149
25458 149
25757 472
26307 180
26602 149
26868 149
774 629
5063 629
6236 217
10830 206
13518 629
17122 629
17533 629
18988 702
21750 629
21766 629
23235 629
23322 629
24012 629
26665 472
26752 31
3149 64
3580 374
24844 171
27053 356
28748 44
31597 95
5778 172
8064 631
8881 631
10157 581
11380 631
18433 96
24681 64
28619 249
777 108
4396 50
4661 82
6845 573
9337 31
14493 108
20537 108
22174 108
28209 108
30996 108
31565 134
32673 108
33491 108
33768 108
34039 55
778 30
785 30
2319 30
2629 30
3961 30
5102 30
5122 30
5871 30
6263 602
7806 30
15114 423
18962 28
31542 64
32384 73
779 10
14293 525
18730 10
19409 753
26723 60
27730 10
27846 10
28642 44
34018 55
34321 10
34412 10
34453 10
1538 282
3829 669
12847 669
19545 76
20814 363
24210 669
24643 669
27146 669
28466 669
28675 669
28720 525
30288 669
781 60
9608 754
14685 60
20779 371
27485 60
30097 60
30105 60
30149 60
30814 60
30866 60
31951 484
32843 60
33994 60
5679 202
6488 348
6995 275
8469 348
21346 706
3217 400
18699 185
25318 95
27751 140
29739 56
32303 392
32585 44
784 734
1451 734
1526 734
2122 734
2404 734
3423 734
3763 734
5495 734
6459 734
7346 270
7387 734
13515 71
16074 6
19299 142
32251 151
788 573
6377 651
18163 755
30862 376
787 476
924 476
1660 476
1838 476
2061 476
2827 476
3017 476
3338 476
5213 31
8962 476
9260 476
9455 476
14652 476
20331 182
27219 705
27853 73
28308 31
5999 573
9236 573
11048 573
12071 573
12565 573
14489 573
22199 573
23855 573
30847 85
31193 223
33817 2
789 499
1464 499
6532 499
9499 347
11040 152
13428 499
20360 499
22411 172
22811 499
24245 326
24936 26
26594 499
28225 499
33807 276
790 535
1326 535
1420 535
2216 535
3091 535
3465 535
3916 535
4894 535
7355 535
7559 535
11008 652
15406 430
23087 49
30169 376
995 245
5180 73
13363 200
14809 245
15649 245
27833 245
31592 73
32094 2
792 26
6520 418
7810 26
21118 514
29613 26
31443 26
31486 26
33435 305
11915 36
12057 168
13915 112
16175 168
22502 203
24327 168
27919 61
14788 33
28454 61
34251 13
17578 78
18188 245
22671 392
33745 245
796 99
3304 99
8894 99
9555 99
15936 99
15974 188
19889 99
27188 58
27574 47
28910 64
29433 320
31541 99
33555 99
16859 731
23591 13
29825 10
31831 31
34005 31
798 502
2250 502
2624 502
2660 502
2684 502
3524 502
3662 502
4077 502
4797 502
5024 502
5190 498
11684 271
20012 33
31690 591
31826 96
799 73
7116 47
8303 73
11982 73
12463 461
13167 73
16533 73
16732 756
20418 73
22383 525
26422 73
27124 73
31158 73
800 128
9961 128
11884 616
12466 128
16351 37
27876 128
31780 128
32887 2
33731 128
5363 719
14871 19
19486 19
22394 150
29755 103
29934 19
30911 20
33389 320
802 240
9890 73
11919 240
12932 240
18864 240
22756 236
24607 240
34433 55
803 734
11193 539
14624 111
16853 339
27509 267
804 7
7432 7
9941 61
15715 7
15849 7
22417 677
27068 101
3660 261
4113 623
17239 260
28765 261
29186 261
30861 261
30968 261
32630 25
33033 261
33656 261
806 106
6010 106
7625 509
14429 106
17873 106
20558 106
21084 31
21351 106
21645 317
22075 106
25744 640
27483 106
32984 106
33427 59
807 176
4494 757
7693 176
18757 355
24638 639
33608 416
808 343
7708 343
10759 565
15154 343
17384 343
21070 343
22570 343
24243 343
25746 458
25867 343
26309 89
26565 343
809 36
1159 429
7754 166
8746 89
10275 36
11860 588
13776 622
23258 36
33247 36
810 320
3406 249
18990 172
21412 320
23001 320
27112 614
28986 320
29498 320
30460 178
32813 320
33886 320
33954 320
811 717
1623 717
1628 717
2729 717
5701 717
8554 717
9067 717
11504 717
12101 717
12160 717
12718 717
15265 758
34162 64
812 599
5921 599
11577 599
16076 356
19720 599
22790 65
25828 178
25862 441
25910 599
28129 599
29143 599
30269 599
32383 599
32730 281
32951 599
813 203
1934 203
6422 203
6793 36
18237 726
26549 203
29875 203
30562 203
31767 203
32220 203
32968 203
33208 203
34480 203
814 18
4479 143
10789 18
14257 18
18735 457
22958 18
24372 18
24486 188
24793 18
25333 18
27517 18
27955 319
28667 18
29735 18
31741 56
33042 20
815 596
3541 596
3889 596
4309 596
4365 596
4682 596
5041 596
5362 596
5674 596
6328 596
6876 410
8945 596
18502 42
22584 6
23345 20
8657 483
10482 620
11900 11
19566 483
20527 483
22413 483
22702 483
23098 483
25891 483
27251 483
28491 565
28611 483
817 54
2163 54
6696 392
9020 54
12284 54
19043 728
19719 54
20261 54
22106 54
24340 54
24624 89
32842 2
3721 203
12000 688
15663 203
22988 203
26588 208
31793 203
33705 203
33772 203
34044 203
34474 203
819 424
1591 161
4715 36
6775 490
7277 424
21781 424
24008 424
24678 424
28157 316
31469 424
32068 424
32719 424
33625 424
33717 424
33797 424
34014 44
820 108
14324 108
16169 108
16398 172
17173 108
20890 314
23166 108
24132 35
26625 108
28394 28
30281 5
31276 108
32596 128
33292 108
33921 108
2189 36
12929 297
15317 475
23916 65
26571 454
30117 210
30883 25
822 33
6960 33
12522 331
15558 128
15617 759
23473 33
24347 33
24432 33
26156 33
26797 33
27152 33
28197 33
823 446
2222 446
2745 446
8730 446
9807 446
10838 446
12204 446
12781 446
13409 461
15619 148
16390 446
17189 446
30679 5
33777 9
824 459
4148 64
18653 206
27193 25
31390 228
34065 11
825 544
1243 544
1351 544
2557 544
3501 544
6478 544
9441 544
9766 544
11805 544
12430 544
14274 544
19794 636
29432 320
33413 64
2595 330
6298 252
17366 252
20788 20
21085 695
26146 285
827 247
2676 311
7740 247
15977 247
17644 247
22219 247
28773 247
32691 247
32884 247
828 105
10574 105
16537 105
19645 112
22012 105
23140 105
23708 105
26343 105
28269 449
30184 64
32623 105
33212 105
829 123
7330 123
11564 123
13796 123
13985 627
17063 317
17295 265
19252 123
21510 123
30379 356
31910 36
32587 123
32835 123
32894 123
830 131
6426 131
8016 131
13744 131
15259 245
15269 89
16214 131
16438 131
24362 131
25511 2
25562 131
29299 28
33617 203
968 205
16329 20
32512 60
832 698
3573 760
5492 380
6125 698
10744 698
17715 698
22603 698
22970 698
24628 698
24746 698
24835 698
25821 698
26428 698
31471 50
34118 289
833 60
12495 60
16415 758
26203 60
29208 19
30333 60
33018 60
33286 60
34519 44
5881 56
12385 671
13304 61
33822 354
12059 417
13652 716
14709 716
15527 667
16470 716
17323 716
17849 716
17963 716
20194 205
20518 716
20750 716
24110 716
26714 589
28907 73
6001 713
8950 10
11192 692
15719 647
19137 698
20177 73
837 55
11839 55
22361 267
25617 665
26640 55
28523 55
29322 55
32041 55
32321 55
34391 25
838 386
1393 386
12318 386
16681 386
18120 386
19284 386
23267 525
25710 2
27088 386
28184 386
29651 386
31057 59
32188 386
839 182
2871 182
3330 182
3673 203
4165 182
4251 182
4455 182
4885 182
8269 182
9356 182
27420 106
33037 13
840 36
10060 739
11132 622
12736 36
12905 36
17275 85
24888 36
26396 36
29243 36
29504 36
31677 73
31773 36
32787 36
33522 330
13305 431
20823 87
21637 555
25174 555
30569 555
31137 555
32084 555
32181 555
33193 555
33356 555
34292 11
842 53
11777 53
14908 53
16005 732
16858 53
18440 248
21725 95
23837 53
24568 53
25853 53
26802 36
29488 53
30549 128
31543 53
33343 53
33415 53
24143 401
26002 447
844 369
1253 546
3589 742
11737 369
12056 127
12200 621
13218 369
15168 369
16739 369
17058 369
17449 369
19267 369
23832 233
1769 760
2361 219
13425 60
19751 203
30247 26
33041 289
846 25
2157 496
11719 25
17165 166
21135 25
24938 409
25604 25
27076 20
27403 25
27605 25
29301 25
33451 25
34324 25
847 82
915 695
2007 82
2761 82
3780 82
4111 82
4166 82
5643 82
6583 82
10568 581
14760 283
18767 594
848 62
6057 597
8342 62
8828 20
10554 62
19470 62
21831 99
22471 62
25649 128
26522 62
2263 496
11264 562
12726 562
16369 562
18591 562
19824 562
20134 598
20559 562
22592 562
24129 562
24996 562
25640 562
26044 458
34024 60
850 670
9187 670
10656 670
11386 670
16432 670
16870 670
17042 247
20454 670
21495 670
24747 670
31830 64
32336 95
34373 122
851 479
6026 617
7722 148
19536 479
20568 479
21140 479
23291 479
27849 479
28106 479
28976 479
29580 479
30874 104
33311 36
852 506
10582 126
14478 31
15807 381
23158 506
23515 64
23558 506
29554 506
32105 506
33528 506
33838 506
853 62
6727 62
7502 454
17747 62
24863 245
25180 64
27588 211
28946 62
854 354
5269 453
5647 354
12172 243
15408 354
15764 354
16626 354
25908 354
30591 64
31917 354
31942 354
32536 354
16354 142
22055 161
30155 109
856 710
1928 710
2166 710
2186 710
2235 710
3053 710
3993 710
4495 710
5096 710
5281 710
7362 710
9423 31
23585 739
33152 281
33376 424
9697 413
12785 413
16529 413
24821 413
26056 413
26417 413
27593 413
30506 413
31098 413
32168 314
32347 64
24179 412
25795 97
27619 148
28849 214
859 225
8363 225
14001 225
16676 761
18573 526
21040 225
22220 225
22415 13
27291 225
29014 99
34336 472
22212 31
27226 33
28994 49
34459 36
861 17
5892 294
10912 579
14069 628
15568 354
26736 579
29864 2
10515 178
19591 220
32577 260
34472 334
863 189
2762 189
14668 703
29690 225
30419 123
32367 60
864 327
5900 327
7051 327
8382 44
11867 327
12527 327
13078 327
13129 327
16141 327
16258 327
21559 762
26169 31
30689 325
865 61
10398 281
14044 61
20221 61
29393 61
34344 25
7011 261
23024 668
5204 418
7604 192
26678 325
22745 600
23759 87
31482 236
34279 220
34356 201
869 109
5386 20
13274 109
13495 760
16139 109
19563 109
23425 109
27239 11
33683 109
34353 36
870 73
6341 652
12525 65
19779 6
20517 73
21373 73
23465 73
24528 73
32647 73
871 68
15143 68
16207 114
18195 68
24354 210
25875 68
27590 68
27612 293
30325 68
32204 10
33814 68
34062 68
34522 68
872 113
10182 113
10292 113
10963 320
11107 113
12374 113
13252 113
14719 113
17006 113
19277 113
19337 113
33021 201
34193 101
873 262
4304 262
8082 262
9888 262
10000 262
12579 262
13113 262
14529 262
17829 410
17891 262
21010 262
27530 140
29131 73
30818 301
16560 406
26680 447
8369 59
19880 85
24612 325
29660 621
876 216
6570 73
24751 216
26590 236
28105 210
28567 216
28963 216
30195 203
32064 216
32160 216
33233 216
2219 483
13228 483
18601 310
18863 483
19830 483
26807 203
878 599
2670 83
7422 638
12282 599
15541 472
16821 599
19305 599
24120 599
30495 599
879 297
3568 297
6325 297
11064 297
13406 13
15337 297
15818 297
17806 31
20598 297
21995 297
22056 297
24045 297
33799 50
34119 59
880 763
1118 763
1187 763
1619 763
2083 763
2367 763
2877 763
3079 763
4081 763
6910 763
9957 364
17887 422
20190 329
30921 161
28217 751
29774 732
3392 727
6886 108
8175 612
12462 349
16665 318
16923 73
8431 222
12248 73
19678 129
20808 261
34329 201
8769 122
16109 132
18434 728
25639 102
29357 467
4272 692
13151 441
22587 220
26085 104
11365 706
21959 325
22594 627
26838 325
28728 325
29646 325
30392 325
30931 13
30970 325
32410 325
32832 325
33147 325
15577 87
18514 382
888 110
3644 699
4843 110
4854 110
6857 110
7537 110
7868 110
8998 110
9085 110
10583 110
11408 110
13393 674
14557 79
22057 68
24237 693
889 480
10771 480
11208 657
18954 480
22001 480
23543 480
24370 151
24923 480
26007 480
26186 480
27989 480
28159 171
28386 480
29025 480
890 208
2414 186
8651 183
22399 764
24201 208
24931 222
28344 2
28897 211
29751 208
32004 208
32608 208
13044 184
17128 137
23616 49
24238 412
26956 79
892 688
7465 688
8311 688
10626 688
11852 532
11957 688
12453 688
13633 688
15110 203
16650 688
18941 688
33202 142
4036 460
9360 460
15677 107
27769 128
894 764
3520 764
10720 764
15726 674
18329 764
24819 151
26466 764
28073 764
28996 764
29196 764
29788 764
30139 42
31863 764
32100 144
32229 764
14523 70
32462 235
32821 274
34110 128
5797 621
16961 692
19312 37
22938 437
12426 331
29388 96
33173 320
898 64
3584 64
8235 64
12068 570
14485 64
16875 64
30530 208
31219 416
33071 64
33836 64
4761 178
5189 586
8720 513
10204 586
17627 346
26685 20
16500 536
18651 253
28004 73
29635 385
29805 86
31100 456
27818 13
902 530
2496 530
5082 530
7192 201
14374 530
16038 530
16293 530
18585 530
23193 530
23758 530
24403 530
24618 410
28691 196
31399 208
903 166
7340 166
12076 472
15307 177
15877 166
16509 10
20602 178
20645 166
22900 166
23897 166
26490 166
28293 57
28470 166
34437 166
904 555
17045 106
18128 555
23053 382
26323 532
27860 555
29987 555
31772 555
6432 73
23439 571
26278 203
30304 424
31119 85
33713 410
906 557
9690 557
9706 557
10288 557
15552 557
16658 557
16995 65
19064 557
19313 557
21596 557
21834 56
22446 557
30735 441
15530 10
25357 64
26399 96
31476 25
908 379
988 379
1589 379
1627 379
2143 379
3030 379
3125 379
3454 379
4382 379
6752 379
16989 506
17177 550
23858 203
32561 225
909 128
1014 657
5350 267
19843 140
20696 228
20923 128
28712 128
28863 128
29211 523
30528 236
30886 128
31529 128
32963 128
2656 326
12825 225
14280 234
16558 468
23226 128
911 73
7692 11
8822 73
9907 316
23333 73
25638 76
25734 245
26703 73
27029 73
27358 73
28476 56
33088 73
912 562
1120 345
8736 266
11292 562
20873 562
21056 562
11797 87
15569 333
30792 220
1750 182
2672 736
2780 182
5045 182
6874 182
6904 182
9963 182
12730 182
14318 182
15082 182
32960 19
2574 695
4583 695
6644 765
7110 695
10274 695
14200 695
14295 695
14360 695
17340 695
18182 424
18780 25
20860 152
916 200
6244 200
11716 200
14800 11
18829 200
22095 274
23730 200
23836 200
28284 457
28741 690
30826 200
11693 272
14052 270
32800 20
918 279
3005 279
16548 20
17679 292
21041 279
21507 671
29012 142
31508 271
919 61
14072 609
15817 61
25695 61
27141 188
27334 161
29334 588
29902 61
32415 61
6563 190
25442 750
31404 28
33635 49
921 313
3272 349
4004 377
9744 313
13193 313
14642 313
15720 313
16021 313
17689 313
18013 313
19888 313
21087 313
29130 458
33834 96
922 648
2037 629
5996 648
11050 648
11746 648
12666 648
19654 648
19785 648
21039 188
22133 9
25284 61
28614 53
34419 334
923 628
2874 628
3896 372
6326 628
6682 607
9903 628
10291 563
11631 628
14585 628
15990 628
19247 628
22234 87
22628 2
33887 19
14696 197
15557 356
21334 11
32931 25
34084 64
925 73
17495 73
18700 201
18878 215
20778 285
22597 73
28895 9
30012 73
31415 73
32092 73
32292 73
926 220
13439 285
14825 220
16831 142
17037 65
19826 276
21044 220
23398 220
23588 220
23701 220
30803 220
31544 220
927 284
10477 284
11174 284
11865 284
13290 284
16067 284
16751 284
18508 284
19437 284
21009 284
23005 284
24307 208
24536 453
26774 114
31678 61
928 549
4136 549
5610 23
8745 549
15215 657
15781 558
21530 549
26804 549
31383 20
10863 61
29716 28
34402 128
10149 64
14968 755
15776 64
24360 78
25224 64
26441 73
27335 64
27531 551
29356 64
30804 64
33564 64
33884 64
34167 454
931 205
7603 151
15090 423
15402 241
26720 205
29687 205
33570 178
34389 31
932 161
6271 161
10555 161
11795 550
14347 161
19273 140
19513 161
26778 36
29442 25
30347 523
33483 161
4129 317
