1 0
1214 1
2185 0
4850 2
5213 3
9196 4
9231 0
9424 5
9478 0
9677 0
9692 6
2 7
24 8
3366 7
4136 9
6402 10
6934 7
7206 11
7483 7
8014 12
9118 7
9307 13
3 14
2394 15
4680 16
6255 17
8224 18
9004 14
9068 14
9111 14
9572 19
9672 20
9678 14
4 21
3407 22
4899 21
6825 21
6971 23
8168 24
8770 25
9418 21
9517 26
9952 21
5 27
4270 27
4372 27
4510 28
6791 29
7292 30
7783 31
7857 32
8335 5
8467 27
9003 27
6 33
506 34
992 35
8072 36
8193 33
8408 33
9001 33
9063 37
9138 38
9161 33
9169 39
7 40
966 41
2072 42
4804 43
4955 40
8454 40
8721 44
8936 45
8968 40
9362 46
9860 47
8 48
2107 49
2440 50
3064 51
3336 52
4334 48
5173 6
6872 53
8757 48
9608 48
9648 48
9 54
2743 55
6439 56
7045 57
7116 58
8813 54
8861 54
8989 59
9133 54
9211 60
9622 54
10 61
2121 61
2608 53
7166 62
8026 61
8208 63
8348 61
8356 60
8714 61
9048 64
9314 65
11 66
1951 66
2080 67
2942 68
4871 66
6483 66
6521 66
7310 69
7482 70
9143 71
9971 60
12 12
2420 72
2824 12
3646 12
3791 12
4061 73
4063 12
6617 74
7716 75
7936 12
9697 76
13 24
1996 77
6372 71
7540 24
8414 24
8616 78
9088 24
9268 79
9762 80
9905 58
14 81
18 81
990 82
1960 83
6374 84
6973 84
7337 85
8732 81
9288 81
9615 81
9770 57
15 86
1356 86
2859 87
4406 28
4826 86
5894 86
6045 86
8037 88
8912 89
9617 90
9654 91
16 92
1805 93
1824 92
2316 94
2806 95
4704 96
4969 60
6034 92
7097 92
9186 37
9371 92
17 97
1446 98
1908 97
2788 97
3487 99
4256 97
5186 100
6459 97
6929 101
8802 70
9963 102
5071 103
5297 104
5336 62
6037 81
8047 105
8664 106
9545 107
9644 81
19 108
160 109
2490 110
3122 111
4777 112
6781 108
8231 108
8429 108
9207 108
9539 113
9705 60
20 114
51 114
813 115
2418 114
3327 116
4806 114
4958 117
5377 114
8432 21
8923 118
9944 119
21 120
1409 120
1433 120
1856 54
3272 61
7761 79
7804 120
8602 121
8788 122
8815 123
9450 120
22 124
829 125
4307 126
5905 124
6563 124
6925 40
7781 127
8446 124
8973 124
9305 128
9687 47
23 74
3098 63
5079 74
5924 74
7712 74
7798 129
8203 74
8261 130
8694 131
8782 132
9518 133
3874 134
4667 56
5258 135
6161 8
6199 8
7684 8
7854 136
7942 137
9105 8
25 101
4030 21
5110 80
5156 101
6365 101
7382 138
7647 139
8688 26
9556 42
9688 101
9785 101
26 131
4569 131
6480 140
7366 131
7559 141
8488 16
9135 137
9823 142
9889 131
9907 131
27 21
549 143
1006 21
1700 144
3678 145
5980 23
6239 21
7947 13
9603 21
9859 21
9961 6
28 16
4085 146
6597 147
6982 70
7436 146
8116 16
8685 16
8744 16
8754 2
8927 16
9855 142
29 148
3398 148
3538 149
3544 39
4968 148
7283 148
7396 148
8373 123
8389 150
8585 151
9767 152
30 153
1119 153
1888 86
3257 154
3455 153
5029 155
5087 97
6730 153
7709 156
9637 153
9764 131
31 157
5518 157
6401 5
6720 157
6764 157
6986 84
7338 157
8085 44
8368 158
8872 159
9397 160
32 161
112 162
2191 161
3349 161
5002 154
5269 57
6649 5
7329 161
8929 133
9038 163
9560 161
33 122
4103 122
4370 122
4415 164
6322 165
6874 151
7935 122
8570 122
9569 107
9706 166
9975 123
34 149
3379 149
4022 69
4417 149
6957 149
7070 149
8092 167
8881 168
9080 47
9538 169
35 104
4303 104
5144 170
5499 104
6659 135
6775 104
7564 90
7608 104
8157 128
8310 92
8898 171
36 172
2470 163
6408 32
7725 172
8064 173
8135 172
8167 35
8731 172
8835 172
9406 174
37 175
1567 175
3649 12
5187 176
5682 31
6913 177
8971 175
9243 175
9253 178
9708 179
9882 175
38 119
2030 20
5399 98
6027 119
6348 180
6507 55
6703 181
9772 119
9819 119
9914 103
9979 119
39 166
2585 166
2594 60
5365 142
6188 182
7006 98
7221 1
8958 166
9783 125
9879 166
40 119
5168 119
5218 183
8460 184
8837 185
9793 142
9807 34
9928 90
9950 119
41 186
1087 186
4306 42
6018 186
7519 186
7696 187
8307 186
8513 188
8711 39
8842 147
9449 83
42 189
564 189
1974 189
5559 189
5714 10
6052 22
7812 190
8041 189
9721 131
9856 151
43 164
139 70
6261 164
6299 191
6342 164
7135 126
7726 164
8650 164
9235 49
9376 25
9605 184
44 192
826 137
2199 179
2411 192
4015 192
4909 192
7285 192
8953 54
9367 179
9812 188
9995 193
45 53
3705 53
4215 53
5444 125
5901 30
5910 53
6134 178
7417 53
8304 6
9236 194
46 120
870 49
2785 150
4582 120
5593 140
5797 195
8365 196
8391 120
8709 120
9494 120
9980 197
47 99
1670 198
2021 199
2526 100
2689 44
3783 200
4301 99
5529 99
7309 99
8485 99
9324 165
48 201
6115 140
6437 177
6514 95
7055 201
7389 154
7530 201
7727 5
8038 201
8197 201
8345 202
49 60
1745 60
2485 203
5952 204
6778 57
7593 60
7889 60
8752 60
9415 70
9756 205
50 201
1513 60
5837 206
7629 161
7794 201
8117 45
8734 197
477 114
4575 114
7380 207
7465 63
7500 112
7549 20
9470 101
52 147
263 147
4639 63
5548 208
6131 209
6965 147
7767 147
8890 48
9432 76
9552 45
53 56
3193 119
4007 56
4302 56
5004 210
5264 211
5880 49
8593 56
8892 82
8920 56
9351 72
54 212
594 212
2899 213
3048 212
3552 176
4055 80
5167 173
5907 212
7823 212
8489 214
9342 142
55 215
1767 215
3235 215
4638 215
5871 215
5933 63
5983 216
7434 217
8071 81
8692 218
9906 39
56 163
648 99
1571 163
1673 33
2731 146
4729 163
7435 163
8201 163
8569 219
9524 49
57 144
998 144
3045 144
3269 144
4161 21
5603 133
5851 13
6310 144
7294 144
8950 220
9461 138
58 221
2856 222
4141 223
5384 224
6038 154
9205 221
9325 221
9567 221
9904 221
9920 83
59 225
429 119
2402 225
4442 140
7161 186
7467 226
8607 44
9025 225
9534 225
9564 225
9954 46
60 227
1549 40
1642 227
1854 98
5516 227
5979 204
6264 228
6885 227
7278 229
7486 227
8998 159
61 17
279 203
1628 17
2369 135
3346 159
6029 230
7375 17
7582 17
9343 231
62 232
3051 82
4317 81
4843 232
5534 136
5866 232
5934 232
6072 232
8775 233
9787 45
63 234
1780 176
2719 234
2818 9
3304 177
5179 234
6990 21
7563 234
7974 234
8763 165
9768 123
64 126
1490 235
2586 236
4264 126
4778 126
7347 126
7539 237
8286 238
9192 83
9256 126
9311 239
65 240
1299 240
3342 241
4802 242
6931 240
7179 240
7270 243
7325 240
7423 146
8791 55
9503 244
66 98
2723 81
3286 245
6425 246
7615 166
8504 90
8857 98
9649 98
9910 98
9931 92
67 247
899 247
906 244
2247 247
4477 247
5592 247
5609 60
7039 142
9630 80
68 248
2403 46
4759 248
6684 65
7444 248
7731 125
8354 144
8517 248
8794 248
69 30
1258 50
2597 98
3691 30
3824 30
6151 30
6471 249
7621 49
7940 250
9953 45
70 226
248 226
2926 154
5147 76
5842 101
7680 50
7810 87
8646 226
9034 226
9662 131
9895 226
71 177
942 251
4830 177
5560 126
5643 177
6976 252
8237 58
8742 13
9913 253
72 20
3071 20
3306 186
3683 254
4458 20
5739 20
5982 69
8076 47
9319 255
9753 20
73 256
3081 48
3948 41
5753 256
6386 257
7415 256
7552 256
7922 256
9985 20
74 46
84 66
1759 28
1891 119
1978 46
6291 258
8394 46
8722 46
9121 92
75 25
1438 16
3620 25
3789 259
6575 25
6889 260
7207 261
7421 25
9468 25
9558 165
9799 34
76 262
866 207
2138 29
3872 262
4019 262
6227 262
7028 52
7520 262
7570 263
9132 89
77 253
495 149
2179 63
5545 264
6813 253
7190 265
9209 253
9240 123
9428 54
9834 253
78 217
1371 199
3496 217
3618 266
6257 267
7280 217
7532 217
8378 198
8713 268
9583 269
79 198
630 198
758 48
2885 224
5892 190
6964 198
7685 90
8075 198
9177 37
9918 270
80 63
741 12
3368 63
5117 271
6501 63
7510 149
7983 272
8831 63
9188 273
9704 63
9795 80
81 228
2578 274
3363 3
3556 275
5869 21
5874 21
7372 228
7855 228
9289 228
9309 228
9726 81
82 276
3274 18
4534 276
5530 276
7287 145
7720 277
7814 276
8005 278
8559 268
9047 276
83 239
3686 193
4907 10
7581 279
7701 242
9331 239
9419 239
9837 250
9986 239
376 280
2237 164
4379 0
4897 66
7494 66
7695 66
7700 66
9037 68
85 80
150 189
2687 92
5259 91
7241 281
8590 80
8948 113
9412 80
9940 80
86 282
2683 282
3072 254
5116 283
6435 142
6988 282
7072 282
7858 282
8836 266
9278 284
87 85
916 285
2401 286
4820 85
5883 85
6165 178
7411 85
8523 4
9500 202
9989 45
88 46
646 287
3902 97
5822 100
6126 46
7852 46
8046 33
8825 78
9686 46
89 99
291 89
2444 204
3507 99
3800 282
6289 99
7019 99
7555 90
8163 99
9335 38
9880 270
90 285
659 128
4411 285
6354 55
6768 285
7260 194
7516 265
8296 285
8350 70
8433 285
9339 288
91 42
1366 289
3518 119
4508 259
5568 42
7754 253
7790 42
9153 42
9269 290
9433 278
9959 42
92 39
3234 216
3934 124
4069 266
4275 39
6171 39
7703 101
7723 39
8500 39
9310 19
93 291
2161 61
4356 13
6119 291
8536 291
8558 291
8662 291
8933 126
9292 254
94 236
2499 16
3939 292
6335 236
7029 293
7377 236
7383 236
7602 236
7927 294
8416 267
95 111
2831 111
5056 150
5139 111
5272 267
5997 295
6090 35
6267 111
6951 106
7009 111
9490 96
96 29
4013 296
4753 29
5540 210
6295 26
6958 223
6987 29
7248 143
8268 29
8443 29
9661 154
97 297
448 298
6279 297
7818 297
7831 297
8068 99
8122 297
9010 14
9741 299
9934 182
98 122
1155 46
2463 117
3042 90
3491 300
5266 91
5698 122
7853 122
99 257
136 257
275 127
2996 25
5489 257
6865 257
7932 19
8619 254
8809 266
9430 257
100 90
854 90
3624 90
5750 94
5966 202
6795 90
8080 31
8185 301
9165 90
101 302
326 302
4070 303
4927 302
5063 302
5230 117
6897 302
7797 302
9260 151
9751 83
102 65
6862 304
6900 162
7379 305
9164 35
9347 132
9491 65
9620 65
9778 65
9817 6
9884 65
103 30
2766 199
5067 47
5141 30
6701 30
7422 49
8352 30
9358 306
9388 142
9802 273
104 272
519 272
1913 287
3753 272
4631 85
6008 187
6214 94
7225 272
7617 225
9839 21
105 307
2950 307
3323 152
3690 60
5881 307
6150 307
6460 307
6856 43
8039 181
9064 308
9214 281
106 246
2884 174
3610 170
4501 309
5074 246
5089 246
5130 104
7809 246
7840 246
8864 284
107 66
4124 66
4148 310
4429 63
7795 127
7963 311
8175 312
108 53
476 250
2481 25
2740 53
3168 92
4177 53
6546 53
7096 239
7361 45
9204 47
109 98
2666 292
2753 130
3391 98
4483 81
6028 264
6451 313
7457 314
7667 98
7863 98
8624 98
110 111
3318 315
4100 111
4383 111
5478 145
6473 111
6616 69
6810 111
6893 158
8314 34
8987 151
111 79
4547 197
7103 178
7883 197
7899 153
9579 79
9814 79
9965 79
1508 162
3338 267
6741 162
7808 162
8375 162
8577 188
8833 266
113 316
798 47
6004 316
6763 145
7459 316
7673 316
7707 316
8407 132
8964 218
9899 204
114 30
2615 294
3324 317
5108 80
5651 30
6123 272
7033 96
9441 103
115 25
1539 318
2941 25
3589 135
4966 25
7041 25
9190 45
9293 296
9422 25
9464 169
116 134
174 319
6144 92
7087 134
7425 134
7461 260
7911 134
8249 10
8803 296
8832 320
117 273
436 256
3961 317
8057 88
9676 273
9744 273
9924 273
9969 321
9984 322
118 287
161 323
885 287
1313 287
1602 279
1830 287
5815 96
6035 287
8364 324
9429 182
9967 49
119 5
5514 5
5852 65
7165 325
7836 5
8102 49
8258 123
9125 224
9614 5
120 326
6065 33
6509 269
7884 327
9479 326
9544 102
9639 326
9897 326
9937 326
121 300
4525 328
5743 329
6284 300
6726 274
6924 300
7898 300
8036 330
8718 214
9462 300
9499 20
122 4
3426 321
5386 261
7594 4
8552 131
8750 4
8816 4
9072 195
9336 284
9806 55
123 249
872 83
1297 79
2067 249
7988 179
8880 249
9262 249
9553 187
9604 249
9679 306
124 104
654 312
3550 226
3876 104
5509 131
5981 104
7147 305
9577 202
125 252
4294 181
4304 39
4822 331
4860 252
5318 7
5942 87
6278 252
6370 252
126 211
981 316
6959 201
7987 211
8192 42
8274 10
8814 211
8839 211
9052 211
9681 46
127 92
844 56
2494 189
2581 92
4011 92
5951 92
5959 260
6226 332
6933 92
9656 333
128 334
360 335
701 224
4080 141
4207 334
8484 334
9167 26
9316 334
9442 334
9752 58
129 246
1689 246
4507 336
5111 337
5872 246
6620 84
6852 246
7100 246
7406 102
8974 159
9794 79
130 107
1553 270
2544 107
4564 107
6390 115
6515 156
9075 107
9079 6
9238 36
9869 57
131 275
3517 338
5171 261
5878 240
7579 275
7657 267
7777 188
8915 275
8943 275
8997 275
9416 26
132 316
589 339
748 86
1957 79
5411 335
8400 60
133 242
261 242
1737 242
3998 242
5288 340
7982 225
8298 63
8503 90
9130 60
134 341
171 25
4452 341
4561 341
4695 342
5667 65
6562 49
6756 341
7040 341
9663 102
135 63
3706 343
4332 172
4418 63
4619 56
5492 63
6968 215
8756 120
9588 67
9717 63
9919 63
1496 196
3358 66
4594 315
5294 257
5358 257
6118 306
7098 200
8139 257
137 16
284 91
482 16
4096 208
6142 142
6637 217
6744 186
7177 16
7254 250
8291 16
138 256
1596 256
3543 313
4684 256
7367 206
8118 92
9833 39
9972 137
7466 63
7501 152
8382 70
8604 267
8871 70
8908 343
9728 90
140 154
1226 255
2262 154
2828 280
4745 67
8779 204
9435 154
9732 154
141 344
4932 125
5091 278
6394 344
7036 47
7210 254
8178 344
8292 344
8615 344
9379 131
9628 204
142 128
4689 233
5917 128
8009 7
8682 0
9146 82
9210 128
9230 128
143 71
2167 71
2575 71
3092 216
4437 71
4660 241
6021 345
6576 225
144 98
193 166
3702 98
4104 98
4313 31
8469 72
8637 257
9059 98
9076 45
9399 98
145 332
3060 332
3748 346
4031 152
4752 332
5755 347
6717 348
6861 332
7089 332
9585 75
9723 46
146 349
1460 8
2760 335
2879 349
5177 323
6309 349
6465 349
6743 278
8004 350
8981 349
147 46
4216 46
4651 109
5864 46
6057 46
6572 63
7012 46
7566 277
7830 118
9690 154
148 351
723 48
6555 351
6577 276
7561 100
8720 351
8867 351
9098 26
9109 351
149 299
1399 299
3701 352
4328 299
5890 299
6738 126
9071 135
9073 299
9082 322
1591 189
3645 193
5763 310
8205 106
151 243
5684 353
7623 243
7764 46
7958 100
8105 243
8161 243
8521 243
8606 42
9277 308
152 31
2002 31
5639 305
5954 31
6582 241
7455 287
8351 76
8449 57
9410 31
9660 31
153 131
383 60
5570 312
6327 354
8174 131
8527 131
9707 49
154 152
218 40
3088 152
3653 39
7637 355
8121 356
8937 152
9437 118
9459 152
9536 152
155 347
252 347
3256 92
4232 267
7414 347
7450 347
7903 180
8670 92
9395 347
156 357
194 357
1168 21
2133 48
2614 357
2639 4
2804 357
4769 135
8025 357
157 103
316 67
871 309
3143 358
6742 103
7307 152
7954 88
8491 103
9312 103
158 138
2844 156
3026 347
5493 327
7293 138
9315 348
9492 138
9865 138
159 108
285 108
793 359
853 227
2767 184
5677 108
6376 142
6916 157
7408 108
8066 360
5395 109
6127 216
7586 237
8497 109
8509 109
8651 215
9099 109
9200 195
1303 361
3566 323
4191 323
5338 150
5533 323
6221 323
7632 362
9703 18
162 363
4720 363
5935 363
6141 363
6387 363
6440 225
7252 357
8808 228
9000 25
9242 128
163 364
731 100
2943 364
3166 352
4492 364
5324 364
7832 145
7901 364
8442 177
8530 37
9171 365
164 147
904 132
3480 356
3864 112
5819 147
6210 170
8289 183
9974 126
165 98
1171 98
1290 366
1655 165
2880 233
8238 98
9272 54
9402 21
166 104
5823 345
8866 92
8942 91
8959 340
9657 44
167 182
6393 224
8055 205
8069 79
8115 158
8982 281
9413 182
9642 182
9830 182
168 143
2151 269
2810 63
3994 143
5283 367
6061 143
8804 305
8966 143
9685 296
9998 45
169 204
276 368
596 249
2732 254
5463 204
7672 108
7713 204
8106 347
9029 141
9280 204
9951 204
170 192
3716 192
4533 295
5133 257
5210 192
5381 228
6655 60
6682 192
8903 207
2632 25
5148 89
6956 91
7182 323
8980 322
9888 25
9957 25
172 298
449 49
5576 112
6992 298
7128 298
7650 298
7867 298
8081 183
173 39
5672 203
6179 320
6645 286
8144 39
8854 64
9020 89
9590 39
9735 39
9815 39
729 253
2850 246
4176 319
5180 310
5938 319
8166 319
9144 169
9389 319
175 369
214 329
1368 369
5523 369
5531 369
7090 120
7676 369
7931 139
8078 21
176 131
2048 338
2215 131
5025 134
7160 367
8417 98
9078 131
9742 207
9987 98
177 263
6011 370
6017 263
7551 169
7740 75
7969 263
7997 263
9825 270
178 371
3459 115
4550 116
4849 371
6479 371
6626 371
7195 371
7774 349
8160 170
9185 98
179 308
1565 131
4893 291
6771 74
7335 308
7718 114
8256 372
8939 308
8976 333
9017 308
180 131
3568 131
3658 97
5636 51
6863 3
7016 131
7512 63
9713 131
181 323
973 349
4225 323
6059 323
6087 11
6324 323
7791 4
9137 178
9285 165
9851 360
182 373
286 265
4295 163
5211 89
5382 238
6759 373
7392 373
8702 373
8743 373
9380 45
9926 55
183 259
4138 259
4140 304
5899 259
6064 259
7562 57
7736 374
8173 259
8223 339
184 291
368 291
1559 240
2142 291
4093 291
4738 100
5233 169
5623 326
8334 291
9612 348
185 257
4010 250
7946 257
9127 257
186 209
3113 209
3333 209
6147 209
7888 209
8403 50
9014 280
9876 322
187 375
967 47
1232 333
3501 376
4879 169
7118 142
8016 375
8311 375
8453 375
8535 375
8772 134
188 38
5360 109
5963 49
6311 38
8329 38
8479 90
8563 340
9329 306
9557 99
189 9
445 9
4037 377
4281 44
4558 367
5539 9
7178 9
8594 313
9522 260
190 223
805 174
2758 223
3922 223
6794 223
7088 374
8097 94
8333 56
191 138
720 291
4035 138
4493 378
4494 310
9391 138
192 183
3858 313
6919 183
8290 183
9847 154
9970 228
5604 166
6229 112
6969 179
8035 379
8149 166
8608 166
8683 166
9346 350
9655 107
3178 376
4279 99
5620 357
7591 357
7616 59
8413 6
8589 333
8738 357
9749 228
195 172
1744 172
2051 380
2192 1
2249 112
2750 172
3386 238
6947 172
7153 172
7203 57
7269 181
196 52
1412 302
1797 303
6202 52
7065 52
7262 120
7671 290
197 369
1252 216
2435 369
3980 151
6734 115
6950 369
7721 270
8824 381
9239 142
198 382
3362 65
5674 237
6573 382
7522 101
7585 383
8278 134
8405 382
8551 153
9141 382
9332 382
199 39
249 39
1145 44
1517 318
4629 47
5771 83
6449 195
8033 249
8906 39
9885 39
200 135
423 81
663 329
6058 123
6974 196
8300 135
8741 135
9344 242
9991 107
201 384
1848 91
3440 73
3928 384
4628 384
4799 92
6343 384
6409 384
8271 305
8340 274
8648 208
202 95
995 95
1063 95
2371 385
3216 95
5762 189
6086 226
7845 67
9790 21
203 385
1007 114
1455 231
2712 65
5145 354
5747 385
6477 385
7030 385
7610 385
9712 168
204 307
2170 307
2482 141
3213 213
5722 307
7173 146
7542 2
7574 307
7699 44
8380 307
9725 107
205 326
543 148
1774 37
5311 326
7620 92
8545 16
9045 326
9508 326
206 348
823 236
6849 361
7181 348
8358 348
9040 247
9055 221
9199 131
9481 348
207 220
3049 245
3311 142
3657 220
7876 220
8266 84
9297 220
9788 10
208 38
4278 12
5077 38
7962 38
7989 138
8599 360
8644 49
9180 38
9640 10
9696 292
209 189
1534 50
3559 189
4498 221
6708 189
6736 54
7282 54
8793 189
210 208
2281 114
7772 208
8511 208
9452 208
9665 207
9933 208
211 48
244 204
1202 48
5234 266
5991 282
7569 90
9533 278
212 37
1945 150
6602 37
8233 37
8514 90
9158 37
9404 37
9760 37
213 256
925 375
2228 256
2697 256
4552 256
5215 139
6638 25
7171 256
7233 68
7331 17
4888 329
5484 92
6272 239
6612 329
7219 47
7275 329
7290 329
8773 214
215 22
2123 199
3293 45
3764 22
5986 22
6640 22
6903 256
8528 22
9337 245
9405 21
216 183
337 183
976 183
3170 386
4048 183
4515 235
4775 20
6378 200
6618 183
6921 75
8706 268
217 7
3164 7
3911 103
6452 223
6625 60
9355 3
365 40
2277 87
3050 40
3993 40
6133 63
8519 360
8653 44
9009 182
219 152
1482 387
1758 149
3112 152
9147 152
9598 197
9668 44
9843 47
220 298
1207 298
2896 245
5692 298
6336 298
6663 298
7611 387
9387 126
221 88
1585 88
4873 47
5723 317
7505 116
8865 63
8956 88
222 238
640 238
4586 238
5273 238
8669 77
8719 370
9618 107
9695 270
223 161
493 331
2759 161
3242 161
4854 354
5760 28
9050 161
9212 277
9265 6
9354 161
224 388
4355 249
5305 388
6881 388
7159 80
7643 388
7829 388
225 21
699 39
1918 70
3107 21
4597 378
8529 284
9067 21
9250 156
9611 21
226 44
2111 201
2776 44
4942 163
5202 324
5632 330
6447 223
7573 78
8680 44
227 282
590 331
3790 169
4094 282
4146 282
5556 187
6464 354
6837 282
7871 110
228 359
367 359
744 46
2613 309
4219 178
6513 359
6533 359
7136 359
8301 47
9773 63
229 83
1713 222
2054 378
2286 255
5036 83
7074 260
7328 182
8177 83
9201 44
9361 83
230 278
1173 225
2852 327
7196 278
7246 96
8332 100
9566 99
9769 278
231 308
1167 185
2372 142
3918 172
4796 308
7732 308
8463 46
8726 308
9077 123
9803 333
232 338
2445 338
2454 338
4524 338
5804 338
6180 210
8678 86
8827 296
233 57
3360 57
3581 255
6005 368
6163 302
7313 57
8986 46
9890 3
9949 57
234 350
245 98
706 132
5761 350
7048 369
7319 241
8457 389
9458 350
9641 350
9942 44
235 169
3950 291
4020 169
5806 32
7038 199
8158 3
8568 131
8759 169
9555 14
236 151
4241 151
5490 352
7066 218
7308 56
8313 151
8991 151
237 208
6675 208
6735 142
7502 366
7609 289
7705 321
8326 306
9390 179
9407 208
238 298
945 357
4402 298
5380 253
9326 131
9457 6
239 299
1406 288
2698 299
3957 17
5827 356
6714 299
240 122
4130 63
4144 122
4210 390
4627 278
5027 122
5313 122
7105 299
7180 122
9983 340
241 344
919 45
1217 260
2005 344
3565 245
5445 344
5597 364
5614 344
6419 344
7914 244
242 90
834 90
4874 42
8181 142
8498 90
9113 284
9129 348
9191 90
9455 90
9664 47
243 22
4233 22
6757 367
7717 3
8812 174
9096 156
5298 139
8483 86
8546 204
9119 248
9956 156
500 257
1194 98
5655 94
7345 391
9016 98
246 392
3812 392
4580 392
4622 357
4823 243
5664 100
7865 392
8299 116
8781 392
247 393
1809 360
4467 393
5086 230
6523 393
6665 393
6833 393
7902 383
8169 214
9955 46
868 228
3882 307
4142 119
5206 226
7094 229
414 144
3408 39
5700 361
6699 125
6902 190
8638 16
250 42
5524 308
7349 42
7933 78
9835 290
9873 57
251 140
2862 187
3546 345
4519 140
4906 140
5520 46
5811 140
6737 263
7906 140
5393 154
6359 150
6888 247
6891 302
7145 347
253 92
917 72
1036 92
1678 92
5505 92
7495 64
9232 151
9761 59
254 21
1128 21
3676 21
6078 21
7258 230
8342 151
8888 15
9757 230
255 81
2589 163
4109 245
4566 81
5020 138
7052 394
8693 81
9988 81
256 235
2373 107
3160 224
4635 235
5224 235
5953 235
6709 235
8975 19
257 395
1084 387
4473 395
7247 395
7253 395
7910 395
8027 20
8639 137
9875 47
258 35
2605 8
3305 224
4851 35
5165 245
5853 76
6937 130
7303 35
8142 195
9366 35
9581 35
259 396
1067 201
5100 185
5691 396
5713 296
5724 324
6444 396
7825 397
8508 396
8581 327
8605 396
260 312
633 312
1370 385
1816 178
4072 81
5142 312
5335 312
5409 312
5849 192
7208 136
8187 339
1952 242
2514 242
3605 220
5290 265
9360 181
262 155
2986 225
4683 155
5200 155
6036 17
8659 155
8799 155
8830 107
9565 100
9862 398
2015 301
6047 147
6867 100
8100 284
8715 54
264 134
1321 11
5850 134
7142 134
7760 334
265 364
2092 82
2492 364
4457 300
4847 364
6245 364
7866 364
8048 126
9321 224
266 133
893 399
2203 170
2326 137
3371 125
9057 389
9197 133
9225 133
9801 64
267 193
862 195
1600 35
3329 63
6364 64
7188 44
8427 193
8612 193
9276 193
268 120
3385 130
4343 120
5860 265
6687 259
8086 20
9166 120
9820 120
269 271
3284 295
7525 271
7601 34
9069 271
9097 271
9136 271
9694 381
270 318
1234 318
3432 54
3826 318
4886 26
5207 318
7268 318
7659 313
7706 63
271 230
6244 216
7261 230
7381 118
9896 400
9909 224
9993 230
272 75
3711 75
4318 203
5495 299
8096 333
8236 75
8787 188
9977 63
273 197
1760 247
3044 70
3447 197
3992 125
4435 197
7107 197
7158 197
7918 351
8127 245
274 17
5332 107
5583 254
6505 17
6539 17
8212 251
9421 142
9821 187
3004 127
4587 26
5076 134
5708 127
6524 127
7471 230
7950 339
8588 390
4389 368
4928 368
6407 368
6527 43
7304 357
7391 139
7748 368
277 253
1020 253
1177 360
4748 18
5586 301
7360 138
9898 5
278 192
1055 67
1268 226
3276 192
5736 134
5990 192
6962 192
7571 10
8003 401
658 45
5613 203
7191 203
7259 203
8070 224
8914 49
280 402
1804 403
6801 402
6822 11
7027 131
7226 402
7409 402
7850 402
8406 112
8655 402
8967 16
281 56
1579 399
3110 56
5072 360
5622 242
6317 56
7941 58
8210 56
8687 100
282 204
836 154
1061 239
1768 398
5221 204
5246 204
8475 165
283 126
357 380
736 144
2887 46
3660 349
8681 126
9396 306
9495 126
9842 126
5521 41
7763 127
8425 57
8924 91
9513 214
9699 91
9849 340
1831 404
4342 220
6998 16
9736 208
9818 142
1364 83
5618 360
6664 340
7298 265
9294 265
9328 400
9719 265
9902 265
287 390
2853 147
3299 390
6836 390
8162 322
8387 390
8874 195
288 321
3595 183
7119 142
9308 327
9563 321
9724 321
9964 321
289 344
1761 30
2978 344
3572 160
5248 204
5716 252
6351 195
8538 398
290 203
2959 348
6181 203
6554 17
5694 230
6232 20
8925 63
9049 89
9092 89
9251 89
9523 89
292 131
1498 276
2363 5
4544 177
6392 131
9582 63
9592 131
9714 81
293 51
401 51
1188 272
4653 46
4986 51
5306 299
5994 51
7351 51
8512 9
9594 39
294 188
5238 142
5900 188
6827 302
7343 122
7789 188
8244 405
8549 259
295 292
6991 58
8707 292
9081 92
9841 292
9900 19
9901 292
9935 98
296 90
4696 300
6397 63
8481 182
8843 90
9275 119
297 406
601 306
3774 406
4197 203
5390 406
5413 406
5919 6
5993 52
6907 328
7189 406
8817 407
298 169
1344 19
2465 329
6082 169
6384 43
8905 169
9915 76
299 128
548 222
1246 89
1394 355
7762 142
300 219
2773 278
4172 183
6164 326
7745 219
7815 350
8264 219
8321 219
8840 255
9504 79
301 10
1651 301
3210 54
4238 19
5767 10
7649 10
7915 10
8054 10
302 181
2756 44
2830 399
5820 399
6692 181
8303 181
303 389
384 389
3083 95
4600 84
5378 268
7654 389
8104 120
9485 281
304 345
3498 295
4218 332
7688 345
7742 136
7827 84
9559 213
9822 345
9943 345
305 299
1109 408
3211 299
3430 215
3849 334
4047 39
5893 299
6000 299
6088 67
6815 107
306 109
4266 146
4482 115
5662 375
7336 109
9224 103
307 126
2457 20
2701 350
3461 126
4585 126
7463 119
9551 126
308 282
777 30
2969 282
3214 216
3977 282
6260 217
9217 103
9792 218
309 346
2063 160
2583 346
3715 346
5251 123
5342 409
6493 346
7378 346
9990 333
310 366
557 175
3983 386
4043 366
4948 366
4952 366
5885 196
6203 93
6328 115
7428 366
8377 98
311 354
3792 5
4946 354
5459 354
5705 253
6502 354
7357 354
7565 244
9124 322
312 91
1049 387
6823 91
7114 91
7662 91
8495 91
9056 91
313 264
527 264
4174 264
5469 264
5638 318
6975 264
7202 226
7875 277
8677 46
314 397
707 303
2128 399
2998 397
6172 83
7057 397
7541 397
8248 245
315 329
1618 329
1975 329
2206 233
2229 293
5182 329
8792 14
833 144
3913 281
4602 67
8401 67
8847 62
9531 194
9829 67
317 282
5136 67
8204 137
8611 27
8878 46
318 69
1961 69
2020 69
5898 69
7130 69
7355 216
7664 325
8272 106
319 220
455 51
3693 100
4767 220
4863 300
9425 220
320 73
3982 103
7223 73
7481 73
7634 73
7822 73
9709 207
321 60
1192 46
5280 60
5333 4
6313 262
6423 113
6923 294
9403 228
9527 60
322 324
2323 6
3150 149
5873 324
7288 182
7689 324
9023 324
9510 58
323 388
2620 388
2992 15
4360 388
7080 120
9168 365
9194 305
324 100
716 100
4081 210
7633 100
8001 372
8916 92
9091 100
9535 100
325 100
2882 100
4768 74
5008 100
8383 410
8420 12
8745 100
8990 100
3578 242
4445 302
5704 277
7870 302
7880 302
8262 302
8795 347
327 107
1121 295
1574 247
5013 142
5397 107
6156 107
8769 70
328 116
636 38
1942 291
6828 116
7476 308
7679 116
329 98
488 98
1161 79
4046 311
4898 21
5817 390
7843 196
9046 98
9511 98
9805 281
330 328
1332 328
2468 318
4865 107
6894 90
8040 328
8089 328
9368 107
331 331
4228 46
4961 331
5452 60
5922 365
6362 145
7067 331
7448 160
7588 331
7729 331
8652 360
332 397
1264 26
2118 203
3365 390
5322 397
5778 397
7187 231
8928 96
333 98
1080 40
5450 98
6220 98
7218 58
7339 396
7364 98
8591 107
9854 98
9867 20
9930 92
334 289
1034 198
5326 120
6063 333
6646 289
7124 289
7484 46
7619 289
8724 289
335 126
662 126
2424 85
7492 126
8183 68
8466 126
9507 16
336 261
1233 194
3954 90
6105 261
6157 244
7216 261
7953 6
1941 43
2175 112
4113 183
4378 172
4712 183
9357 214
338 133
642 352
929 350
2231 215
8869 133
339 409
577 114
1634 409
2366 145
4532 204
4685 409
5351 409
9035 180
9894 49
340 71
6113 314
6518 142
6710 163
6922 71
8153 71
8251 153
8853 71
341 21
5261 356
5439 21
8654 92
9140 136
9327 284
9976 365
342 139
5299 118
7690 139
7925 139
8112 129
8439 92
8909 90
9417 195
343 112
1419 323
1962 112
3996 60
7746 112
8798 18
344 28
2507 28
2855 28
3940 144
4123 206
6789 337
7352 28
7939 28
9750 49
345 346
2591 346
3303 346
3731 346
4936 13
5769 346
7127 76
7776 117
7807 255
346 286
760 286
4444 286
4528 65
5191 96
6431 286
6556 286
7143 59
8789 170
8911 280
9359 184
347 269
447 79
3046 307
3944 73
4798 48
5845 22
8543 269
8686 269
9334 269
9575 214
348 330
2633 100
4364 179
5962 324
7557 330
8437 319
8477 218
8852 330
8891 330
9994 102
349 57
991 57
2103 57
5955 111
7758 208
7834 60
8140 48
350 214
1776 171
4221 279
8044 285
9619 214
9840 214
351 144
2925 146
3640 144
4957 144
5232 232
7452 180
8766 144
352 271
1624 271
2480 49
5813 223
6411 358
7131 79
9002 131
353 156
4165 360
4831 134
6143 46
8737 55
9540 156
9777 378
354 117
4116 117
8176 117
8576 361
8962 46
9104 44
9345 117
9576 117
355 340
2541 263
5389 30
7628 340
8507 115
8762 340
8780 290
9631 340
356 156
6092 156
6936 376
6954 292
8841 39
9279 156
1842 222
4201 95
4800 380
6185 380
7217 380
7636 380
7771 380
8279 313
9845 231
358 294
1982 294
4658 189
6128 294
7023 20
359 224
3417 135
5430 102
6333 224
6503 224
6690 149
7018 126
7957 224
7972 249
9659 224
4382 230
5260 39
6316 335
7077 335
7200 335
7625 335
7864 26
361 161
1144 228
4687 1
5498 121
7714 161
9436 161
362 390
399 384
1237 191
2380 390
3807 390
6243 390
6262 390
8984 123
363 291
454 291
2940 160
4556 353
8235 291
8886 288
9771 322
364 30
2064 27
3799 30
4208 49
4699 30
6025 359
7092 30
8567 407
1428 40
4214 343
5734 391
6050 40
6273 8
9352 44
366 62
5102 371
5241 62
5653 323
6213 336
6235 62
6540 62
6639 62
7923 187
3862 54
8171 151
8494 245
3781 291
5120 291
5265 10
9811 6
369 110
393 54
3288 110
3458 102
6679 110
7968 110
7973 15
370 109
3475 360
4783 238
6467 50
7393 323
7580 109
371 100
2763 100
2876 12
3330 263
5212 82
5477 308
5663 100
7413 100
9870 100
372 13
2584 176
2780 174
8520 13
9330 13
373 175
1622 2
3580 25
3639 405
4650 339
7477 175
8819 175
9408 213
9626 175
9939 36
374 269
2459 194
3015 186
3479 269
5270 269
5591 269
5676 269
7251 317
9471 14
375 202
4584 39
4859 264
4963 201
7900 224
8525 202
4701 280
8390 31
9273 280
9519 280
377 196
6274 278
8353 196
8919 196
378 95
1526 95
1643 293
2955 95
6184 95
7431 390
9254 49
9745 34
9776 72
379 224
1403 337
4632 224
5931 224
7183 1
7920 326
380 289
3606 19
3815 41
7332 45
8985 20
381 94
474 227
5315 312
5964 303
6358 190
7237 226
7805 94
7881 94
8533 94
382 128
560 317
2510 211
9005 152
2127 322
3321 60
3586 180
5195 140
8474 195
9887 137
9973 60
2204 75
2989 136
3810 354
6270 389
8636 12
9270 113
385 85
5699 85
7747 31
8935 39
9291 45
386 51
803 51
1641 225
3536 355
4205 51
4588 51
5774 51
6094 36
7896 210
8349 57
8490 215
387 408
3291 189
3739 92
3768 330
5220 178
8006 408
8696 408
8931 408
8940 408
388 160
451 263
1073 290
4331 45
5262 160
6155 92
6633 160
7749 160
389 357
4661 357
5882 357
6694 179
6841 357
6866 63
7653 129
390 336
3952 313
6303 336
6305 336
7193 336
8067 336
8764 63
391 375
874 360
4816 375
4891 375
6724 375
7768 375
7856 100
9008 108
392 258
2864 258
3014 258
5920 46
6751 258
7952 125
9848 21
8029 54
8658 54
9094 273
394 315
1473 315
2299 333
3802 315
4038 315
4089 315
4655 315
5918 6
6816 72
9597 141
395 176
4363 176
4497 360
7133 176
8094 59
8542 176
8574 288
8671 176
8855 176
396 184
1125 301
2122 18
2988 16
4834 184
5277 360
7553 184
8554 250
8758 184
8897 46
397 84
1458 230
1852 131
7277 84
7529 84
8202 84
8486 205
8492 84
398 257
1026 380
5197 257
6356 365
7031 349
7044 257
7765 257
9844 59
462 283
3971 3
6285 306
6696 384
9300 400
9385 60
400 269
5802 47
6107 249
6298 90
7811 275
2042 161
2448 205
4691 67
6095 7
6650 51
9858 100
402 223
6669 223
7893 303
9684 10
403 348
7326 349
7796 304
8319 333
8896 348
8913 400
404 200
546 176
3120 200
3616 204
5090 57
5172 315
5574 200
5944 200
6074 200
9482 292
405 263
2285 263
2717 263
3834 20
4204 19
6352 263
6839 312
8189 290
406 266
2163 286
2595 266
3650 266
5007 62
5855 43
7084 239
8363 173
407 241
3301 241
4514 241
4596 241
7443 60
9936 231
408 130
2147 148
9515 46
9680 130
9838 130
9903 130
409 96
6366 213
6911 30
6984 303
9431 83
9960 96
9978 290
410 302
1309 63
4511 302
4815 344
5595 302
5833 225
411 54
3602 54
4248 126
7359 343
8667 70
412 86
4522 309
6177 250
6739 86
8476 86
9516 204
413 284
1093 262
8023 320
8309 19
8402 101
1955 377
2716 144
4572 122
5741 144
8736 293
415 46
3147 138
3905 46
5325 101
7558 216
9348 46
416 237
1837 94
2028 181
2637 237
6400 9
7013 237
8227 237
9257 151
417 326
2046 249
4571 335
5159 94
5423 177
6870 130
8180 326
418 248
770 248
2796 49
4337 38
5511 401
5701 248
419 304
1564 126
1743 203
4666 304
6583 137
6908 304
7645 304
8355 89
9340 47
420 361
1500 277
6346 46
6450 373
7504 361
8478 361
8572 361
421 344
1046 203
2134 136
2699 281
4099 344
9916 365
422 72
2653 72
5138 72
5471 72
6368 341
6762 72
9646 80
3095 81
5418 81
6169 81
7454 348
8441 113
9528 20
424 6
732 341
6955 6
7937 6
9266 401
425 67
782 215
5042 135
5807 65
8281 67
8601 96
9502 67
426 67
2825 43
6003 263
8156 67
8800 300
9591 67
9808 34
427 372
2561 107
7813 352
8452 372
8712 372
9181 288
9290 349
428 409
1253 409
1594 55
4431 409
5751 409
5948 409
6139 403
6340 8
6671 409
6887 69
2238 207
7238 119
9546 119
430 107
1504 107
1694 301
5058 12
8620 107
9227 215
9295 107
431 59
694 59
9373 92
9747 170
432 190
1377 19
2338 314
3331 190
3596 86
5415 190
6842 267
8255 190
9019 190
433 107
1156 107
2447 201
5113 325
7353 18
9093 60
9734 107
9781 64
434 282
3395 377
3434 347
5573 282
5689 253
435 229
2431 309
2682 355
3130 229
3903 104
4448 229
7996 229
9187 126
9541 49
5652 24
6173 256
6363 256
8388 249
437 68
618 316
3188 68
4975 261
5453 68
5975 179
8371 81
9892 68
438 107
2183 333
5228 205
6048 107
6190 168
8459 15
9058 107
9610 35
439 49
5715 49
6952 295
8586 26
8592 49
440 403
4662 403
6416 403
9061 340
9411 403
9484 365
9600 403
441 206
1814 206
4086 206
4159 383
4749 322
4947 206
5977 344
442 246
1342 143
3755 166
6070 246
6403 174
7678 407
9673 2
443 216
556 63
1806 93
2075 216
4604 216
5454 217
6668 216
6796 204
444 132
1379 182
2476 317
5654 174
9203 132
9562 132
9730 132
9886 60
481 118
1902 103
2690 9
2944 211
4489 9
6033 9
9946 165
446 47
3412 145
3838 47
4583 235
5735 335
7256 222
8198 47
8629 242
752 97
3244 97
3765 285
1631 408
2997 42
6886 125
3437 295
8087 217
9948 49
450 31
1683 39
3183 283
3851 31
6895 31
7604 118
7694 322
3670 90
7635 333
7770 290
452 131
1333 351
1383 131
3084 131
8643 11
9414 142
9549 249
9634 193
9720 142
453 39
937 153
5028 98
5149 4
7369 39
8283 381
9645 39
1812 201
3797 291
6790 208
8684 224
9861 210
1044 324
3962 51
7047 51
456 24
920 261
1091 6
5391 252
7167 178
8579 24
457 409
2331 409
2901 409
3869 195
4374 66
7281 14
9041 114
458 57
655 57
2628 178
3255 214
5768 9
8954 57
9786 57
459 140
1376 140
5038 321
5126 142
5835 140
6718 19
8322 92
460 197
2478 362
3190 394
3609 197
4439 197
7365 126
9505 197
461 209
1243 333
2406 132
4006 209
4717 209
2347 283
3853 111
5355 283
6824 216
7214 283
7985 283
9152 3
9472 39
463 183
1462 194
2675 183
3721 139
7912 183
7995 183
464 215
2221 215
3736 163
4993 310
7172 215
8234 9
8661 31
9982 26
465 56
1038 373
2542 209
2919 56
5703 240
7965 333
466 250
5896 374
8885 250
9501 250
9602 68
467 217
1701 98
6381 217
468 178
1054 251
4115 123
5473 320
7704 186
7897 178
8209 178
9252 178
469 66
1082 14
4774 99
5047 331
6176 66
6300 66
6656 66
8858 218
470 261
3005 99
5101 261
7106 261
7722 261
8123 92
8381 261
8811 160
8930 120
471 44
3878 245
4546 44
4708 99
5196 388
8045 44
9738 170
472 97
697 142
907 97
4001 97
5840 315
6623 97
8347 25
8796 306
9652 249
473 135
3285 168
4132 135
4642 233
4793 367
7424 134
2055 227
2180 227
7986 100
8273 227
8328 227
475 33
1645 215
2472 119
5650 229
8621 126
8850 33
8902 257
3758 250
9296 63
9621 35
1544 201
2727 368
9148 182
478 232
1421 232
1576 307
3486 136
3780 9
4913 232
5647 232
7113 232
9467 288
479 158
2800 349
6282 153
6337 158
7806 231
8306 158
9156 407
480 62
522 223
3221 192
4181 72
4981 190
8765 151
4681 288
7506 186
7792 114
7921 118
7998 248
8320 118
9766 118
1510 6
2396 371
2655 313
3282 377
4644 368
483 258
2577 373
4203 82
4297 258
5646 213
7802 258
7999 12
8179 258
484 115
1039 358
3744 115
3784 115
4321 115
5192 115
6032 115
7420 162
9283 239
9571 113
485 342
1488 214
3114 230
3185 342
3688 342
5328 342
6098 201
6458 107
7612 342
9746 333
486 18
2572 272
3023 283
3108 18
8526 300
9255 18
487 187
3373 187
6519 360
8631 182
8876 205
9222 187
2617 169
2710 378
9748 49
489 289
819 289
1879 289
2321 301
2508 126
6212 101
9729 83
490 345
3564 131
8409 345
491 179
3585 376
4709 349
5021 246
7826 177
8904 179
8941 224
492 332
3830 332
4078 332
6224 332
7363 332
8573 404
620 331
4487 331
6648 331
494 93
4791 152
6843 93
7212 93
7959 93
9116 58
9643 90
2060 239
2529 96
3308 226
9999 92
496 47
2506 132
4721 47
9172 47
10000 47
497 160
1754 284
3672 224
5617 160
7979 178
8010 160
498 219
1762 245
7730 78
499 319
1235 61
1307 44
1426 319
3856 355
3967 39
5648 41
7042 319
7318 319
2422 56
4945 231
7035 359
7311 1
8907 41
501 189
532 291
582 99
1729 189
6993 189
502 206
1318 206
2256 180
3534 385
4067 12
6592 354
7498 206
503 40
5278 168
6422 74
7211 40
7614 40
8597 118
8656 367
504 1
1296 1
5024 1
5049 1
6461 1
9043 349
9635 224
505 222
2362 222
2565 245
2815 62
3651 222
5131 179
5644 132
7162 222
7981 20
8225 222
9363 308
3012 82
4243 114
7121 72
8555 34
9716 92
507 217
4316 217
4641 195
6077 10
7002 117
9853 20
508 285
4517 81
6549 285
8305 280
9447 225
9775 293
509 137
4951 291
5194 295
5800 63
6238 137
6491 58
8610 290
9089 46
510 81
2848 8
511 190
7273 4
8918 190
9427 3
512 350
1582 26
2018 280
5065 350
8674 269
8698 320
513 20
1851 137
2665 172
5612 20
8188 296
9237 381
9650 20
514 99
816 240
2368 99
6966 99
9866 288
9996 120
515 140
1897 108
2254 140
5353 140
5927 390
8438 215
516 233
1667 105
5103 233
5275 134
6606 233
6905 233
8728 233
9584 60
517 362
574 362
3364 408
8496 362
518 194
5293 194
6935 273
7622 194
9120 194
9700 194
9925 288
639 272
6932 136
7222 333
9085 46
520 31
6785 31
7321 293
9015 322
9106 31
521 35
2136 26
7753 334
7859 63
9027 35
9653 34
9791 35
3729 76
4320 278
5109 6
6948 223
7766 223
523 308
749 308
1868 396
1880 22
1937 308
5359 245
9409 76
9727 39
524 313
5252 271
5621 114
6140 177
8195 313
9827 313
525 84
8082 84
8098 349
8325 84
526 5
1335 145
7872 5
8447 6
9115 169
5253 264
6746 125
528 68
719 68
2599 144
4795 27
6268 68
8790 68
9220 106
529 177
3419 278
4169 365
6453 177
7418 39
8376 134
530 20
1285 10
7757 401
8155 20
9070 273
9350 20
9587 12
531 131
1850 49
3509 206
4326 3
5902 52
5957 131
8259 131
9030 131
1535 179
4244 406
5383 277
6643 274
8336 291
9382 120
533 109
6153 243
534 348
3770 348
4973 225
6995 153
7677 348
8879 205
535 295
847 28
1477 22
2022 295
2956 295
3335 295
7399 295
7535 90
536 90
1964 90
2667 35
4781 90
8862 90
9625 260
537 333
595 108
3270 316
3506 100
3533 309
4555 398
538 279
4118 368
5474 14
5844 359
7738 279
8302 279
8875 279
8969 279
539 158
2890 64
4526 158
5385 158
8647 228
9874 20
540 247
2266 11
2341 247
3502 247
5329 262
5571 391
6442 20
6455 208
6545 247
6594 74
541 107
2464 107
2660 107
4277 279
5925 86
8949 150
542 257
628 257
1240 40
1915 235
2446 16
4333 17
1733 101
2574 148
3100 115
3381 157
7266 148
7945 245
9911 44
544 237
2692 146
3142 145
4252 48
6350 13
545 349
2528 349
5226 364
7327 115
8845 349
4254 176
6516 137
8805 249
9313 142
547 169
1373 95
3040 169
4420 120
5163 150
8073 226
8502 169
901 222
1319 222
2971 222
5303 27
8021 139
8493 184
5300 143
5824 143
9323 100
550 331
943 176
1322 288
2405 235
5362 331
5590 331
6236 11
551 338
664 99
2273 338
5888 338
6223 338
6912 338
552 27
1906 27
4052 251
7004 15
7384 273
553 400
2571 348
3078 284
4251 400
5188 400
5702 16
5726 156
6218 21
9715 400
554 10
1400 200
2975 168
5783 323
8506 10
9304 10
555 34
3776 332
8229 63
2602 246
3439 348
3898 373
7960 78
8126 63
9095 63
3779 191
5606 402
8134 175
8260 167
9607 175
558 345
851 381
3135 154
5766 345
7598 61
8263 345
559 135
4101 135
5626 135
6538 135
6770 369
761 354
3186 317
6456 317
6621 317
7104 317
561 333
2678 307
4643 232
4937 99
6845 159
9632 333
562 356
2609 50
6404 356
7232 19
7630 228
8415 161
8673 39
563 318
2019 83
3232 318
3361 318
5078 318
5368 318
9966 19
585 100
1270 125
1672 189
565 289
623 47
4273 39
4290 348
4386 240
4987 289
8357 87
566 125
4807 125
5124 142
5485 16
6761 375
8676 365
9356 125
9453 125
567 64
6999 77
7213 64
8448 64
8660 367
9932 260
568 181
1269 76
5316 36
5945 18
8921 181
9921 224
569 149
1146 247
1922 170
3809 149
6780 149
7675 149
9601 400
570 135
4032 177
4624 236
7112 135
7242 163
7458 151
571 171
1009 100
1644 349
3436 131
4718 171
4763 171
5106 171
5801 220
7860 286
572 201
3161 22
4900 201
5387 144
7846 201
573 61
8977 61
5268 362
7139 44
9299 119
575 269
2496 394
6651 352
6927 269
8733 269
576 182
4592 166
4719 52
9263 182
9454 182
9784 182
5403 351
5569 114
6857 311
9480 123
578 40
1746 27
2150 250
9264 2
9451 83
579 127
1251 127
1889 157
4024 6
4716 127
6304 284
6550 100
9446 123
580 46
2816 142
4051 46
5564 23
7576 123
8598 46
581 163
3866 28
4869 19
5420 403
8060 163
8444 154
8690 163
1736 99
7547 45
7674 156
7819 99
9011 99
583 245
2105 44
3555 126
6120 49
7842 245
9529 245
9813 245
584 310
785 58
1646 310
2342 310
5468 310
6497 168
7007 310
1522 122
6786 100
6994 180
7528 125
8228 100
9864 100
586 318
1011 224
1676 318
1742 364
5061 30
587 401
1122 367
2497 239
3421 401
5081 45
6160 401
6752 107
8339 401
9443 178
588 63
1750 10
1829 267
2922 73
7546 63
7924 165
8241 63
8392 54
656 232
1071 339
4960 74
9372 79
9486 154
6044 331
6325 376
6330 331
8856 340
9145 360
9477 340
9891 195
591 150
3259 150
3451 150
7169 389
7234 150
7511 195
592 215
768 360
3203 117
3441 208
3813 269
7407 215
7427 215
593 45
7430 98
8580 45
1059 393
4990 212
6360 212
6831 54
7323 212
9398 2
835 108
3313 318
3621 165
6002 287
6609 267
7692 55
3540 92
8774 249
9669 249
597 409
1870 72
2188 268
8257 277
8868 321
598 183
5773 1
6436 270
7682 183
599 223
1572 142
1595 223
3175 223
3833 269
7493 166
600 151
1489 151
4529 334
4634 298
4734 31
7156 151
8482 151
6258 394
9573 306
602 79
1133 92
1325 79
1387 31
6748 348
9221 107
603 241
1203 241
5838 20
6942 241
7014 241
604 123
681 181
3832 384
5369 137
7276 123
9922 123
605 39
2171 39
2530 253
4413 39
4693 218
6672 91
8308 39
8675 208
8961 39
9927 92
606 32
2308 91
3016 322
7020 32
7545 32
8384 290
8587 32
607 95
737 405
6802 243
7312 40
9962 90
608 411
1190 411
1481 94
2787 411
5023 411
5276 367
6733 77
6804 374
7395 411
609 349
8372 349
9083 2
9711 349
9868 349
9992 142
610 130
2039 372
3140 285
8119 340
8398 178
8860 80
9198 130
9570 130
611 328
3986 36
5016 157
5162 341
7780 328
8219 268
9636 39
612 197
4785 197
7472 215
8079 197
9460 166
9623 197
613 62
845 381
2762 62
8689 72
9142 62
614 256
3861 207
6941 256
8253 173
615 115
1221 170
2212 89
3963 380
4049 166
7886 115
8338 115
8396 115
616 217
820 77
3551 217
7348 217
8128 336
617 387
1351 97
4189 387
6104 387
7429 387
7666 387
8182 102
1531 381
2757 303
619 337
1685 216
3909 46
4288 411
6085 103
8034 337
8777 337
9033 337
9112 337
4578 207
6747 323
7387 203
9780 98
621 48
1045 177
2003 48
4097 48
4157 10
7204 76
7686 114
622 39
5340 298
5401 21
6463 41
7966 322
9364 39
9698 142
2928 220
6014 280
624 164
881 268
1255 35
3877 63
5738 164
6574 164
8124 262
625 60
3773 128
6980 165
7728 279
8697 60
626 131
1608 131
1965 131
4914 286
5005 365
6584 18
9246 245
9779 131
627 20
7051 57
8138 20
8464 126
8548 224
8595 131
2703 1
5503 162
5605 288
5863 195
629 138
2261 138
2278 138
2837 49
4535 282
7938 254
8455 138
8284 322
8422 315
9883 107
631 307
1176 307
1388 144
6145 338
7507 102
632 56
2863 43
6209 254
7062 167
7316 56
5231 312
7894 290
634 60
3082 153
8727 60
635 73
879 73
900 370
2491 73
2537 73
2548 24
4686 186
4741 72
4959 91
7892 73
2101 132
2305 152
4970 38
6797 38
7034 76
7340 38
637 390
1874 390
3405 143
8022 113
638 306
1828 38
7638 62
9530 306
5764 272
6288 379
7010 254
2208 164
3136 238
3482 238
5810 159
641 59
4766 242
5026 244
6367 59
7596 337
2119 41
2473 352
2861 151
4412 348
5756 20
7111 352
8099 352
643 328
675 138
2026 324
3375 328
7134 47
7820 328
8058 328
8884 151
644 136
3600 102
4765 136
7078 136
7868 136
645 253
4711 115
5256 124
6399 179
6468 253
8672 253
1228 287
5408 267
647 254
2657 46
8110 79
9131 174
9219 254
5054 99
5425 99
8761 99
9609 76
649 90
3073 43
5657 306
8030 90
9032 405
9580 398
650 223
2196 172
7071 73
9320 333
651 225
4119 198
8141 204
8821 225
9532 205
9908 225
652 213
3754 213
4388 401
5446 38
6112 213
8553 213
653 106
2202 122
4168 15
8024 386
9139 106
9613 340
2160 243
6758 354
7086 37
7878 312
9469 60
669 17
7759 2
8818 57
8972 187
2612 232
5014 191
6967 232
657 276
3320 162
3825 276
4074 276
7120 276
3403 295
3515 244
2847 142
3469 40
5627 128
5717 128
8561 357
660 46
661 220
4403 245
5515 265
5625 48
9170 205
9401 220
5780 126
7788 125
1077 328
2467 329
1051 49
1707 185
3002 99
4004 360
8618 391
665 260
3283 124
8370 113
9763 260
666 300
3885 142
7197 92
667 101
1301 233
1316 269
3227 101
4194 101
6293 339
8318 101
668 114
1674 270
4156 402
7398 114
8184 114
8584 114
791 17
1769 401
5867 17
6938 389
9923 6
670 150
2845 168
3392 173
5456 60
8609 150
8626 150
9765 63
671 101
1862 101
2126 404
5302 164
7640 101
8550 185
8838 101
8883 225
9439 292
672 51
2511 199
4557 225
4603 156
673 260
3176 333
5619 181
9062 260
674 238
1078 197
1429 14
2954 214
5744 92
5557 138
5832 62
7975 43
676 283
3917 45
5255 283
6610 283
6765 63
6904 283
677 147
3109 147
3446 14
8346 77
678 403
1802 403
4178 313
5903 403
7011 238
7215 261
9506 403
679 292
3724 359
4335 39
6560 182
8113 154
8435 292
8583 292
680 278
1374 352
3516 278
7374 278
9754 278
9826 19
6809 410
7917 181
682 56
4500 57
5097 56
7550 20
8143 38
683 75
2232 87
4227 198
6097 91
7919 75
684 344
6237 132
6697 299
7691 214
685 194
2658 259
4570 259
8252 353
9782 55
686 145
2643 145
4423 242
7782 72
8230 358
687 296
3219 171
8848 169
9174 296
9543 296
9798 36
688 62
1461 62
2322 389
6499 197
7971 21
689 108
3738 161
5364 301
5808 383
690 172
5630 172
6997 242
691 188
3910 43
6089 188
8699 378
692 375
8148 230
693 341
1563 341
3132 341
5565 341
7264 341
1180 186
7341 383
695 287
1853 287
5219 151
6979 287
7125 287
8645 25
9317 194
696 10
1310 324
2365 189
9568 10
9667 10
4073 109
5946 142
7613 103
9722 142
698 268
1312 310
1921 67
3528 361
9561 268
9797 268
9941 228
888 83
4591 340
6162 19
9968 39
700 48
2501 240
5554 60
8374 327
1558 64
2115 29
8730 224
702 45
842 350
2515 92
4392 137
8622 45
9066 387
703 269
5749 269
704 176
3359 176
4536 176
705 259
5865 145
7061 259
7108 23
9053 21
5969 191
6496 132
8294 314
8532 326
2466 71
3195 303
4117 303
5155 90
7239 184
9087 349
708 112
2483 112
2948 112
3115 293
8434 345
9122 79
709 321
1149 280
4503 70
9629 321
710 178
1723 239
3261 391
7474 132
711 111
1334 242
2826 111
9175 197
712 137
2267 112
5522 125
713 61
4839 311
5017 61
6787 61
8018 195
714 178
3394 178
4918 22
5366 190
6051 178
7003 392
7385 133
715 241
4050 182
6053 241
6873 156
3414 299
6585 100
8565 288
717 100
4581 296
6149 100
9438 100
718 118
4349 330
7126 68
8465 102
9550 31
721 159
3490 215
4692 35
7838 204
8739 159
9162 159
722 219
2216 197
2339 366
5624 242
5937 219
7132 240
1350 169
4242 48
5185 205
5599 245
7442 48
724 405
2052 227
5321 376
8077 405
9244 230
9675 405
725 315
3056 59
3821 315
6414 315
8367 54
8797 315
9051 20
726 44
3189 281
4690 390
4852 44
5356 44
6175 44
727 244
1195 266
1554 244
1919 221
3247 216
6206 244
728 149
2947 149
5629 327
6851 83
7839 96
8470 210
2631 120
4354 247
7785 236
8362 190
9448 67
730 118
6046 410
2097 338
4967 73
5132 100
6194 378
9018 100
9739 100
4872 341
5039 251
6525 113
733 28
3847 294
4903 28
5193 28
6106 10
7279 28
7419 39
7702 83
7862 89
734 199
745 199
3494 199
5789 199
6943 273
7151 195
7317 199
7642 277
9828 340
735 101
3184 90
3200 394
5010 101
5494 211
6707 168
4801 144
5491 234
980 405
1274 48
3530 400
9184 405
738 130
3117 215
4518 135
5208 171
7140 258
7356 161
7964 130
739 226
2706 207
4824 229
4944 226
6529 114
7531 226
740 237
878 72
1606 237
5001 38
5310 15
742 36
5352 285
9627 36
9810 36
743 388
1323 25
5372 198
6294 186
7658 100
3172 46
4618 404
7446 46
8130 46
9554 64
972 145
1847 399
3152 253
746 2
6784 207
8623 2
9306 26
747 1
2451 325
4649 365
5670 1
6204 1
6339 139
4446 53
4940 399
3505 11
3895 366
6470 207
6875 89
750 391
3637 240
4455 391
7324 391
8524 142
9832 45
751 151
5051 251
9213 49
9282 151
5466 97
753 360
2707 285
3489 360
3685 360
9012 63
9338 215
754 0
4746 215
6766 185
9286 0
755 381
1698 112
3819 372
4495 381
6568 381
7847 278
7944 381
756 228
1074 228
2745 46
3059 228
4977 228
4999 17
5848 380
8510 228
757 296
1657 132
4296 296
4707 16
4743 63
5588 341
2545 91
7984 224
9420 83
759 134
4121 134
6246 195
6914 250
1000 153
3139 393
4472 354
7800 339
762 274
1476 159
4560 274
6170 213
7508 25
7976 348
9226 274
9349 274
763 266
1524 266
1633 39
4171 100
5345 103
764 50
908 170
8008 50
8131 50
8423 400
765 241
1241 18
5309 11
5748 241
7948 46
9487 10
9595 228
766 110
3562 401
3708 110
4424 110
5526 83
5683 110
8250 167
767 247
4246 181
4730 367
5271 247
8215 114
8778 90
8877 31
9103 360
9488 360
769 149
1562 89
2397 332
3402 35
7641 149
6542 203
771 205
1407 140
6349 400
7272 96
9958 205
772 70
4173 106
8011 70
8052 270
8361 174
773 412
2547 412
3063 412
5914 174
6007 412
6108 9
7054 412
8701 99
9836 349
774 346
1427 143
1514 73
5777 346
6302 346
775 252
3863 252
4605 244
5410 295
5645 204
7305 161
776 20
2094 81
7627 20
8129 63
8582 120
9259 20
2474 184
7083 103
778 250
2471 49
6860 54
7163 250
7824 161
779 383
4098 143
6189 383
6536 355
9123 383
780 215
996 268
2965 133
5552 243
7523 215
781 155
5033 407
5119 311
5913 155
5998 92
2531 215
5284 20
5497 215
8564 106
8704 142
783 143
4257 143
6377 285
6657 393
8784 407
784 330
8095 330
9521 119
1794 195
2649 135
4405 58
8293 244
8999 9
9718 58
786 119
787 184
1629 328
788 245
3493 180
8327 322
789 382
2275 9
4028 117
5068 35
7575 19
9509 170
790 208
9489 102
4029 242
6869 17
6884 194
9108 293
792 264
2233 127
3808 264
7970 44
8426 81
8748 250
5600 359
6124 359
6219 398
7175 190
794 242
795 392
3127 259
3647 307
7693 392
9039 130
796 376
1898 337
4565 376
5247 210
5949 376
8807 288
797 245
6010 245
8487 245
8632 19
9377 245
5122 37
8359 47
8663 47
799 39
1048 39
4512 410
5579 306
6909 39
6939 81
8826 293
800 298
2129 285
5562 298
6858 298
801 21
1053 21
3096 303
5984 21
802 408
2177 59
5508 14
6603 124
1901 269
2071 163
804 39
1677 338
3471 174
4250 228
5675 174
806 348
2849 127
3207 231
5441 261
7567 126
8053 348
807 41
1023 236
3467 41
4892 292
808 339
1210 296
5438 380
5561 131
9947 142
809 45
3268 141
5709 118
7554 96
810 216
1305 349
4956 216
6114 216
7146 380
811 90
5999 224
6357 288
812 377
1365 377
2009 71
4929 377
5169 205
8093 79
8810 39
3341 94
814 140
8074 296
8938 57
815 255
7646 255
7756 255
8206 255
6234 122
7000 240
7101 240
7568 240
7779 240
817 187
2378 263
4353 260
4436 309
8596 187
9223 187
818 250
1443 290
3345 46
6522 365
9465 250
9498 225
5376 142
5686 49
7644 77
7681 321
8887 340
9036 77
821 117
2164 271
3972 107
6588 87
7537 117
822 193
7978 193
9341 193
9702 90
3444 236
4308 236
6191 382
6782 236
824 135
3694 135
7299 245
825 228
1817 228
7606 26
8410 25
9086 228
9384 228
6830 126
7951 177
9065 159
827 37
1687 301
3397 152
8540 44
9789 37
9831 37
828 211
6178 270
2811 387
6030 128
6418 125
6685 125
7250 125
830 21
2814 360
8515 46
831 69
2562 339
832 408
6443 25
7861 389
8194 408
9241 54
2078 74
3848 46
5457 144
5828 21
4398 194
5830 90
6977 90
892 108
2271 127
2791 412
3656 86
5971 146
6009 184
837 261
2600 42
2764 90
838 63
1152 175
1485 62
9638 63
839 170
7005 170
8978 170
840 210
2033 345
9474 210
9658 210
9693 210
841 130
3093 89
3680 323
6559 242
7456 195
7874 130
8767 350
9245 103
843 128
1349 128
1718 202
7245 128
4195 56
6566 56
3226 57
7249 103
8111 381
846 319
4357 8
5784 57
5911 141
2074 3
4261 154
4399 219
848 368
3524 406
4041 131
849 94
2243 283
7069 37
7751 94
850 333
3499 47
9755 365
9759 142
1411 126
1556 225
9369 381
852 136
2145 76
3452 57
6248 379
8232 16
8917 136
9274 136
2441 90
2521 227
5249 227
5791 163
7141 74
9997 44
4224 121
4613 94
5476 90
5916 135
7184 349
855 6
2131 249
7480 6
7618 50
8217 74
8226 6
856 241
4330 119
5374 241
5424 245
857 353
4621 349
5926 353
6247 353
6558 353
8725 353
858 1
1352 287
3215 39
7064 1
8133 26
9514 44
859 297
5475 78
7322 374
7509 124
8617 102
860 340
2664 340
3258 348
7544 196
9878 340
861 188
3831 248
7201 188
2551 86
4438 6
4848 195
4866 370
8716 314
9871 195
863 233
2442 233
2728 20
3579 233
3873 233
4057 233
9173 83
864 295
1263 295
2934 369
3798 295
5018 295
6607 7
9434 349
865 123
8771 123
3079 172
6109 207
8963 226
9134 207
9710 207
867 62
1881 62
6122 239
9229 12
954 312
8084 44
8265 327
869 31
3415 369
4520 31
9737 31
1873 97
3757 2
3782 49
6292 49
7021 49
7750 103
8032 49
3157 309
5960 240
7274 309
7660 309
8287 309
2194 49
873 60
2553 308
4469 333
4623 26
9824 79
1711 360
1821 360
2820 360
6520 225
875 143
4401 143
8103 15
876 386
4359 161
6593 386
7289 386
7837 386
7905 386
877 36
7441 10
9179 36
3151 72
5083 253
6474 295
6531 197
880 81
3265 113
5535 370
6308 70
7578 19
7928 202
8893 81
9208 81
6132 169
9206 268
882 286
6879 44
883 65
8216 65
8899 168
884 148
3707 53
7115 148
1820 344
8458 193
886 142
2993 363
7526 407
7786 142
9160 142
887 378
5011 68
7410 32
8282 378
9021 378
3076 185
4896 16
5759 120
889 136
1566 298
3182 136
6428 44
7149 136
890 216
2674 351
4309 370
5765 216
6487 216
891 44
1003 157
4964 293
8065 44
8275 44
8723 355
9758 44
5095 11
5158 154
4376 399
6391 399
7438 399
7449 378
894 101
951 366
4430 247
5198 292
895 84
3937 71
8768 131
896 174
3700 148
5754 153
897 318
1679 318
3999 51
5870 60
6068 265
8385 369
898 75
1304 141
4833 72
5125 367
8751 277
4187 247
9651 60
1372 357
2035 370
3374 1
8946 370
1435 155
1790 222
4062 222
5263 222
902 124
956 124
1810 96
3561 124
4384 124
4700 99
903 275
1621 268
4249 21
4881 243
5690 303
8541 275
905 407
5181 357
1557 126
7597 244
9731 79
4351 79
9114 120
1529 170
2062 170
2319 131
4935 197
8254 170
909 307
1967 90
6201 307
6492 254
910 264
3077 264
4876 264
6326 264
6445 195
7401 264
911 378
1532 398
6498 151
9466 80
912 179
3280 179
913 77
4762 350
5681 345
6100 77
914 171
3411 57
5292 171
5668 229
6217 171
8668 230
9526 365
915 396
1876 301
3201 207
3745 396
6383 333
8062 396
9247 138
5291 238
6472 297
6729 285
6798 238
1935 287
2211 125
2337 72
2888 28
918 197
2604 308
4861 404
963 400
1947 370
9298 221
921 38
8090 281
9816 142
922 81
2673 332
3030 37
4599 81
6647 249
8315 126
923 14
2310 340
3641 249
9483 321
924 192
4735 192
6006 100
6666 192
8277 204
3251 19
8603 99
926 139
4293 139
6693 290
8114 139
927 53
4340 53
4428 53
5707 146
6306 199
928 144
9044 118
7787 70
930 141
1302 141
1580 309
8926 141
9445 141
9893 49
931 164
4269 164
5059 20
6013 164
7008 164
932 14
1363 44
1855 364
6678 45
9400 14
933 200
2987 241
5847 15
6019 200
6265 200
6334 151
7490 321
934 347
8108 253
935 142
2607 355
6591 48
8132 142
936 186
1492 103
8516 365
9101 153
9647 153
938 6
6183 43
9383 6
9863 6
939 20
4327 63
4365 361
7497 20
9444 20
940 271
3599 348
4441 138
4543 271
8634 14
941 364
1778 71
3726 364
6281 327
6553 251
8960 218
4921 176
7001 19
944 193
2280 355
5740 228
6454 92
8240 193
8691 19
1041 357
2456 313
3024 357
5229 255
8755 44
946 361
2549 161
2963 53
4291 273
9804 225
947 29
5019 100
9189 225
948 296
949 9
950 315
1738 79
1966 315
3730 206
4108 315
3032 366
4919 201
4949 366
6892 204
9378 278
952 12
2036 343
4722 9
5428 12
953 334
4751 334
4890 228
7050 400
8445 334
8844 131
6042 75
6136 312
6644 312
955 280
1662 405
8882 107
9074 280
1013 307
2755 124
2891 284
3553 74
5465 124
8280 167
957 235
3089 13
4163 98
4626 235
4659 235
6216 113
6233 235
6628 235
958 354
1511 138
2443 142
5988 166
6728 354
959 193
2220 208
4286 200
8214 60
8242 193
9013 193
960 215
1359 85
5566 215
7473 215
961 142
7656 60
9809 340
962 390
3839 88
7916 39
3037 389
4905 400
964 74
2207 172
5795 405
5989 368
7514 45
965 60
4014 185
6745 60
3727 340
968 309
5422 309
5507 380
969 142
1024 142
3131 145
3372 10
3463 43
7994 142
970 68
2733 68
5794 40
7527 162
971 257
2567 257
4568 249
5334 257
1695 284
3382 208
3769 145
6301 145
8213 322
5190 349
5737 349
5841 287
8753 5
974 58
1184 58
5003 48
6116 377
975 44
1501 284
5567 44
8063 44
2489 39
3655 49
9796 44
977 90
4756 90
5367 90
978 168
1027 96
6297 142
7220 88
8994 168
9846 168
979 362
1469 362
3267 362
7209 46
7470 7
3138 405
6195 24
8152 99
982 49
1719 49
6146 79
8369 270
983 265
5347 172
984 408
2132 85
2771 242
4813 356
5350 365
5721 64
985 194
3149 412
5805 194
6803 194
7488 194
8895 20
986 406
5037 406
6712 410
8635 16
987 288
9042 288
988 384
3588 320
989 253
4105 183
5040 257
5856 253
6495 253
6586 32
7698 180
2047 401
5607 262
8473 82
8537 82
6023 57
8020 57
9475 131
1834 304
6205 398
6417 35
993 44
1231 44
3387 44
3987 57
994 115
1632 233
1791 273
9852 39
2153 309
6660 366
6700 169
8239 242
997 37
7715 239
4772 119
999 57
3225 57
7117 119
1545 153
3376 239
6197 173
6296 96
1001 90
2568 32
2916 58
5227 90
6883 96
1002 297
4488 195
5458 266
6944 297
2079 157
4838 157
5950 157
6276 363
6526 157
1004 12
1464 12
1779 305
2084 293
2340 12
3854 12
4305 137
8630 243
1005 357
3390 20
3823 50
8547 133
4008 1
8859 21
8323 114
1008 114
4698 92
5770 96
2910 234
7231 100
8404 100
1010 106
2923 163
5243 262
3631 278
7665 224
9182 60
1012 215
6878 343
8343 215
2711 307
5974 307
7063 156
1014 136
3339 136
6277 367
7655 5
9929 19
1015 169
5637 46
5928 258
9912 169
1016 255
2210 53
3128 255
1017 106
4292 136
6102 358
7734 106
1018 30
5041 30
5114 30
6079 231
1019 284
1887 253
5205 2
7194 28
1021 347
1389 347
2693 347
5512 49
9456 165
1022 86
3570 86
6099 346
6859 89
3006 236
4126 236
4347 81
5886 236
7538 102
1589 325
2294 45
6832 69
1025 39
2154 198
3741 189
5034 242
3617 380
1118 35
6332 96
1028 243
3964 312
3989 57
8150 105
1029 115
4620 11
6535 25
8613 351
1030 45
1385 137
4323 388
4675 168
1031 179
1543 42
2008 179
7891 3
8088 10
8461 179
1032 394
6788 394
8056 194
1033 90
4009 226
5967 247
3035 198
4373 288
6307 216
8431 407
8983 218
1035 46
3919 212
4079 81
5733 46
3594 344
1037 79
7032 278
9028 57
2900 373
3698 150
4537 223
7752 373
1224 358
1836 85
3766 358
8952 63
1040 199
1347 199
1468 60
1725 187
2374 199
3537 39
1671 138
1042 112
1043 164
2647 164
3470 164
7137 34
6062 379
6871 324
1991 312
7793 322
3271 367
5062 197
6075 333
1047 64
5455 163
8337 64
8996 64
3296 346
6208 228
8851 39
1050 218
1938 389
2570 195
5183 46
7129 49
8312 49
9512 102
9586 49
1052 221
2227 264
4867 221
7475 173
1417 376
6369 16
6807 21
3007 251
3828 251
4633 65
3923 402
6462 67
1056 285
1137 285
2109 230
4245 122
4410 285
5868 285
1057 138
3584 176
6629 177
1058 222
4065 222
7358 313
5140 393
1060 105
1697 105
2421 105
5327 105
9682 107
7315 20
1062 207
4636 378
4925 207
3038 230
1064 36
1459 254
1542 364
1773 122
5915 335
1065 387
4111 387
7907 44
1066 230
1981 278
2836 139
9578 230
1343 39
7687 120
1068 171
2957 171
4504 213
5812 60
7708 293
1069 263
1486 235
3353 19
6544 263
1070 375
4750 375
8988 96
3852 283
5080 34
1072 360
5968 62
9547 360
9574 267
3243 265
3557 290
5451 290
3569 10
4167 363
8285 228
1075 317
2135 317
3334 317
3920 128
5160 317
7590 317
8164 99
1076 49
3592 171
4835 244
5308 49
6193 169
1610 140
5611 328
5312 358
9333 6
1079 60
1864 333
1663 90
2519 369
4674 26
1081 270
5776 305
9267 270
9281 270
2388 41
5710 223
1083 220
2982 387
3034 198
5792 387
6811 387
1085 25
7816 49
8276 35
9606 25
1086 213
1953 339
5642 27
6283 186
1088 337
3644 267
6850 310
1089 229
1096 229
1867 292
2636 229
4285 44
7306 230
8979 102
9006 36
1090 266
1283 266
5720 165
6207 266
6215 96
2086 184
6504 12
1092 7
2809 400
4733 7
5995 172
7697 133
9493 182
1927 262
3554 314
7648 262
1094 369
3460 382
5809 299
6026 369
6380 306
7943 98
1095 104
3713 104
4453 410
6800 104
6835 104
2685 229
4258 50
5661 21
5746 57
5879 229
1097 146
4889 310
5572 182
9701 103
1098 231
7844 231
1099 92
1512 77
1100 150
4387 150
4506 150
1101 68
2588 269
6251 270
6266 68
8270 131
1102 136
1103 225
3842 225
1104 122
1900 122
6321 122
6705 136
8245 122
1105 385
5985 385
8993 288
1106 81
2498 395
2972 81
6024 129
7468 125
1107 99
6315 99
6996 94
7404 245
1108 33
2239 284
6022 59
9031 132
5417 154
8002 11
1110 69
1391 69
4725 69
1111 27
2601 27
3684 140
4282 219
4559 27
5464 27
5679 27
1112 67
2346 185
4499 191
6039 23
8000 76
8083 67
8717 67
1113 239
4828 262
4943 75
1114 57
3908 383
7603 57
1115 215
4060 131
4338 191
6534 121
6604 215
1116 265
1843 183
5488 265
6715 273
1117 5
8900 5
4562 6
4688 299
7333 187
9128 35
1722 332
4209 273
9216 153
1120 391
1917 391
4240 49
4590 391
7093 133
4071 295
5685 295
6654 295
4368 122
4788 367
1123 26
1839 26
4810 127
5978 195
9423 26
9476 26
1124 66
2983 66
1795 203
7017 301
7229 301
9365 132
1126 10
1358 146
4396 334
5587 94
1127 100
2413 358
8786 221
6166 21
9024 21
1129 127
1166 406
3603 127
5496 377
1130 12
2450 225
3380 286
3955 404
1131 18
2393 85
7354 107
7370 18
9589 18
1132 198
1946 198
5134 209
5976 198
7109 18
8534 92
1134 290
4082 46
1135 104
3859 104
5222 145
9542 154
1136 305
5435 305
3733 233
8190 168
8397 239
8468 253
1138 62
1893 71
7524 62
1139 147
3817 108
9496 218
1140 103
2106 103
3743 103
5584 410
7478 46
8834 103
1141 60
1861 60
2772 365
3725 60
4608 66
5956 308
6983 180
1142 323
5577 323
6819 323
9599 3
1143 212
3001 212
3307 202
1478 49
1308 161
3248 44
3762 7
6091 44
7445 275
1147 321
1369 142
4230 230
7589 321
1148 4
3696 67
5448 87
3222 207
7909 280
1150 56
3548 274
3642 56
4265 373
7661 204
8571 20
9353 100
1151 85
2641 303
4598 308
6890 85
7085 85
1753 175
3337 113
6489 175
1153 355
2165 407
6168 355
6280 355
7301 355
1154 44
1660 44
2029 235
4180 44
9176 242
1487 46
6517 370
8042 152
1157 251
3879 251
4217 58
4465 394
5043 251
5279 363
1158 181
3250 39
4106 16
9102 11
1159 344
2486 282
2652 126
5480 119
8267 25
1160 112
2307 112
4135 112
5532 212
1162 142
3236 237
5443 312
5616 176
1163 228
1315 294
5628 228
6353 228
1164 139
6200 202
8341 288
1165 28
1209 170
5379 28
5501 315
6611 235
1886 215
2623 142
3053 346
2817 91
4414 36
7737 185
5135 182
9689 21
1169 348
1569 348
1170 360
8154 154
8159 207
2952 346
5752 98
6961 226
7060 296
9100 400
1172 301
4864 301
7291 314
3674 225
1174 392
5370 254
6398 392
1175 314
2569 314
4902 184
8801 55
8703 113
7719 204
8889 226
9284 348
1178 366
3573 366
3756 349
3904 366
7405 210
7599 37
1179 346
1717 303
2509 346
2532 169
8740 218
1181 340
7154 301
1182 182
2775 89
6569 235
7346 326
8186 113
8746 182
1183 192
2827 261
4938 192
2356 130
2929 58
8120 131
9857 58
1185 102
2867 329
4950 69
7743 102
8695 102
1186 1
6012 1
6818 120
1187 217
3720 217
8419 120
4131 180
4538 272
6673 9
7350 403
1189 409
1757 131
2248 87
3643 409
3924 409
1613 408
4827 411
5323 88
5782 267
1191 86
8901 78
5203 46
5551 359
6290 46
1193 18
8705 18
9733 333
3960 366
8051 63
5541 266
6635 266
7073 266
1196 376
2700 376
4346 376
4776 376
5449 55
5547 376
6110 322
1197 271
2066 185
3410 310
5436 341
6413 0
1198 382
3511 298
5884 382
7412 382
1199 126
3413 215
4842 126
9151 47
1200 409
1425 409
2534 165
3945 409
1201 343
1872 343
4486 46
8012 290
3220 48
6799 178
5831 241
1204 295
2354 295
1205 85
3245 85
1206 213
1551 136
5602 293
9233 213
9548 213
2611 39
2878 324
7741 92
8196 49
1208 321
3759 96
5344 6
1798 242
3231 98
3978 231
2223 296
4726 393
4972 340
6926 50
1211 268
5513 167
5921 268
6242 100
7025 268
7426 4
1212 364
1213 331
5875 331
7344 43
9394 195
5066 401
5517 1
5939 37
1215 254
1378 334
3521 221
6614 354
8199 34
8288 254
1216 202
3732 202
4271 63
8633 202
9497 202
1972 1
4593 76
1218 341
4868 311
6426 341
8101 55
1219 303
3968 303
7314 303
9261 19
9525 98
1220 320
2857 263
3843 314
4385 320
2304 262
1222 245
2834 245
7099 80
1223 311
1444 16
3860 139
4728 311
4880 348
6880 311
1650 238
2469 358
1225 88
3976 88
5877 169
3535 114
6681 255
8932 255
1227 191
3155 60
5908 191
1229 126
1441 91
1985 31
4283 291
1230 359
2306 296
3260 254
5223 359
4671 44
8136 333
3310 291
4129 107
7053 242
3204 245
5000 61
8785 126
1236 405
4260 365
7464 405
7683 248
9110 152
3788 197
5073 102
5462 153
1238 219
1239 213
6320 213
8421 193
2807 40
7851 98
1242 314
6821 20
3890 30
4025 170
1244 259
2646 295
3531 259
6341 259
6661 259
7835 259
1245 90
4160 90
5544 265
6069 90
6632 129
7244 126
3601 137
4883 79
1247 410
2477 296
2619 122
3230 142
4672 309
5543 334
6067 410
6192 410
8428 410
1248 278
3000 107
5536 166
1249 390
1340 367
2073 390
2999 165
4443 390
1250 400
3900 407
4064 400
8165 400
2297 168
4732 127
6590 127
6532 226
1254 313
2017 145
3194 313
3608 352
5022 325
2504 35
3427 163
5481 44
9322 35
1256 204
1811 82
5775 252
8501 204
1257 329
3818 329
2886 50
3054 50
3116 50
8061 119
1259 328
4985 170
8218 290
9440 90
1260 329
8424 120
8462 299
1261 60
3177 248
5904 60
1262 116
1338 231
6605 11
7595 116
8243 116
2621 390
3763 49
4152 26
6412 78
7295 26
1265 289
2860 289
4145 90
6704 320
7186 364
8220 178
1266 379
2230 256
5695 379
6129 379
6211 379
6511 60
1267 265
4994 49
5143 264
2032 375
6287 345
8544 76
3378 146
3654 327
4231 125
8109 91
1271 184
8436 91
8749 80
1272 142
2335 60
4567 142
5502 196
5673 142
9107 169
1273 84
3328 59
5289 290
6344 84
1765 57
2181 48
3457 48
4426 68
5711 297
8625 355
1275 71
1803 340
6727 71
8344 71
1276 266
2315 221
2438 60
8399 178
1277 253
3946 68
7803 253
1278 220
3567 92
7076 220
1279 170
1782 41
2333 231
2904 170
5146 161
7485 170
1280 42
1724 42
4329 228
8316 42
1281 92
1472 92
5821 55
6676 344
8735 92
1282 141
2854 183
6595 101
6670 233
7536 141
9054 353
1903 328
6345 266
1284 227
2392 278
6158 89
1286 286
3111 286
5296 107
6691 286
7515 203
9872 20
1287 88
5084 25
1288 113
1398 92
3973 280
4922 388
5814 253
9234 113
1289 178
1397 189
4408 313
6963 221
7170 34
2146 294
7091 374
1291 79
3464 347
1292 47
4829 199
6753 230
7376 93
1293 68
5846 105
1294 198
1766 198
2244 90
3052 337
3875 198
6627 327
9393 245
1295 23
2408 92
5050 20
5240 23
6598 23
6882 23
2990 1
4742 1
8947 57
8221 355
8957 79
1298 343
1415 274
1432 343
2332 287
3197 343
6653 320
7176 240
1300 319
7848 319
9743 293
5048 233
6314 349
7148 268
8539 288
1353 361
1664 244
1894 361
2452 201
3638 361
8729 141
6355 349
7560 349
1306 95
2282 95
6385 95
1690 255
2563 44
3102 362
9228 63
9624 63
2302 375
3106 324
4434 277
7744 159
1311 402
4923 102
1314 2
7949 2
8945 2
2162 269
3237 269
3820 269
5970 228
1317 266
5923 266
6698 58
1998 206
1422 83
1614 222
4137 338
1320 210
2520 99
5510 403
5558 351
7026 79
7257 24
8955 403
3224 145
3344 72
4026 343
7286 288
5217 129
7769 304
1324 227
4247 227
4433 22
4976 227
6043 353
8640 245
1326 27
1844 27
5941 27
7710 43
1327 53
1944 349
5640 74
1328 401
6433 401
7879 63
7956 151
9155 142
1329 367
5337 22
5796 367
6225 367
6528 367
6755 367
8107 218
8222 173
1330 51
2751 117
2822 227
3692 319
7885 34
1331 185
6167 224
1605 19
3354 139
7967 305
2994 167
6812 242
9674 242
8147 26
1336 224
5392 15
8269 327
9022 5
9945 224
1337 92
2439 92
6040 100
8137 92
9117 231
1339 351
4924 100
4954 290
1341 157
3889 186
6174 156
7908 153
3614 19
4016 19
4744 98
9287 19
1345 42
6578 296
6777 42
1346 341
7068 60
6396 249
1348 382
7334 382
8456 382
1627 329
7174 367
7342 55
7320 103
1548 269
3294 152
1467 47
3841 274
4541 361
4832 361
1354 71
2169 341
4182 255
4703 84
1355 187
1530 397
5099 187
7439 187
4112 125
9463 267
1357 266
5044 19
5161 266
1835 81
3424 146
4114 59
4901 146
1360 170
2012 85
4084 170
1361 333
1362 387
1454 387
3926 387
4166 230
6055 387
3667 267
3681 186
6760 44
2069 197
5596 57
1367 99
5504 31
5958 63
8849 138
2964 195
4170 345
7503 370
6490 135
6732 43
7082 116
8440 101
6854 214
9596 195
1375 274
4466 274
6076 156
1471 140
2159 140
4456 76
1380 204
1381 146
5201 146
1382 46
7371 163
3771 90
8317 131
1384 332
3300 74
3778 332
2083 137
2189 29
7711 36
1386 375
1840 144
5426 46
5731 187
6877 375
6928 353
7447 402
3497 0
2426 144
7755 310
2777 44
2838 376
4652 362
4771 40
5088 369
1390 162
7639 162
3801 69
4630 59
1392 142
7022 142
8015 166
1393 194
1506 39
1560 83
3840 177
3906 44
1395 353
7651 353
1396 200
1785 200
1658 46
6001 63
7496 189
9520 92
1637 60
3416 222
5295 299
5887 299
1979 200
4912 265
4991 200
9374 49
1401 108
7416 337
9800 245
1402 36
7230 242
1404 261
1405 254
3988 163
4663 105
3829 6
2797 100
6137 195
1408 142
1494 217
2198 24
1410 22
2761 22
3951 216
6054 326
2821 126
4797 126
8031 126
2640 302
4784 314
9157 273
1413 7
7955 355
1414 357
2790 365
3011 274
4983 403
1416 217
5361 139
6230 217
2141 376
4479 376
4825 152
1418 158
2252 158
3728 319
7735 213
2053 242
1420 400
4637 232
5781 232
7263 204
1748 90
4470 325
1423 292
4193 123
5225 195
8560 292
1424 249
2351 107
3886 100
4226 249
4229 126
7489 249
6448 326
7739 110
2023 143
3047 44
4790 18
1430 404
6713 118
7462 404
8934 404
9178 404
1431 170
6667 296
2016 343
2059 71
1649 120
1434 119
7330 119
2415 163
2905 155
5816 142
1436 169
1882 0
7049 202
9248 169
1437 328
3914 3
4058 328
4941 328
6587 16
9150 16
9616 16
1439 123
2172 197
4911 123
8518 123
1440 90
3212 286
4289 91
8172 91
1442 332
1976 33
5214 100
2390 290
3021 290
3587 145
1445 260
2555 229
5070 163
8049 161
2409 98
1447 102
1448 262
1752 262
5349 262
1449 36
2680 2
3241 81
1450 350
1451 107
3785 107
1452 55
1453 153
3043 153
4677 153
4845 131
9149 153
9301 278
5727 387
9740 31
1456 220
5634 293
1457 303
2538 303
5157 308
9084 293
2979 165
5598 92
1977 235
7079 21
7056 230
8297 8
5330 330
5555 100
8007 123
1463 91
1987 0
3523 91
6457 351
1495 180
6680 398
8710 16
1465 6
2924 359
8360 121
1466 210
4464 202
5649 210
6031 74
5431 47
1470 207
9386 207
9392 20
2629 381
6589 238
2833 315
3837 20
1474 72
5786 72
9670 72
1475 219
2344 63
6420 167
7652 22
8059 22
3087 49
5799 193
6249 91
1479 299
3420 134
3717 299
1480 155
5553 155
4758 94
4962 94
1483 193
6182 124
6571 193
1484 163
6271 27
6601 235
8708 126
2895 63
5427 195
3400 112
5680 286
1639 395
2251 284
4664 405
6406 396
4984 348
8151 245
1491 130
9633 169
3061 103
4611 387
8776 49
9850 103
1493 10
1789 57
1793 110
4579 397
9877 10
2140 184
4324 63
6634 217
8665 44
5375 45
9060 180
2430 365
5742 111
5788 381
1497 49
3668 49
4481 57
5057 262
4646 276
6196 16
1499 243
4656 258
4212 282
9593 277
4805 284
5123 27
1502 224
4036 224
1503 270
3326 170
5414 90
9154 270
4400 355
1505 86
2049 86
1507 220
1990 169
3179 301
4554 20
1509 392
2364 282
2881 369
2195 6
2350 273
4682 198
4549 317
5085 138
3751 21
5075 26
5790 312
2738 99
7144 65
1846 73
1515 200
1516 4
7548 92
7961 301
8331 45
1518 92
2736 92
6121 92
6138 92
1519 152
1547 307
6722 152
9249 152
1520 241
2500 186
1521 296
1523 310
3254 310
4188 234
1525 375
3126 63
3171 216
7869 20
1527 329
3483 329
4336 20
7469 250
7775 16
1528 233
2799 221
3512 125
1784 202
6060 406
4325 81
2746 381
3074 188
3355 66
6093 95
8965 381
3473 398
6776 398
7600 293
1533 127
4125 92
6557 78
3209 57
2276 179
3574 100
7904 179
7930 31
1536 39
6834 39
1537 194
3723 55
1538 253
2182 342
2873 253
3312 328
4740 404
4996 242
1604 318
3121 206
1540 139
2487 139
4158 216
1541 142
2985 135
4312 336
4858 70
8783 142
8806 142
7228 42
4075 263
4979 270
6630 139
1546 396
3123 386
7284 49
7778 20
2091 168
4884 147
1550 84
3529 352
5461 216
8657 80
7556 308
8200 322
1552 63
2013 198
2377 308
3158 63
3289 63
4042 253
9318 398
1555 72
4377 91
2296 64
4369 239
7533 177
8557 64
4480 14
1561 84
3275 281
4814 248
8649 55
7773 36
4724 126
3687 349
5818 131
4616 188
1959 229
2222 288
1568 135
1716 259
5472 142
1680 287
2913 348
3619 303
9671 348
1570 88
5665 44
9218 349
5189 184
5601 173
8566 187
1573 397
6716 186
3085 247
6853 247
1575 76
5500 18
6840 159
9683 57
1577 182
3931 327
5909 245
1578 130
8944 130
3481 229
4576 404
5594 309
6972 309
1581 43
7977 43
3627 361
1583 173
2808 7
3943 199
6899 365
8666 173
1584 395
8522 333
8970 44
1749 88
5719 273
1586 79
2423 389
6689 36
1587 315
3836 315
1588 253
1995 232
4280 325
4615 325
4731 325
5940 325
1590 55
2977 233
6981 91
9215 403
7929 2
1592 403
3343 51
6323 269
1593 8
3145 40
3520 8
5891 153
7518 28
6198 205
4344 205
8627 165
1597 136
2314 268
1598 305
4678 29
1599 154
4066 39
1659 124
1703 33
8700 20
1601 309
5127 309
6864 125
1603 189
1920 189
2367 50
3118 10
7198 167
6945 19
1607 316
8556 296
8628 78
3883 230
7368 131
8472 81
1609 250
1783 77
6918 250
8480 288
1611 130
2176 130
2635 154
3661 92
1612 22
6148 229
3867 67
3418 222
4440 195
7841 378
1615 331
2765 199
4702 38
1616 208
8418 208
1617 44
5549 400
1619 180
2546 58
2897 145
1620 186
6817 31
5470 84
8043 2
1623 242
2851 398
6486 248
4102 322
1625 119
1626 355
7877 355
8828 355
5947 166
7386 60
8028 404
3633 328
5082 211
1630 258
2484 278
6624 39
6530 166
1635 189
2606 189
5281 113
1636 142
2336 63
1638 411
2488 411
5245 411
3492 395
1640 132
3703 145
3845 60
4612 225
6844 238
2357 227
3525 178
3959 293
4930 205
8600 293
1924 215
8992 83
7821 118
1647 9
6846 90
8820 9
1648 364
4044 79
2865 41
5442 294
6773 266
6269 238
7110 238
2410 301
3351 339
4034 301
1652 232
1653 10
2729 231
3985 10
4259 18
4531 113
1654 247
3020 247
5343 273
6438 79
1656 3
2735 24
5519 46
2241 142
9774 21
1661 11
5929 125
2157 90
3981 400
2558 244
8145 31
9163 100
1665 75
6469 84
7453 119
8575 304
1666 35
3454 35
5633 210
8910 20
1668 268
5069 51
8386 268
1669 412
4287 412
8823 107
4904 336
2576 138
3590 1
5659 113
6677 386
7300 218
1675 354
4012 127
7138 177
4027 346
1681 134
3965 373
7296 187
1682 92
4478 61
5055 230
5137 92
6500 331
1684 19
6658 19
2081 63
5858 216
1686 301
3075 301
8246 301
1688 166
3246 127
9202 326
4127 246
1912 115
3504 134
1691 369
3370 369
4134 49
1692 307
5098 375
1693 195
2139 195
2257 108
5793 333
8614 15
1696 172
2841 285
7192 46
4375 112
1699 39
2389 133
3930 209
8922 63
2240 365
1702 380
1770 44
4432 14
4713 312
6615 4
1704 197
5803 195
7887 197
7895 197
1705 54
5635 54
1706 13
4812 394
1708 104
2779 304
2875 104
3662 25
1709 260
2475 260
5320 213
1710 271
1890 126
8430 69
1712 381
7626 159
1714 348
1715 214
2334 259
4647 303
8870 306
3090 1
3097 49
6946 330
1720 211
1734 122
1721 39
4908 235
5287 46
8170 39
4311 19
2437 348
3206 412
1726 363
4490 363
7168 284
1727 245
3887 245
8531 245
9159 245
1728 58
3383 246
4782 297
3634 176
3880 169
5416 89
1730 223
6906 223
1731 161
4475 131
1732 312
4164 387
2493 101
7155 101
2057 122
2792 205
1735 184
3445 38
2360 230
3208 350
9193 99
3761 336
1739 49
1740 260
5943 64
1741 98
3984 71
7157 340
8207 98
2960 364
4268 402
4462 298
4917 203
2274 64
5745 374
6674 70
1747 158
5432 158
6619 342
9917 90
3563 398
5242 253
2714 10
7451 73
1751 239
2747 410
4460 375
2213 262
2429 334
5153 262
8747 20
5015 0
6441 175
6564 264
3474 216
7403 299
1755 226
2610 23
5779 226
7102 153
1756 15
8995 15
6512 195
2981 354
3384 249
4706 247
2309 30
2376 194
4657 245
1763 234
6253 142
1764 2
4000 191
5718 194
3314 57
7390 233
8642 321
4045 215
4461 215
3932 114
7265 49
6706 218
6917 226
3734 44
9537 44
1771 8
1772 256
2095 57
1775 279
3196 333
6066 281
2007 171
1777 250
1933 163
2911 250
6049 71
8324 90
8393 131
1869 335
4563 69
4920 305
1781 292
5729 367
2288 41
4894 179
5732 41
2235 194
5250 194
6580 91
4998 39
1786 136
1787 383
2313 193
3857 28
4915 383
7890 383
1788 129
7440 129
1792 77
2068 93
4234 354
4803 195
8578 195
4454 359
1796 347
2303 41
5115 129
6154 59
2449 303
4669 94
1799 382
1973 382
1800 154
6702 225
7255 292
1801 259
3069 38
2124 246
5965 398
6231 395
9007 403
2598 340
2769 340
6695 25
5060 93
5829 42
3740 93
7433 150
8471 306
1807 217
3484 80
1808 168
5282 340
3997 96
5996 57
6814 54
3013 82
4978 201
1813 204
3871 403
6896 92
1815 293
4648 236
5339 178
6015 82
9271 228
1818 402
2479 86
5274 370
1819 160
3665 160
2669 271
3938 97
4155 344
2217 225
1822 92
2407 125
5398 69
1823 14
4358 38
3249 66
1825 366
1826 68
4853 309
6774 63
1827 205
9938 205
2061 38
7227 159
2460 282
6379 175
3806 174
6434 404
1832 192
9375 81
1833 164
3406 164
4953 164
3422 404
6382 265
7432 245
4416 372
1838 133
6622 26
3666 166
1841 317
6263 317
7460 317
3636 221
3689 154
1845 80
5341 229
7499 80
2894 73
4539 63
4315 399
1849 126
4253 126
4451 275
6688 285
4916 55
2935 304
2034 71
1857 200
3295 200
1858 338
3679 338
5658 251
8295 34
1859 353
4491 159
4513 353
1860 186
2056 379
6608 163
3453 369
4926 101
1863 166
2802 166
3356 333
5757 333
1865 153
2386 153
6152 184
1866 391
4665 4
3575 83
2348 378
4882 72
4939 365
1871 22
3039 22
6111 26
4855 343
5154 8
2781 285
6579 372
1875 175
2214 9
3664 395
4992 283
6375 175
1877 392
1878 286
2705 286
3019 286
4350 289
4110 273
6405 126
2044 264
1883 117
2782 117
1884 311
2737 311
4419 155
7058 311
1885 240
7669 349
3607 160
7491 26
3352 253
2505 332
3814 86
8894 310
1892 106
5254 71
5798 57
1895 207
6652 207
1896 380
4366 180
5307 326
6910 380
7267 380
1899 111
2290 111
4021 224
6446 248
1904 154
2580 281
2778 326
3041 224
1905 186
4236 291
3912 27
4840 377
1907 176
2902 176
5301 97
1909 131
1910 21
1911 302
5697 216
7437 408
1914 90
1916 88
2749 327
4577 270
6920 176
4974 218
5237 67
4090 373
4601 270
6662 170
1923 343
5563 89
1925 13
3891 304
1926 294
3068 269
6599 262
1928 5
7926 5
9126 5
1929 213
4237 355
5610 167
8013 351
8829 166
1930 164
3503 57
4371 164
8395 60
9258 142
1931 340
1932 65
2533 64
1934 193
1936 280
3697 280
1939 92
2694 92
1940 216
3901 349
4076 59
5546 134
2218 43
2805 292
3144 375
1943 98
7663 98
2077 267
6252 349
4934 150
5209 118
1968 198
7394 198
4409 321
6901 370
1948 31
9426 31
1949 203
2382 259
1950 122
3719 39
2883 105
3067 252
1954 374
3894 83
4856 398
4427 377
1956 398
6779 398
6783 185
7024 98
6427 161
1958 50
5096 50
6312 50
6750 31
2260 349
5170 83
1963 249
6808 315
7584 106
3477 90
2283 169
1969 179
1970 137
3223 137
3433 288
1971 28
9195 322
2898 49
5608 226
7521 382
2704 345
3153 204
4284 222
5371 165
3695 25
3941 199
1980 338
3278 338
8017 133
9090 290
1983 3
3953 322
5987 122
1984 12
4844 174
9026 31
1986 149
1988 387
3622 310
3888 387
6389 67
1989 365
3450 13
5487 365
4319 104
4397 312
6561 72
1992 279
3675 361
1993 302
1994 385
2654 90
2113 30
1997 114
2385 245
1999 254
2946 50
5421 254
2000 188
2001 238
2734 407
9302 57
8146 291
2004 372
7631 372
2006 346
4739 379
5666 288
6552 179
3547 168
2010 400
5118 231
5585 126
2011 308
3855 31
3907 152
5678 102
9183 166
3129 85
2725 198
2014 175
5973 43
7015 6
3297 145
3348 259
4361 145
6772 257
7243 195
2644 253
2024 142
2025 87
2096 87
2656 87
2027 63
7397 10
3062 276
4154 364
3317 235
5244 261
2031 17
2638 296
3712 17
2684 50
2909 173
2744 69
3277 216
7624 134
2037 366
2038 24
5314 24
6613 310
2040 196
2041 321
2642 285
2670 28
2043 214
8846 214
9981 120
2384 264
6970 230
7517 264
2045 283
3262 283
6222 21
6484 16
7164 283
2225 69
3975 275
5728 249
2359 401
3146 114
8679 195
2050 368
2819 92
3699 226
2253 227
3198 295
5660 379
4474 82
2058 378
7513 48
3539 38
4787 49
5854 174
4162 71
4931 300
2065 383
2564 383
4614 39
6410 16
2375 369
6388 202
4764 93
7534 230
2291 356
4676 42
2070 115
2866 227
2495 336
3949 270
2681 26
7059 80
2076 356
5388 356
5961 157
5394 13
4352 308
2082 319
2087 228
8873 293
2085 158
5286 63
2937 281
6338 214
2088 72
3099 50
2089 273
2843 361
2090 133
2226 202
3956 276
4322 168
8412 168
2093 19
4542 79
5589 81
3180 87
5447 359
2098 370
2099 193
6485 193
2100 96
2381 195
2102 118
2786 90
3409 118
2593 165
4107 57
2104 349
3167 254
2108 311
3628 311
5107 230
2110 44
7235 76
3915 14
2112 229
2539 229
6430 102
2114 365
4895 57
2116 88
2117 371
2158 157
4870 78
2120 362
5483 367
3018 212
2650 240
2832 77
2125 204
6642 322
7801 322
4574 285
7043 350
2130 194
6725 337
2582 48
4516 336
4640 196
6319 60
3648 1
6769 277
2920 131
4459 405
2137 273
2961 239
2742 29
3431 29
5412 96
7123 184
7037 2
2143 378
2144 281
4367 281
8499 281
5304 62
2148 292
3290 354
2149 195
3868 121
2152 10
4885 80
6373 249
2155 205
4697 19
6073 44
2156 163
2557 90
2634 90
3027 150
4625 157
8191 90
7543 152
2317 374
5354 286
3582 121
2166 46
3159 46
5164 260
2168 25
6985 142
4710 307
6636 129
2173 97
2709 240
2174 270
5688 112
7587 249
5525 130
2178 79
5656 63
6898 348
3298 39
6084 342
6506 60
2184 107
2718 0
5348 107
2186 162
2560 162
2187 44
7833 268
2932 172
4083 29
2190 375
2245 161
2193 98
4841 22
6415 197
2958 281
6186 49
2918 44
6826 118
2284 172
2197 112
3571 112
4122 112
2200 5
2436 5
2201 377
5396 260
4190 151
5467 67
5239 152
3287 64
5199 75
2205 208
6241 208
5862 233
3775 197
2209 273
7849 125
2624 109
3010 262
4545 262
6848 257
5537 168
2434 339
4059 226
7592 6
2795 43
2219 49
7150 37
3156 288
9691 288
2224 215
5528 126
4811 256
6488 257
6793 293
6978 80
7362 293
3974 54
3560 359
2234 155
2754 155
4056 107
8330 239
2236 63
4421 365
4362 108
6286 207
6130 183
3803 183
5331 6
2242 314
3401 283
5434 299
2246 65
2966 305
4267 21
4390 284
4679 87
7199 290
2250 102
4033 196
8562 102
9666 102
2352 19
3174 149
6135 32
2255 237
6989 92
2803 25
9881 21
2258 334
3659 169
2259 341
2383 384
7991 36
2263 146
4199 261
2264 186
3229 186
5052 153
2265 31
2973 11
5861 225
2268 101
2566 101
2724 101
4527 178
2269 63
2270 363
4837 127
2272 188
2556 153
2301 283
4345 356
5012 9
2974 87
2279 49
5104 234
4875 146
3456 9
4989 95
5725 95
3148 400
5152 195
5876 167
2720 359
4139 263
2287 330
5550 323
5906 330
7046 46
2289 224
2328 56
5402 111
5433 92
2292 182
2293 275
6424 45
2295 166
2412 128
8411 166
6016 91
2298 151
2300 59
3709 59
7913 55
5693 107
2892 50
5889 154
4186 136
4862 152
7572 125
3240 123
2311 250
3369 202
2312 369
7583 300
5930 273
5580 374
6466 236
2318 52
6250 52
2320 353
6547 54
3541 98
4761 124
6940 39
2324 281
2462 19
4773 32
4779 328
2325 32
3008 112
5035 63
2327 126
3377 56
2329 350
2330 129
2967 270
3777 64
6240 216
4645 287
4200 231
2984 68
4933 96
3558 188
4222 314
2535 34
2343 19
3663 19
4980 27
2345 208
2676 179
3264 390
3682 367
3896 78
4299 47
5419 283
6256 194
2349 358
4005 44
6101 19
2353 306
9303 306
3119 242
2355 212
4836 212
3472 227
2358 142
2813 211
6481 133
2361 257
8450 2
3767 49
5235 322
5843 107
7992 300
2370 49
4589 321
2679 194
3199 160
3462 126
3292 263
2379 342
4120 405
7479 72
7607 327
8863 2
2387 2
3065 390
2622 215
2391 326
6537 0
5151 281
2395 353
7993 165
3031 371
4548 371
8247 210
2398 149
5479 407
2399 82
3816 82
6600 83
2400 275
2404 218
3827 196
2432 295
2672 16
7400 125
3485 92
2461 98
6071 228
2513 159
2906 358
2414 116
5687 357
4770 163
2416 116
2417 176
2419 161
3933 37
2829 345
3091 400
3527 389
2425 224
3804 141
6429 394
2427 337
2428 249
5787 45
2433 245
5178 245
4128 355
5405 359
5538 339
2517 22
2587 26
3947 106
4002 344
2726 205
4792 13
6949 81
2907 254
4053 325
4087 86
2453 151
5105 230
2455 317
7670 20
2458 4
4202 361
8951 142
6329 407
6159 107
6930 9
8125 150
8366 49
6641 236
2789 36
4211 317
6361 344
3316 362
2559 86
3844 188
6570 90
2915 349
7373 139
2949 411
4755 92
5826 83
6567 180
7224 92
2671 364
3850 57
2870 92
3332 349
7605 230
2868 212
6551 45
6740 340
7934 166
2502 32
2991 333
6686 207
2503 132
3927 106
3163 1
3428 332
4220 315
3522 124
2512 44
5440 344
3704 250
2516 361
3187 361
2518 36
4819 27
3990 207
2522 261
3632 261
2523 13
5730 123
6254 113
2524 199
2525 253
2794 328
2527 95
3466 245
7668 373
2951 273
9473 58
3169 288
2536 59
3750 59
4310 26
2540 334
2543 372
3086 372
6754 150
3066 157
4723 24
7302 24
2550 125
7081 300
2552 272
2554 113
3979 380
2662 229
3613 91
2903 162
3476 310
5407 101
8379 113
2573 21
4149 333
2579 241
4714 135
5176 39
4995 124
4425 17
2630 346
6275 124
5581 236
2590 299
2592 347
3029 154
3958 312
3266 38
3025 74
2596 309
3970 309
5184 25
4391 123
7990 47
3673 179
2603 340
4754 126
5772 201
3899 203
4198 126
6631 96
2616 350
2618 131
7152 35
2625 124
7784 124
2626 187
2627 131
3404 35
3916 40
4395 346
2783 229
3737 9
2645 68
4737 68
6103 224
4255 295
2939 357
2648 398
2651 25
6421 68
3181 210
2976 75
4982 340
5032 48
3542 138
7817 46
3228 259
2659 239
2661 51
2663 15
3749 304
3125 295
4789 35
2668 169
3747 162
4910 278
5404 363
3772 114
2677 331
8505 156
4794 355
2721 345
4054 229
2686 37
2688 156
6723 169
2691 20
7882 207
6711 165
2695 101
2696 381
4817 221
8050 281
5064 376
2702 6
2708 105
2953 105
3057 219
2713 299
8641 80
2715 330
5641 60
7236 360
4485 123
3388 234
6960 187
2722 302
7828 156
3576 81
5112 101
4147 76
2730 391
4314 146
3101 254
6476 148
2739 10
8760 113
5175 53
2741 114
3846 333
3443 24
3273 228
6855 20
7873 69
6541 403
5839 410
2748 206
3104 224
5257 3
4393 327
3070 304
2752 176
7980 400
3870 130
5912 25
2768 168
5006 4
6432 168
2770 38
2774 10
5482 142
4239 57
7402 177
3124 304
2784 291
5093 129
4449 145
3545 254
4153 205
5166 157
3438 67
3036 228
5575 205
2793 79
8091 226
4617 43
5363 296
2798 270
2801 380
3162 55
6041 33
2812 166
6838 310
6876 92
2823 195
5857 195
4023 111
6596 280
4407 399
5437 277
2970 110
7799 142
2835 115
4606 75
2839 255
2840 376
2842 87
3500 361
2893 274
7205 121
2846 54
9381 63
3526 246
5121 398
4262 28
2858 379
7095 68
2869 355
2871 326
2872 356
2874 19
6056 320
4757 25
2877 74
6731 74
5758 324
3881 233
3347 369
5706 369
3009 254
2889 265
6259 265
3630 389
3028 213
5346 37
6083 46
5785 197
4468 254
2908 77
2912 37
2914 313
3805 313
2917 175
5836 347
5319 277
2921 137
2927 61
2930 360
6020 121
2931 351
3714 351
2933 277
2936 301
2938 149
4705 44
6494 211
2945 98
3652 300
8451 231
5992 0
2962 320
2968 232
3319 168
5460 81
2980 80
4341 354
3921 20
3423 113
3742 78
2995 312
7122 244
6792 279
3003 63
3760 63
5285 63
5009 74
4809 262
3017 249
3022 136
3577 283
6347 107
5859 37
3033 302
4235 20
5582 291
6915 275
3105 82
3055 310
6820 310
3058 279
3393 84
5542 46
5045 304
6371 20
6228 49
6749 290
4760 185
4540 396
3080 348
6478 131
3942 18
3991 34
4715 5
7733 178
3094 92
4965 218
3519 63
4988 39
3103 228
4654 207
4018 374
6847 218
3389 236
4272 293
4877 386
6117 92
4184 276
3811 302
4151 259
3133 201
3134 34
4607 238
3137 67
5150 107
3141 43
3629 118
5317 194
3154 260
7487 275
3892 60
5129 309
4185 224
5373 109
3165 301
3315 254
6565 46
3173 126
6331 20
3191 23
3192 117
4476 24
5671 313
5486 160
3202 378
3205 274
4673 398
3217 79
3218 19
3929 21
3233 125
3238 314
3239 264
6475 319
3279 127
5895 45
5578 121
3252 68
4551 68
3253 236
3995 39
7240 225
5527 365
3263 58
6721 113
9370 321
3309 316
3935 65
3281 10
3671 288
5267 370
6581 174
4091 390
3302 167
3835 292
4857 177
3322 132
3325 378
6868 349
5429 92
8019 267
3340 68
4471 94
7577 92
3793 369
3350 21
3936 339
3357 26
3786 103
4223 57
7185 3
3367 290
3746 380
3429 141
4523 98
3396 58
3449 148
3399 305
4971 169
3787 49
5406 278
3425 246
3435 92
3442 179
4727 179
5696 76
3448 76
6543 48
4736 366
4339 98
3752 347
3465 59
4348 59
3468 36
5712 84
4502 90
5092 310
3478 277
4747 297
3488 392
5932 102
3495 175
4997 402
3612 320
5031 2
5615 169
6548 134
3508 15
3510 393
3513 238
3514 121
7388 121
6482 244
6806 257
5046 370
4404 361
3532 317
4878 39
4484 325
3549 398
4553 191
3794 81
4694 330
5053 142
3583 391
3591 81
4039 80
3593 250
3597 141
3598 74
3604 296
3718 16
3611 123
3615 44
4530 165
3623 175
3625 170
3626 273
6318 311
3635 245
6953 405
4780 21
5204 20
3966 276
3669 382
3677 17
4818 323
4040 226
3969 54
7075 280
3710 407
4670 75
4196 25
3893 394
4786 12
5236 292
5972 139
3722 34
5030 39
8211 33
6096 319
6395 142
3735 31
7724 78
4521 277
4595 202
7297 39
4150 177
3795 381
3796 221
7271 60
4192 392
3822 210
5094 91
5174 197
4003 228
4610 383
5897 207
3865 57
5357 72
3884 89
6187 360
4175 23
3897 214
4088 98
3925 205
4263 3
5216 291
4450 230
5825 166
4846 372
4509 211
4017 100
4300 69
4381 46
6767 231
4068 404
4077 387
4092 381
4095 73
6508 322
4183 94
4133 261
4143 240
4179 217
8822 151
4609 203
4206 173
4213 357
4276 121
5936 73
4274 320
4298 81
5669 90
4447 67
6080 48
4496 0
6683 218
4573 153
4380 39
5506 126
4394 225
4887 355
4505 58
4821 260
4422 197
4463 221
6125 187
6081 408
5128 188
4668 321
4808 90
5631 238
6805 63
6510 273
5400 118
6829 208
5834 193
6719 80
