1 0
337 0
1331 1
1671 0
2878 0
4407 0
4776 2
5134 0
5153 0
5798 3
6353 4
2 5
239 5
1378 5
1491 5
1596 5
2113 5
2884 6
3849 5
9038 7
9118 8
9324 9
3 10
1023 10
3253 11
3466 10
4908 10
5254 12
5800 10
5873 10
6427 10
7453 13
8517 14
4 15
2559 15
3063 16
4424 15
5507 17
7317 18
8979 15
9047 15
9116 19
9591 15
9646 15
5 20
2253 14
7847 20
7879 20
8339 20
8371 21
8526 20
8554 22
8568 20
8811 20
9735 23
6 24
1990 25
3805 24
4061 26
6744 24
7818 24
7875 24
8125 24
8449 24
9700 21
9864 27
7 28
737 28
818 28
1203 28
1920 28
2583 29
4800 28
4915 30
4962 31
5195 28
8539 22
8 32
3485 33
5401 34
7086 35
8670 36
9278 32
9586 32
9595 32
9659 32
9671 32
9695 32
9 37
1275 38
3666 39
5889 37
6331 37
6394 37
6535 40
6874 37
7376 37
7686 37
7796 37
10 41
1652 41
2173 41
2665 42
2869 41
3169 41
3973 41
4104 41
8576 7
8845 43
9287 44
11 45
2876 45
2877 45
3335 45
3564 45
3954 45
5087 45
5963 46
7202 47
7430 48
9439 49
12 50
152 50
1854 51
3121 50
3199 50
3203 50
4661 50
4870 50
7400 52
8128 49
8894 53
13 54
1806 55
7691 54
7739 54
8087 54
8228 54
8396 54
8507 54
8859 56
8976 57
9316 58
14 59
1932 42
2548 59
3487 59
4030 59
5124 59
5423 21
5877 59
6094 59
6260 60
6401 61
15 62
28 39
5137 39
8797 63
9347 62
9745 62
9798 62
9860 62
9887 62
9970 62
9974 64
16 65
349 65
467 66
484 3
2711 65
3012 65
3513 65
3876 65
5063 65
5183 67
8765 3
17 68
1802 69
1837 68
1888 68
2230 68
2457 68
2692 68
4396 68
4408 70
9788 21
9871 48
18 71
2037 71
2947 72
4214 73
5584 71
8263 71
8510 71
8512 71
8553 74
8661 75
8734 71
19 76
1979 76
2740 77
4742 76
6239 76
6322 76
6373 76
6870 78
7283 76
7533 79
20 80
2269 81
2370 80
4497 80
4890 80
4984 80
5282 82
5669 80
5770 80
8208 3
9102 49
21 83
128 83
597 83
1855 83
2451 83
3050 83
3694 83
4534 83
4672 84
9214 42
9563 85
22 86
1898 86
2228 86
2678 87
4333 86
4674 86
5033 86
5227 86
5594 88
5934 89
8475 73
23 90
232 90
995 90
1673 91
1708 92
2332 93
4085 90
4975 90
6332 90
6666 90
9848 94
24 95
2794 96
3219 97
5099 95
5515 96
6114 95
6370 95
6913 95
7200 95
7538 95
9142 53
25 98
518 98
3006 98
3592 98
3852 98
4094 98
4940 98
5496 8
5587 99
7947 3
9069 100
26 101
2605 101
4885 102
5682 103
7635 101
7929 101
8084 104
8161 101
8199 105
8720 101
8775 101
27 106
1247 107
3342 108
6415 71
8070 106
9349 106
9506 73
9568 106
9614 106
9963 106
9994 106
1095 39
1940 109
3647 110
5078 39
6715 111
7727 39
7961 39
8637 39
29 112
4518 113
7089 114
7109 115
7925 116
9341 112
9467 112
9742 112
9753 112
9885 112
9904 112
30 117
1077 117
1391 117
2106 117
2348 117
2996 117
3597 117
5422 89
5485 20
7865 14
9834 15
31 107
255 107
1296 118
1964 107
2314 107
3316 107
3401 107
3958 107
4065 107
4341 119
6128 120
32 121
4258 122
5223 123
5948 124
6364 121
7332 121
7501 121
7528 121
7551 121
7669 121
9930 125
33 126
1012 126
1595 127
2873 126
2924 126
3278 126
4468 126
4603 128
4667 126
7955 14
9228 52
34 129
146 129
6617 130
7034 74
7431 53
8254 129
8525 129
8547 27
8757 129
9320 129
9441 129
35 131
226 131
1869 131
2778 131
3043 132
3256 131
3458 131
3752 133
3929 2
5164 131
7990 134
36 80
589 80
5431 80
6045 101
8150 58
8930 135
9321 136
37 17
1364 137
2820 17
3247 17
3549 17
5416 17
5509 17
7496 138
8226 13
8954 139
38 140
2178 140
2851 140
2955 141
3644 140
3747 142
3766 140
4705 140
4819 140
5952 143
8971 135
39 75
2093 144
6999 75
7180 145
7259 75
7858 75
8137 75
8335 75
8490 146
9900 147
40 148
1261 148
2121 148
3627 148
3914 148
4115 148
5034 148
5722 49
5851 149
6354 39
6975 136
41 150
2108 150
6320 150
6724 150
6838 150
7243 7
7258 150
7881 150
9500 74
9914 151
42 152
1009 152
1810 152
3340 153
3409 152
3474 152
3753 152
3975 154
6098 152
9246 99
9481 155
43 142
552 142
1883 142
2384 142
2556 156
3329 142
3610 142
4456 142
5896 97
9371 3
9415 4
44 157
447 157
707 157
2084 157
3163 157
3166 157
4587 157
6008 158
6199 135
9079 60
45 159
95 107
675 160
1014 161
6639 122
8350 159
8468 159
9120 159
9336 159
9470 159
9472 159
46 38
946 38
1114 51
1189 162
3591 38
4410 38
5290 163
5425 38
6153 38
6407 38
6499 38
47 164
1318 165
2496 164
3391 166
4244 164
5013 164
5236 164
5482 164
5731 164
7191 167
9373 168
48 169
1160 169
1355 169
1890 169
2174 30
4084 170
6381 169
6642 169
7072 169
7480 171
7907 57
49 7
2201 172
6610 7
6782 7
7504 7
7862 155
8292 61
9520 85
9673 7
9750 7
50 173
662 133
2980 173
3855 173
5239 173
5488 173
5797 173
5961 173
6214 174
8817 132
9143 32
51 175
506 176
5931 177
7770 175
7789 175
7857 175
8873 136
8943 175
9085 175
9088 175
9699 49
52 130
316 178
1814 130
2045 130
3505 130
5104 130
5371 179
5887 130
7971 125
8261 147
53 7
4296 7
5294 180
6775 7
8091 75
9338 7
9547 181
9575 57
9601 7
54 72
825 182
1007 172
1784 183
2544 72
5472 72
5689 72
6547 72
6854 72
6947 72
9021 44
55 62
6001 184
6586 144
8299 113
9031 74
9125 62
9388 62
9418 62
9794 62
9895 62
56 185
1560 54
4283 185
4719 185
6367 185
6571 185
6624 185
6856 185
7648 186
8287 187
57 155
1143 88
6064 188
6695 26
7515 155
8502 155
8550 155
8705 155
8758 171
9801 155
9990 155
58 189
882 189
2568 189
3174 190
3587 189
4249 189
4412 189
4745 189
6786 146
8850 63
9632 52
59 191
1235 191
3631 19
3795 191
4001 192
4574 191
4941 191
5647 191
5935 191
8068 175
8557 64
60 61
4675 193
6369 194
6588 61
7203 61
7876 61
9124 58
9254 61
9285 61
9618 120
61 195
1037 195
2047 195
3305 195
3392 195
4448 195
5174 195
8986 71
9423 196
9643 197
9754 74
62 198
472 199
3557 198
5822 92
5970 200
7423 198
8322 3
8682 198
8723 198
8993 198
9107 198
63 40
2550 201
5969 40
6206 40
6869 40
6903 116
7189 40
7292 40
7343 40
8211 64
8769 202
64 76
983 76
1270 76
2352 93
5215 76
9343 203
9918 36
9999 136
65 204
141 200
842 205
5846 204
5909 204
6207 204
6257 204
7102 204
7455 9
8036 204
9837 61
66 164
771 164
1515 164
3046 164
6507 7
7872 85
9731 43
67 206
5119 74
7762 207
8731 156
9400 167
9405 206
9593 206
9631 206
9759 206
9894 206
9931 206
68 10
1621 208
5898 46
8094 209
8536 32
69 210
2534 210
3103 210
3702 57
3796 210
3881 210
3923 210
4147 210
4391 211
7636 212
8923 213
70 34
1602 69
4048 214
4831 34
4919 36
5249 34
5583 34
6221 34
6282 34
6606 34
9538 108
71 215
420 161
623 215
2874 199
3233 215
3596 215
3850 215
4075 49
6026 215
6290 215
72 157
2732 133
2798 157
2998 157
3127 157
3186 157
3869 157
4925 157
5185 216
9023 217
9806 108
73 75
1614 218
7452 75
7647 201
8167 67
8230 75
9938 13
74 219
1019 219
2143 219
2182 219
2268 219
3082 219
4268 219
5038 219
6988 18
7869 197
8332 220
75 221
1152 221
1716 221
1761 221
2144 221
4242 222
5693 223
5700 221
6120 221
6652 224
8176 201
76 225
2662 225
3149 225
3221 56
3269 226
3279 225
4192 225
4455 225
4702 225
6016 227
8455 225
77 228
1344 215
1541 228
3420 31
4303 229
6522 228
6660 228
7902 228
8056 228
8058 228
8135 96
78 230
86 187
564 230
2480 230
2672 230
2775 230
5277 230
6084 204
7532 230
7994 204
8640 43
79 231
1222 29
2265 231
2472 231
3077 231
3351 231
3775 231
4914 231
6825 3
7543 232
8486 203
80 61
1412 61
6242 70
6863 56
7508 61
8138 61
8258 175
8283 20
9841 61
81 233
325 233
2533 233
3056 234
3522 233
3989 235
5016 233
5752 233
6229 236
6749 233
9264 9
82 237
781 238
1363 239
4630 237
4735 237
5673 22
6081 237
6267 237
6434 237
7286 237
9313 73
83 240
1760 240
1961 240
2817 240
2961 240
3198 240
4225 240
4687 240
7728 241
9011 43
84 242
1262 242
1326 227
3159 242
4622 242
5146 242
6066 242
6174 242
6968 243
8231 244
8857 61
85 245
784 32
2276 245
2785 245
4349 245
4792 246
5712 245
5939 245
6518 245
9229 247
4710 238
4905 248
5937 187
7150 187
7195 187
7226 187
7445 187
7632 125
87 249
215 249
279 249
873 249
1104 249
1110 250
2602 249
4802 249
6344 251
6759 79
88 252
357 252
2391 252
2969 252
3662 252
3778 253
4560 254
4580 255
5079 252
5317 252
89 51
1368 256
1646 257
3402 51
4531 51
6048 51
6146 51
6418 51
8310 203
90 44
6986 9
7042 44
8393 79
9147 44
9393 44
9580 44
9821 94
9892 44
91 258
514 258
537 258
1681 258
2591 258
3368 258
4617 258
8097 64
8359 53
9299 8
9923 146
92 259
1771 117
2189 259
2664 260
4259 259
4612 259
4684 259
4746 259
4822 259
6623 244
7486 8
93 133
1527 133
3076 133
3092 133
3804 133
5011 133
6043 256
7175 74
9284 261
9969 247
94 262
1313 20
1425 263
8264 264
8392 21
8482 262
8629 262
9519 262
9694 262
9737 262
9772 262
7740 223
8588 265
96 266
3419 266
3535 267
4108 266
4871 266
5053 266
5780 266
5900 266
6481 52
9648 3
97 124
6063 268
8361 124
8377 124
8395 269
9406 247
9411 124
9475 48
9658 124
9920 124
9958 124
98 270
1559 270
2050 270
2910 270
3952 270
4155 270
4354 270
4401 270
4626 58
6579 271
7117 270
99 272
714 272
765 272
798 272
1649 272
3237 272
4562 272
5442 273
7044 246
7889 111
100 274
2211 274
4555 274
4942 275
5490 274
5908 274
6015 274
6123 12
6894 274
9100 276
9480 21
101 143
4953 19
5265 54
6247 143
6515 143
6760 143
7035 277
7760 143
7957 143
8085 143
8370 42
102 191
4184 191
4880 191
8994 74
9152 100
9944 60
103 188
259 74
1567 188
3105 188
4117 188
5206 188
5708 188
9487 132
104 278
965 231
2957 278
3218 278
5411 278
6497 278
6597 278
7250 278
8112 279
8191 146
9845 120
105 280
812 280
1345 280
2354 280
2388 280
4378 280
5127 63
5468 280
5571 281
9440 67
9692 196
106 282
1126 283
2402 113
2422 20
2507 282
2681 282
3014 282
3998 282
4157 282
5683 282
8931 247
107 284
1051 256
2088 32
6233 284
6728 284
7451 209
7583 284
7870 284
7999 284
8076 284
108 252
288 17
941 252
1161 285
2890 55
4469 252
8633 286
109 287
1294 287
1422 288
3410 149
4138 287
4606 287
4794 287
4883 287
5513 287
7479 289
9774 100
110 290
1139 290
4912 279
7275 120
7284 290
7668 106
7779 290
7921 290
8035 290
8063 290
8277 27
111 291
886 291
1699 159
4326 291
4722 291
4866 275
5340 23
6936 291
7265 291
7390 291
8868 7
112 166
686 166
2597 166
4377 166
4634 166
4958 166
5579 166
6421 292
8399 100
9082 53
9526 167
113 222
1651 222
3270 222
3501 222
3930 222
5057 222
6762 222
7962 160
9795 104
9867 62
114 52
2697 52
3518 293
3542 52
6292 52
6989 48
8969 52
9805 9
9827 52
9980 52
115 120
3567 6
3706 120
6729 104
8435 120
8771 120
9179 120
9181 52
9584 120
9854 48
9921 120
116 294
1205 295
4005 294
4874 294
5527 296
5723 294
5882 294
6144 294
6154 294
6254 85
117 297
291 297
306 297
1088 297
3664 297
3832 297
4182 297
6446 190
9222 298
9655 27
9979 181
118 299
271 300
644 83
2271 243
4993 299
5226 299
5260 299
5787 299
6719 299
7026 299
9611 301
119 302
1041 301
3240 302
3364 302
3933 302
4549 302
4601 126
5196 302
6007 302
6454 279
7085 226
120 256
1158 176
4096 256
4483 256
5558 256
6136 256
6817 223
7110 256
7124 60
7305 256
8798 44
121 303
4081 304
6348 196
6392 18
6645 303
7006 303
7185 303
7437 303
8338 303
8402 303
122 96
740 305
2287 306
4817 307
7000 96
7569 96
8870 279
9051 96
9149 96
9385 96
123 63
989 308
6024 170
7460 63
7995 63
8186 63
9073 63
9280 4
9424 67
124 252
525 252
2704 252
3525 252
4103 252
6325 252
6899 252
7159 289
7209 309
8974 4
9180 85
125 310
303 310
2147 310
2891 310
4591 310
4608 310
4847 310
6570 211
8980 207
126 67
7016 67
8282 67
8348 67
8945 9
9267 311
9302 67
9667 43
9889 67
9954 213
127 312
3295 312
3675 312
4118 312
4416 313
4639 312
5363 312
6003 312
6061 18
6754 264
9318 73
611 83
1351 83
5976 314
9310 19
10000 301
129 74
4682 197
4763 22
7503 74
7920 49
9456 74
9458 74
9541 74
9689 71
9828 74
130 52
3452 315
3652 178
4779 52
6925 52
8515 52
9766 106
9813 146
9981 52
131 118
3956 118
5805 118
5876 118
6451 220
6486 220
6509 118
6627 118
6697 267
9875 48
132 201
1881 201
3650 5
4047 316
4250 201
5150 59
7980 201
8010 201
8807 311
133 317
2754 317
2808 158
3036 317
3579 317
3875 317
4203 317
4624 317
4683 87
134 219
2249 219
2620 219
4466 219
4952 219
5225 219
8693 318
9040 3
9375 132
135 319
2328 320
2829 319
3104 319
4716 319
5418 319
5471 319
6186 319
6847 85
8323 57
9062 321
136 322
1752 322
2307 322
2417 323
3016 322
3783 322
4824 322
4878 97
5866 322
8676 85
137 137
4482 137
6411 137
6573 137
6852 137
6991 137
6996 137
7434 243
8546 73
9594 71
138 267
1905 324
5365 19
5697 267
6079 267
6976 267
7004 267
7208 267
7536 112
8619 85
8847 139
139 325
356 249
393 325
1589 325
4226 325
6141 325
6471 325
6761 325
7403 73
8529 9
9019 49
140 80
2441 80
3800 93
3927 80
4318 64
5081 155
5332 80
5582 80
5666 80
6300 80
7719 112
1645 200
1999 172
3856 200
4798 57
6279 200
6602 200
7321 78
7546 200
8028 200
142 277
4982 1
6253 277
6716 277
6839 321
7060 277
7394 277
7539 277
8104 203
8778 279
143 291
6733 291
8701 146
8733 196
9437 139
144 10
1246 10
1374 10
2259 10
3554 326
4729 327
8156 203
145 274
676 274
999 274
3432 274
4602 52
4899 274
8248 144
8862 269
9909 9
1069 328
8018 196
8897 71
9110 7
9190 129
9536 129
9732 129
9751 129
9959 129
147 329
214 329
2187 329
2783 329
3262 330
4051 329
4060 329
5484 329
7606 331
8100 1
9711 48
148 202
890 35
4579 332
8187 333
8603 202
8836 202
8865 202
8950 202
8965 49
9176 202
149 90
841 90
1873 90
3011 214
3090 73
3200 146
3822 90
4872 90
5132 90
5302 90
7038 97
150 318
1002 169
5537 331
6274 318
6553 149
9247 318
9706 318
9796 318
9881 318
9886 3
151 279
860 212
3271 279
6979 334
8571 73
9041 279
9060 279
9610 279
9675 279
9929 279
942 50
1795 50
4609 62
4923 335
7913 301
153 336
661 336
5194 293
5285 336
6020 336
6313 336
6338 336
6526 336
6552 138
8203 100
9432 100
154 84
410 93
1561 84
2077 84
2203 84
2561 84
3131 84
6240 218
6335 100
8501 19
155 120
2773 337
3912 270
4419 286
8362 120
8387 120
8978 120
9542 120
156 64
2158 20
3223 175
8057 208
8246 64
8259 64
8761 64
8949 64
9715 64
9880 64
157 127
2989 127
3183 127
4643 127
5036 127
5630 127
5924 127
8456 247
9413 286
158 338
3611 228
5128 33
6912 338
6990 261
7578 338
7627 338
8374 338
8441 338
8461 338
159 339
2311 339
2492 340
2594 339
3292 339
3533 339
5219 339
5398 339
7614 341
7694 74
8190 342
160 2
404 2
1442 2
1461 2
1516 2
3343 2
3724 2
3896 343
9282 196
161 344
6180 67
6670 3
7249 307
7969 344
9163 344
9389 344
9570 344
9791 344
9901 344
162 345
594 345
757 345
1090 93
1871 345
2217 345
2466 345
2832 345
3396 345
8892 129
163 298
3194 322
4823 92
6121 298
6569 298
7446 47
8302 298
8445 298
8690 298
9685 298
164 346
1210 262
5235 346
6118 346
6555 346
7409 346
7586 346
7705 346
8130 125
8220 225
8782 182
165 347
517 347
2031 160
3084 347
4983 347
5454 347
5608 347
5759 347
8898 348
166 90
4045 90
4383 90
4540 349
8689 217
8962 3
167 350
3600 350
4152 150
5009 350
5902 351
6513 350
6725 350
7125 350
7129 350
7285 151
8401 167
168 93
2724 352
3919 93
4806 93
4929 93
5089 93
5419 93
5438 93
7722 43
8257 334
8432 9
169 353
4022 353
5427 354
6655 353
6985 353
7059 353
7090 353
7573 353
8789 355
9622 247
170 356
567 301
853 310
2854 357
5607 356
6248 356
6500 358
6546 356
6731 356
6742 356
6950 356
171 192
3248 192
4648 192
5622 192
6753 8
7360 192
7896 192
8043 192
9397 359
172 360
466 360
1242 361
1540 195
2584 93
3344 360
3758 360
4428 360
5801 360
6285 360
8991 311
173 301
4446 67
6423 3
6648 340
6788 23
9764 301
9888 301
9913 301
9987 301
174 141
739 141
919 141
1829 362
2019 141
2035 280
2412 34
4210 141
5287 141
5433 141
175 349
1528 349
2256 349
3751 349
3820 349
3841 363
3979 349
4114 349
6672 21
8498 223
176 364
222 48
2994 364
3698 364
3903 364
4092 364
4542 364
4697 364
7696 160
9187 365
9359 43
177 337
826 337
3858 337
4020 337
4308 337
4332 337
5297 337
7010 27
7732 244
7874 171
9942 106
178 366
1857 367
2072 366
2238 255
2686 366
4090 366
4859 366
5665 366
6188 366
8846 203
179 368
1586 368
2461 76
3453 368
3656 368
4200 368
4360 369
4459 368
4535 368
6531 311
6810 6
180 48
3840 16
5844 9
8229 26
9053 48
9075 48
9533 21
9809 48
181 370
4666 143
5374 301
5995 318
6675 370
6789 370
6803 370
7576 370
7677 370
7931 370
182 352
1045 364
1440 352
5701 352
6085 352
6413 352
6741 352
7100 352
183 123
492 123
2165 371
2308 123
2618 123
2710 123
2952 123
4457 123
6361 334
9230 108
184 358
2087 69
7308 232
8503 358
9129 358
9256 52
9333 358
9484 52
9851 358
9933 358
9978 358
185 93
203 93
485 93
954 310
2028 93
4812 93
5598 93
8773 372
9134 23
9702 271
186 306
2163 306
3144 42
3748 306
4322 333
4911 306
5039 306
5351 306
5524 306
9971 49
187 64
1502 64
2637 325
6333 373
8039 64
8632 64
9560 71
188 148
2840 148
5725 341
6000 367
6383 183
9034 23
189 99
2960 374
3779 149
6932 178
8565 99
8904 99
9101 99
9773 99
9952 99
190 267
4156 96
5768 267
7555 3
8025 112
191 375
2722 375
3152 375
3680 375
3781 375
4382 375
4803 375
6042 376
6065 226
8760 217
192 14
3936 81
6083 11
6995 179
8038 14
8279 14
8509 14
8838 14
8858 104
9035 14
193 377
603 377
2547 377
4245 377
4610 377
4755 377
4977 377
8045 378
8072 155
9596 138
194 303
4832 303
5766 303
5973 379
6256 303
7775 78
9630 73
195 71
1611 219
5826 71
7254 71
7535 228
8975 71
9033 71
9367 71
9369 19
9634 71
9955 147
196 66
1952 66
2628 66
3051 66
3580 66
5337 66
5834 113
7251 380
197 151
7204 151
7300 381
8357 151
8586 151
8890 151
9488 108
9829 151
9831 151
198 222
650 222
3696 369
4229 3
8989 136
9495 13
199 365
4972 382
5092 365
7439 49
8492 365
8786 365
9039 365
9167 365
9571 9
200 383
955 383
1292 383
2930 383
3226 383
5426 383
5542 383
6465 384
9777 9
201 385
2006 385
2622 385
2936 188
3265 385
3727 385
3883 385
4392 385
4403 385
8027 365
202 179
2963 297
3761 113
4319 179
5862 378
6594 179
7797 179
8166 179
1537 93
3946 93
5541 386
5811 330
7880 78
9353 279
204 189
1413 189
3888 247
7232 387
7323 199
9504 7
205 388
388 388
1186 388
2485 388
3506 23
4545 388
5126 388
5806 388
7303 151
8871 348
9917 53
206 359
5361 244
5670 389
7761 359
8014 359
8666 359
9211 359
9583 359
207 162
2304 324
2688 269
2862 162
5385 162
5396 162
5476 162
5659 162
6638 162
8275 6
208 48
3108 258
3762 293
6548 116
8074 1
8178 48
8772 48
209 390
4208 77
7163 390
7388 390
7404 390
7554 390
7707 387
7960 390
8069 390
8142 100
210 13
1742 188
2218 285
7248 13
8315 99
8781 13
9084 391
9615 13
9763 13
9780 13
211 288
229 288
1987 288
4289 288
4523 288
4921 288
5392 288
6600 217
7288 190
212 392
2667 25
5355 116
5678 392
5713 335
6140 392
6746 392
7149 392
7174 392
213 384
1182 384
3710 316
4219 384
4829 295
5643 384
6278 384
6633 384
7358 384
8827 73
2040 329
2151 329
3317 124
3730 248
4163 329
8117 251
8460 393
957 249
1896 249
3048 211
4113 376
5569 366
8312 9
216 63
5207 63
6252 63
7710 361
7910 358
217 394
595 394
1073 295
1251 394
1944 394
3754 394
3891 394
4592 394
4756 394
9588 53
218 395
3115 395
5662 395
5736 395
6109 395
6147 395
6196 73
6428 395
7132 183
219 396
1678 396
3176 396
3227 396
3746 396
4312 396
4909 396
8358 58
9714 21
9824 104
220 160
2788 107
2843 229
3263 160
4218 380
6110 160
7386 160
7674 160
7936 160
221 344
500 128
6730 397
8177 44
9490 344
9567 344
9783 344
5845 48
7066 100
7859 48
9376 48
9727 48
223 398
532 398
859 39
1466 398
3140 398
3450 398
3713 398
4841 398
8770 44
224 91
352 91
380 355
1676 91
2347 399
3059 91
3245 91
4916 91
8252 125
8351 21
225 75
373 275
4154 259
5769 256
7906 75
8883 27
1419 131
1754 131
2768 131
2841 316
7634 100
9493 71
227 345
2064 345
2482 345
3404 345
4978 345
5457 345
6169 345
9061 213
228 288
940 4
1471 288
4232 400
4314 288
6328 224
8668 67
2680 288
6502 401
9199 203
9602 402
230 120
6264 335
6567 15
6909 120
7103 120
7673 338
8861 120
9177 60
231 132
1312 262
3324 403
7426 49
8205 132
9173 132
9303 171
9544 132
2902 404
8598 359
9157 36
233 141
1119 141
2026 183
2395 141
3809 141
3821 141
3944 141
4191 238
5067 141
6472 27
8607 48
234 344
7136 405
7319 97
8119 136
8198 57
9186 344
9443 344
235 359
4570 229
7362 60
7944 359
7963 359
9273 359
9876 167
236 300
1111 350
2702 300
3091 300
3147 300
4290 300
4516 300
4700 300
9398 99
9436 7
237 406
1046 407
1683 406
3332 406
3737 406
3765 406
4143 406
4342 406
5035 218
5139 355
238 133
1199 133
2786 133
3860 133
4059 133
4507 133
5554 104
9200 18
1725 408
1884 5
4119 5
5825 342
7813 94
8902 67
240 409
2092 409
3457 257
3734 409
3953 409
4655 409
5405 409
5837 409
6021 410
241 287
3577 287
3615 165
7413 139
9679 74
242 43
5400 218
7001 43
7785 205
8653 43
9357 43
9862 43
243 125
1395 84
1490 88
2973 67
8294 125
8559 125
9459 125
9548 125
9747 286
9779 125
244 411
1264 4
1467 411
2245 411
4171 411
4738 349
4910 411
4979 411
6432 411
6501 411
245 365
3905 15
4793 132
6779 365
7548 365
8489 74
8574 365
246 58
6161 412
8102 58
8646 58
8947 58
247 405
696 405
4359 405
4632 405
5186 405
7019 405
7157 27
9502 112
9908 21
248 141
1997 141
2057 336
8727 52
9653 151
249 413
415 413
433 413
584 136
1311 413
1521 413
3276 413
4720 413
4766 414
6467 77
7384 303
250 415
3380 415
3383 304
3870 415
4126 415
4129 415
4132 415
5077 3
7074 361
251 239
457 416
1006 239
1449 368
2152 239
2323 239
2693 239
3900 239
4251 239
6831 74
7946 23
252 71
6284 71
6402 63
8003 42
8337 71
8615 25
9221 71
9498 49
9856 71
9940 71
9991 71
253 188
1034 417
2956 33
254 418
462 418
1177 418
2196 418
2727 418
2748 418
3731 418
4335 63
5005 418
7116 171
418 316
424 107
1906 107
2493 107
4511 107
4564 107
9350 85
256 419
2530 292
5388 419
6073 419
6103 419
6160 83
6496 419
6575 419
6851 419
9328 104
257 268
277 268
581 312
912 268
2168 268
2934 268
4121 268
5122 268
5154 268
5771 273
7297 100
258 27
1493 420
2821 10
4144 130
6323 27
6343 27
7199 27
8657 27
8934 27
2914 250
4445 74
7111 74
8418 74
8952 220
9007 74
9151 74
260 421
704 421
3393 421
3509 422
4490 421
5029 421
5279 421
5717 421
261 214
756 214
849 214
1040 214
1431 423
2516 214
2719 214
7140 298
7996 424
8131 129
262 278
1335 278
1739 278
2137 278
3407 278
3462 278
3605 278
4037 278
6031 166
7190 139
263 425
795 288
1919 425
2689 425
4304 425
4471 425
5241 425
5764 425
264 119
3660 160
5631 119
6356 119
6397 119
6450 119
7036 119
7698 23
8407 4
8488 355
8704 27
265 426
1764 426
1843 426
2435 426
3866 21
5922 426
5999 426
6386 426
6849 427
7624 134
9997 7
266 180
4269 180
4851 341
5040 180
5212 180
7211 180
7294 180
8762 100
267 263
2299 263
3192 263
3913 401
4205 263
4404 46
4635 263
5160 263
5581 263
9286 298
268 404
4614 332
4757 55
4922 404
5916 404
6583 404
6777 404
6917 404
6923 404
7639 151
269 142
687 288
867 27
1163 142
1304 142
9171 9
270 208
911 104
5639 238
7978 208
8019 208
8064 208
8433 208
8549 208
2017 300
5121 121
272 58
7693 261
8578 58
8891 58
8905 71
9294 52
9935 71
273 70
4406 70
4458 70
5612 70
6035 326
6374 70
9092 380
274 283
2539 283
4573 283
4980 283
5634 283
6211 283
275 213
296 428
6882 53
7227 213
7273 1
9170 213
9259 213
9896 213
9948 213
9951 213
276 409
682 409
786 409
2508 178
2976 207
7617 113
722 268
2846 268
3823 192
9201 99
9394 73
278 47
6088 429
6593 47
6596 47
7162 47
7220 47
8330 47
8613 47
9016 167
9272 196
1238 249
4409 27
5478 430
9877 100
280 431
961 431
1432 168
2985 431
3257 431
3654 431
5256 431
5258 431
5326 144
281 42
2779 225
5735 276
8508 42
8942 42
9384 138
9740 42
9761 42
9966 42
282 277
5875 205
7043 277
7183 277
8411 116
283 85
7268 138
7302 213
8041 202
8118 85
9225 85
9578 85
9756 85
284 432
377 433
1108 173
1565 432
2609 432
4901 46
4935 432
5010 432
5025 432
5037 432
5959 67
285 72
1299 434
4271 72
6455 246
7497 435
9844 112
286 157
2552 157
3168 157
5917 151
7666 344
8046 139
9744 220
287 436
1390 436
1834 436
2330 113
3009 354
4505 436
5912 436
5947 436
6145 436
7502 199
9836 21
3266 17
3829 373
4695 17
5732 128
289 330
3224 330
4329 316
4338 330
4865 330
5072 330
5502 85
5929 330
7661 100
290 221
2926 221
4234 60
4864 103
5350 221
1637 297
5897 176
6122 23
8900 247
292 354
695 354
2818 354
3196 123
3534 354
3743 7
4504 354
5619 354
293 56
5519 292
8882 19
8921 56
8966 56
9126 56
9196 56
9427 56
294 157
1113 140
2025 157
2227 324
5182 437
9982 171
295 80
4795 108
8320 390
5543 438
7217 7
7556 428
7623 428
7738 428
8204 428
8328 428
8427 428
297 11
4142 11
4704 11
5746 11
6676 11
6678 439
6710 11
7518 251
298 147
1112 198
4633 108
7968 147
8113 147
8826 147
9072 147
9793 147
299 440
1971 20
2341 440
3708 440
4000 440
4089 440
4479 440
4836 440
9559 402
9924 23
300 253
824 253
3673 253
5347 253
5364 253
5831 253
9137 3
9372 60
9461 147
301 384
5517 401
7005 213
7247 384
9237 193
302 282
1280 282
1797 282
2234 49
3816 282
6375 328
7115 241
1694 310
2315 298
2346 310
3321 441
3541 50
8095 74
304 48
1895 53
7118 48
7438 334
9725 48
9835 48
305 271
4439 271
7912 224
8163 271
8948 271
9364 271
9545 271
9825 49
468 265
1165 236
2318 297
307 434
419 434
997 434
1372 343
3216 434
4877 434
5058 365
5378 434
5904 434
7891 175
308 154
1915 154
3234 154
3468 11
4300 154
4379 154
4619 154
7425 53
8110 342
9195 57
309 67
5829 167
5840 67
5927 261
6488 67
8467 216
8628 67
9130 136
9409 67
9768 67
310 278
779 278
894 33
5144 278
5147 85
6342 27
9681 100
311 330
413 413
1686 330
312 314
574 314
2327 314
3733 314
3806 442
4204 314
4791 314
5676 71
7917 116
313 345
2124 345
2641 357
2644 345
314 351
2112 351
2764 351
3716 386
4331 231
4593 351
5906 351
6293 351
7097 136
8911 138
315 220
1279 308
5229 443
8531 220
8552 220
8644 220
9220 220
9387 220
1456 259
6653 178
6865 178
7306 178
7787 178
8116 178
9153 49
317 374
585 374
933 374
3477 374
4394 374
4946 374
5962 374
6474 271
9501 3
318 431
3448 165
3653 431
6784 15
319 70
918 108
1437 321
4413 70
7540 348
320 444
1759 444
2494 444
3114 444
4976 444
5311 444
6294 444
8558 85
9166 19
9932 71
321 71
1983 295
4347 73
7139 276
8447 71
8703 71
322 239
1124 239
1353 239
2409 239
2576 325
2844 239
3328 239
3583 66
4618 239
5156 108
6307 435
323 39
6960 39
7379 111
8005 39
324 445
663 445
1955 445
2739 445
3299 249
3451 445
4181 445
4599 445
4701 445
9708 60
368 233
3249 233
5170 233
5404 233
6414 21
7814 156
8886 402
326 444
3563 326
3704 139
4405 444
5084 444
7230 194
9617 71
327 302
1831 446
2515 302
3576 302
3640 16
4151 302
328 356
4150 304
5458 322
6288 356
6318 356
6811 356
7069 46
8843 269
329 4
1626 126
3210 447
7930 4
9428 4
330 293
2014 293
2646 293
3489 293
4613 448
5002 293
5012 293
7850 183
8037 24
331 449
370 449
3920 449
4305 449
4882 449
5201 449
5562 271
5737 449
5958 67
6030 23
9037 104
332 16
721 122
1032 16
1118 16
2418 27
2420 16
3717 16
4363 16
6747 35
8977 348
333 54
3987 158
5675 188
7171 193
8696 54
9665 136
334 167
5462 238
6438 136
6898 167
8522 167
9334 167
9395 167
335 54
3254 450
3924 272
6302 298
7549 54
7552 381
8008 54
336 157
639 319
7512 175
1128 0
6298 178
6954 198
8875 21
338 71
610 451
932 63
4588 145
7679 71
9807 104
339 200
2823 200
5341 200
6449 200
8143 44
340 44
6410 113
7612 35
9024 198
9641 44
9669 44
341 126
1438 126
3826 126
8643 321
9401 213
342 123
587 123
624 452
1704 123
2262 123
3055 123
3984 123
343 435
4724 335
5548 435
6463 435
7154 435
7841 216
7991 435
8375 57
344 53
6848 53
7344 144
8105 132
8580 53
8610 53
8968 53
9091 53
9312 358
9640 53
345 107
750 107
996 107
2447 107
2658 377
2881 107
3207 453
4533 107
4636 107
6993 49
9250 151
346 56
3143 288
6872 376
7031 114
8514 56
8928 56
9785 104
347 358
4034 257
5968 390
8504 25
9508 358
348 80
4438 80
5566 442
9682 53
840 65
9686 167
9910 27
350 391
2847 447
4768 34
8284 391
8548 391
8779 391
8855 391
9005 391
9858 62
351 436
1243 436
2397 436
4604 60
5107 49
3137 91
4139 91
6091 315
7081 324
7141 429
353 1
5001 1
5303 1
6796 61
7559 1
7629 1
7750 1
9123 99
354 288
839 288
876 288
944 288
2632 288
2670 288
2935 129
8739 380
9676 19
355 210
510 210
1835 82
7757 247
8809 74
9897 104
8293 265
9996 9
948 298
1357 252
2606 260
358 234
495 234
2293 234
3608 234
4024 234
4110 234
4390 234
4718 234
8342 145
359 29
1763 29
2257 29
2453 29
2825 29
3494 29
7820 15
9115 6
9136 100
360 270
3116 229
3867 267
4046 270
9528 8
9556 262
361 454
1849 454
4842 454
4891 391
6060 454
6117 454
6237 454
6443 454
8162 21
9645 286
362 126
582 126
628 126
772 126
2396 126
3089 200
3685 455
9420 60
363 353
1101 109
6584 327
6751 353
6892 353
7152 353
7233 353
9156 193
9514 197
364 316
2509 316
3097 316
4235 316
8180 216
8654 456
365 306
641 341
2032 306
5465 241
6952 100
8825 57
366 159
835 15
1973 285
4525 285
7590 159
8096 159
9949 151
367 251
1406 169
3540 156
5629 251
6329 251
7310 251
7904 251
7793 100
8438 64
369 145
8066 145
8541 145
8551 145
8669 145
9158 193
9939 196
934 449
5129 449
5138 1
5492 449
6554 206
8164 196
371 138
2647 61
5556 3
7844 36
8343 138
9306 138
9612 138
372 347
2811 347
4709 347
6828 334
7470 158
9505 276
1142 275
1358 151
3454 275
4137 275
5794 275
9605 36
374 154
1410 154
8285 73
8307 402
9846 181
375 308
591 308
1524 308
2261 308
3463 308
9516 71
9746 94
376 453
2566 453
2885 457
3759 453
4158 453
4265 453
4462 453
9784 380
542 433
2309 433
3307 433
4565 433
4686 433
4838 433
6661 3
9452 321
378 230
1237 414
2207 230
3273 230
4785 458
5027 230
7137 260
8844 146
379 459
1607 82
4860 459
5609 459
5658 459
6092 459
6801 459
7148 459
8941 197
9619 53
9651 36
1178 42
1544 327
1658 355
2353 429
9064 355
9209 355
9322 355
381 460
3252 460
4176 460
4188 460
4350 460
5157 460
5926 460
6315 309
6750 186
8244 100
9305 182
382 461
1195 56
1200 461
2297 461
2615 461
2925 461
3111 461
6052 461
7941 124
8944 13
383 211
6743 211
8026 211
8398 211
8651 211
8872 211
9873 73
384 347
3649 427
4464 370
9232 217
9943 193
385 462
718 462
2229 462
3499 462
3928 462
5163 462
5843 462
6734 132
7494 105
8736 269
386 417
821 417
3617 417
4849 324
5648 417
5996 417
6082 417
6441 417
6591 417
7988 381
8253 27
387 451
885 451
2743 23
3039 451
5243 451
5359 451
5783 451
5967 182
6613 451
4728 388
4930 388
389 334
7210 427
7342 334
7443 85
7725 334
8024 334
8394 334
8519 334
8788 147
390 354
438 268
1263 368
3330 354
6099 129
391 144
985 289
5538 226
7002 144
7270 167
8160 144
8216 144
8446 144
8680 144
392 144
600 2
7218 144
7281 144
7986 94
9108 132
1640 439
2815 325
3614 325
9337 23
394 418
3399 418
6819 371
8599 108
9036 21
9194 348
395 20
3417 319
7082 100
8212 20
8806 20
9539 71
396 149
770 149
1812 98
5054 387
7395 149
7926 149
397 327
2814 305
3461 327
4811 327
5066 327
6487 327
6949 327
8092 3
9882 116
398 384
1001 233
1523 384
1904 12
2716 384
9438 247
9878 9
399 326
1571 326
5094 117
5100 326
5828 326
8380 203
400 101
1588 131
6227 101
7216 101
7977 73
9052 241
401 355
3293 318
7477 355
7488 355
7700 35
402 288
937 288
2759 288
3433 111
4650 288
5041 288
6592 382
8497 124
9911 57
403 454
2900 454
5690 446
5852 69
9863 3
540 74
2220 2
3991 2
7671 289
8542 62
405 12
2663 373
4607 452
5281 12
5567 103
5715 12
5881 273
6737 12
7106 12
7334 12
406 229
1106 229
1617 229
1892 229
4999 229
5231 229
6403 348
6620 420
407 383
3172 448
4128 383
7806 96
9870 9
408 369
3947 103
4474 369
4681 369
4845 369
5705 369
5790 456
6059 7
409 332
2529 414
2875 332
2970 332
3965 332
5205 332
5455 138
8280 138
4279 93
5273 57
5742 23
411 79
7877 32
8079 36
8196 79
8241 79
8516 79
8749 73
412 328
1402 163
2157 328
4161 328
6735 328
6904 328
6946 328
8609 27
9916 171
1728 413
2122 413
2512 413
3553 413
4578 413
4723 413
7893 19
8260 209
414 168
6366 104
8691 168
8918 168
9001 168
9465 168
9603 168
1109 207
2109 413
2805 36
3212 413
3851 214
9140 53
416 442
645 90
664 442
1317 442
1655 442
5512 155
8893 49
417 348
2742 443
4310 225
7138 348
8787 348
9492 348
9629 348
838 316
2600 289
2887 316
8326 279
627 176
2237 434
1217 161
2653 161
3784 161
5108 161
5549 161
5577 161
7348 397
7684 216
7767 9
421 92
713 92
1426 92
1977 92
2682 92
2802 150
5360 92
5475 92
9576 104
422 47
4451 47
4959 170
7697 47
7998 47
9265 167
9730 57
423 432
837 432
4970 187
5795 463
9623 44
1967 107
9099 27
9283 136
425 84
2772 84
5792 464
8829 129
9127 241
9204 100
426 369
3655 369
5589 52
427 181
544 426
1687 61
6994 269
9055 181
9664 181
9965 181
428 165
516 165
1149 22
2043 165
3228 165
3313 165
3574 319
6641 202
429 351
1375 351
1628 351
2433 351
2565 392
3910 277
7235 183
9587 15
430 379
1480 379
4346 379
5815 379
5878 198
6133 379
6587 379
431 173
2633 173
4992 202
5551 173
6585 312
432 272
2149 272
2456 272
6266 3
6966 309
7495 367
6209 299
434 446
2154 294
4364 446
4981 446
5628 446
6271 446
6283 446
6764 446
7953 223
8687 139
8876 241
435 465
1287 465
1838 338
2067 465
2382 465
2599 465
4123 465
4615 465
8908 21
9701 7
436 236
2427 304
3703 236
6286 236
6368 236
6669 236
6755 236
7017 121
437 252
2997 466
4585 252
5623 252
7133 61
7169 463
2097 268
4228 268
4499 268
4641 268
4671 268
5580 268
439 65
1428 65
6469 207
8910 247
440 466
3992 402
4813 423
6763 466
7807 466
8221 298
8405 466
8524 36
8743 466
8755 466
9086 466
441 90
1411 90
3376 220
3601 90
4495 90
6609 286
8927 15
442 55
1803 55
2164 273
2366 55
3073 55
3732 105
4804 55
4995 55
8745 151
443 273
1765 273
2111 273
3833 408
9988 74
444 4
1416 180
1526 414
6362 208
6430 4
6464 4
8675 4
9425 23
445 422
2286 422
2845 315
3085 422
3388 422
4224 27
4371 422
4762 422
5699 422
6752 206
9926 49
446 238
734 398
1087 238
3719 238
4111 238
4375 238
4644 408
5409 235
5625 238
8250 49
5595 320
6800 186
9332 112
448 0
1510 0
9030 167
9414 74
449 309
2089 75
6444 309
6797 309
7143 176
7167 309
7393 309
9941 129
450 225
1650 38
3697 201
4690 225
7631 225
7791 225
8239 225
451 442
3384 442
3546 442
3651 442
4708 442
7056 410
7849 244
9666 52
452 203
4509 69
7127 203
7429 216
8590 203
8889 203
9015 203
9056 124
453 87
1792 87
5497 87
5674 87
5832 87
5978 87
9205 286
454 115
1911 103
3337 100
4947 115
6011 115
6046 115
6280 115
6490 115
455 208
1667 396
8281 208
8566 64
456 234
1529 234
3306 234
3441 234
3460 136
4167 234
4969 234
5604 26
8681 52
1758 416
8391 134
8597 416
8622 416
8946 416
9009 124
9049 416
9422 416
458 18
3502 251
6822 373
7291 402
8426 18
8593 18
9191 18
9390 18
9410 18
9883 104
459 332
3801 332
6071 52
460 34
4774 34
6931 71
8290 105
9478 64
461 272
4262 192
9709 71
8521 247
9812 67
463 405
2285 360
2639 52
4206 100
5655 405
5992 405
8251 27
464 367
1520 67
2872 142
4325 367
4454 367
6572 367
7588 367
9381 146
465 131
899 42
1813 131
2540 208
2774 131
4002 131
4055 131
4243 467
4760 131
2120 360
8638 52
2429 66
2579 66
3872 66
9460 7
1464 468
8710 265
8848 265
9022 265
9279 265
9361 265
469 232
2921 261
6309 232
6732 232
6930 232
7279 232
7735 158
9266 18
470 304
1064 304
1717 304
2369 304
2685 304
4487 3
7079 85
7887 167
471 219
2481 219
3722 219
3990 250
5561 335
7672 135
4875 199
5740 199
6630 228
6813 199
7219 199
9331 112
473 9
6076 88
7012 9
7596 9
7903 9
8209 146
9729 9
474 400
1721 124
2380 400
2432 400
3230 109
4187 400
5390 400
5532 400
7147 207
475 321
3500 3
7027 181
7884 372
8604 207
8766 321
9257 321
9352 321
9417 321
9627 321
476 32
8234 342
8960 286
9555 32
477 45
701 45
4739 45
5644 110
7812 42
9026 61
9240 276
478 279
2809 420
3547 362
6056 382
7335 279
8774 74
9018 279
9598 279
9713 279
9833 279
479 123
630 123
2407 123
4936 410
4948 55
480 141
4105 141
7768 207
481 39
1629 129
1821 96
6492 15
8366 53
482 109
669 109
863 217
2239 109
2894 342
3280 109
3687 109
3755 109
8634 397
483 99
5467 313
5721 99
6127 372
8751 99
9206 99
9674 99
2927 3
8236 3
9351 3
9380 3
9684 3
2640 93
3274 93
3439 93
8382 104
8614 450
486 245
2044 245
4850 245
8439 36
8801 23
487 398
2757 398
3281 75
5838 181
488 379
1341 155
5661 379
6263 379
6265 379
9083 27
9522 3
489 386
3201 386
5663 386
7842 386
7935 386
8007 386
8120 386
490 74
3429 43
9433 74
491 463
5117 132
6143 463
7361 463
7424 463
7675 463
7687 463
9263 21
9852 15
992 315
3008 123
7387 220
8179 3
493 257
1726 257
4067 257
4112 233
4270 257
4835 257
5932 257
8673 147
494 15
6155 216
9295 3
9606 15
9840 15
9891 15
792 234
1494 234
4611 469
496 407
768 407
2810 407
3431 327
4007 407
4097 407
4427 407
5180 407
6378 7
7419 261
8304 48
497 146
6795 146
7231 296
7244 146
8756 146
9442 146
9451 61
498 215
2266 215
3120 215
3211 215
4012 331
4198 215
4808 215
5672 215
499 328
1553 328
1875 328
3040 328
3267 92
3360 328
5045 328
5073 328
5417 96
9080 151
4421 128
4476 128
5489 398
5781 128
5841 128
501 470
1618 470
3532 470
3798 470
4414 470
4689 470
4956 470
8213 8
8355 19
502 159
7077 24
8386 159
503 129
8753 129
9006 129
9065 129
9300 151
504 349
583 198
1859 349
2205 349
9174 74
9557 298
505 166
3030 166
4006 166
4706 166
4854 333
4939 166
5000 166
5691 166
8776 3
4417 31
7454 176
7713 176
7821 276
7975 176
8384 176
8631 176
507 167
1008 90
5318 468
6720 112
7229 167
9799 167
508 381
3408 405
5017 381
7642 381
8207 381
8428 381
509 445
745 21
2756 261
1827 210
6448 40
7088 25
511 100
4385 248
7571 71
8222 26
9168 100
9325 151
9600 100
9907 100
9945 100
512 113
1164 113
3790 113
7492 113
7510 96
7965 113
8674 113
513 182
4488 464
4561 12
6212 321
9434 182
9543 182
9569 182
9660 182
1816 258
7266 69
9496 9
515 165
1273 165
1415 165
1946 165
2236 165
4553 165
5062 165
8278 224
9014 8
1852 165
2233 165
2621 191
2966 298
3789 99
7472 156
2333 471
7121 416
652 98
1447 98
9132 27
9599 3
519 458
2430 458
2986 458
3129 335
3976 458
4551 398
5093 458
5534 458
7597 262
9525 36
520 344
4355 37
5023 371
8535 42
9271 344
9407 217
521 174
667 174
2675 472
3904 174
4035 174
4082 174
4758 112
6230 174
8500 466
9208 206
522 33
1099 129
3264 33
4120 33
4463 33
4527 33
6371 31
6563 248
523 144
6106 156
8289 27
9275 244
524 408
864 408
3164 408
5015 408
5193 155
6197 408
7307 408
8935 13
3272 252
6312 397
9693 21
526 451
672 451
2797 14
6178 296
8033 276
527 468
1525 343
2760 468
3437 468
5408 468
5779 468
5872 468
8561 94
8626 26
528 166
3049 59
4827 473
6069 159
529 323
1669 323
2696 323
2888 323
3484 323
3570 323
3811 323
5116 323
9956 301
530 127
4215 127
4629 127
4657 127
7580 42
8450 21
8851 279
9494 125
531 41
2005 41
2629 41
6974 340
7601 1
866 398
7381 129
8397 286
9308 193
533 144
1015 106
1796 94
6959 144
7262 144
8990 207
534 118
653 118
1231 118
7525 279
535 401
5376 401
5714 401
5750 74
6047 401
6275 382
6460 401
7542 401
8649 62
536 84
901 84
1853 84
3214 84
3323 84
3455 84
4033 84
5464 172
8148 8
8929 48
9301 197
2571 258
4786 333
5679 198
9905 27
538 96
1503 207
2306 96
5267 59
6841 96
539 447
1289 447
2769 447
3599 447
3906 447
5269 447
5942 447
7714 6
2055 74
3871 4
6255 74
8406 74
9077 74
9861 74
541 28
1048 28
2749 28
6802 9
8885 52
9847 206
2036 433
2625 194
4010 243
4185 433
9800 21
543 6
601 355
5585 6
7179 6
8004 6
8012 79
8967 6
9379 6
2296 426
3058 426
3921 426
5536 334
5936 100
7620 450
545 231
1290 231
3885 231
4529 231
5111 231
5210 4
5911 101
9358 193
546 174
962 257
1339 174
2922 174
4676 174
8415 151
547 241
6053 441
7610 424
7885 241
8920 116
9276 241
548 37
2535 315
3445 160
4130 37
6346 37
549 378
1386 142
4753 378
6703 378
6785 43
7758 378
7836 378
8065 279
550 136
1555 462
5441 271
7776 223
8702 136
8818 136
9922 136
551 148
6599 271
8505 247
3472 122
6706 358
7591 36
553 43
7784 43
7909 71
8496 224
8712 43
8932 147
9874 43
554 276
4510 29
9027 276
9172 276
9296 321
9342 276
9565 276
9638 276
555 0
654 0
732 166
1255 0
1840 0
3481 0
3943 0
4502 0
5809 230
6632 416
556 324
2834 85
3483 324
4623 324
4989 324
6561 324
7255 324
7746 151
8802 358
557 281
2979 281
5021 281
5445 281
6054 19
6565 281
6568 281
6805 281
8233 241
558 208
3033 304
4788 68
5151 307
559 474
3125 474
3491 474
4298 474
4904 474
5459 474
5757 474
9148 182
9446 62
560 444
2462 444
4050 420
4538 444
561 187
1506 270
5327 187
7340 187
7408 318
8224 44
562 297
2016 297
2570 297
3889 297
3934 297
4440 297
5065 357
7468 111
8617 182
563 40
1068 376
5820 40
6395 40
7107 198
8053 276
1266 230
3925 230
4647 290
9613 73
565 420
1174 420
1276 420
2536 420
3671 420
5181 420
8992 402
566 194
5718 235
6126 194
6807 194
6890 194
6973 194
6978 194
9185 129
9447 73
7782 301
9159 206
9392 279
9869 301
9984 301
568 159
4149 325
5953 404
569 414
2255 414
2795 414
2803 414
3780 414
3918 376
4659 414
5694 441
570 465
725 465
1028 465
4425 465
7640 78
571 109
904 109
981 109
1360 109
2360 109
3994 255
4257 109
8686 49
572 262
1801 193
3208 417
7416 262
8336 262
8583 262
573 341
903 239
7096 341
7146 341
7882 341
7974 341
8055 341
8699 8
9236 53
9366 60
4775 314
6826 196
8098 264
8567 106
575 289
1509 121
2519 289
2999 289
5918 34
7901 289
8090 289
8174 289
576 463
1080 11
4294 363
5486 463
6843 463
7182 463
9826 213
577 245
2273 181
3225 245
578 336
1418 329
3246 336
579 56
5085 145
8692 56
9360 151
9517 62
580 455
1192 358
1394 455
2750 455
2858 455
3782 244
4839 455
5357 455
7050 186
1004 312
1597 312
2392 312
4934 115
6172 312
6769 312
1367 126
1547 126
1780 126
6437 136
9808 71
2734 228
3320 49
8168 198
4994 475
6815 476
9226 136
9457 136
9868 136
5024 374
7014 382
586 238
1533 308
2385 238
2398 238
3236 238
7444 450
7950 20
8321 147
3602 105
588 297
2572 365
9670 23
7464 19
9262 23
590 50
1309 50
2053 436
2790 50
2984 50
3113 50
3235 152
5213 50
9362 124
1398 308
7412 412
592 477
1508 477
3153 477
3300 477
3301 220
3311 295
3575 477
4957 477
5261 477
9663 217
593 38
1894 38
1914 38
6914 147
1925 345
2694 345
3160 241
3582 345
5578 270
7039 438
9554 52
3130 394
8369 104
8866 182
596 330
4472 9
8881 205
9408 124
2720 132
598 451
3158 451
3394 451
8020 132
599 258
1134 258
1452 258
3873 258
4328 420
4429 258
4685 258
5879 145
8354 42
1455 207
2319 333
2659 459
6097 355
8364 393
8709 355
602 104
5684 89
9633 85
9650 104
9728 104
9797 125
1579 377
2931 377
4541 377
8286 358
604 335
1000 16
1746 229
5522 335
6711 151
9466 207
605 237
1889 143
4238 237
4796 218
5530 237
606 315
1477 315
2532 305
4254 315
5306 315
6119 315
6198 315
6277 67
607 38
637 478
692 38
953 23
1584 38
2411 38
2449 38
4327 38
4370 38
608 76
729 76
9455 213
609 197
6090 420
9421 197
9532 61
9639 197
9752 197
9778 197
9947 197
694 377
4395 226
3400 479
3413 22
5353 155
5930 115
612 153
5762 153
6306 153
6604 450
6842 153
7065 153
7201 153
7346 153
7895 116
613 254
4543 254
4725 254
4924 254
4943 254
5333 137
5352 254
6289 254
614 141
3057 242
7080 190
615 292
3892 149
5022 292
5115 292
6132 292
6659 292
7359 23
616 471
1420 471
1575 471
2425 390
4656 471
4996 471
5786 471
5858 471
8237 132
9608 3
617 50
1663 50
618 44
4284 437
8340 9
619 111
7651 393
7660 111
7826 111
7835 111
8062 111
8122 111
9078 104
620 46
5617 311
6225 46
6618 46
6911 46
7047 46
7656 32
621 237
1476 42
5945 480
8999 301
622 171
8269 27
8655 171
8726 19
9066 18
9453 171
9497 171
1226 433
3686 215
2799 452
3771 246
4195 452
4423 452
4426 452
4539 452
4931 452
625 44
1929 44
5774 147
6992 456
7151 156
8491 44
8767 44
626 27
1373 375
5591 326
6646 296
8367 27
928 481
4517 399
5782 176
6566 176
7410 27
8184 176
2066 389
7517 359
8899 135
629 16
3569 16
3787 16
5514 30
2414 4
6439 398
631 191
2923 191
3029 191
3514 191
3843 191
4309 191
4596 191
5372 237
6692 116
632 311
1677 456
8410 262
8424 311
9150 311
9319 311
9469 311
9748 311
633 437
2522 437
2619 437
2905 437
2942 437
3350 408
5508 437
5793 205
8742 19
634 258
1361 258
2752 258
4568 473
6405 311
635 67
1924 141
8499 108
8784 348
636 87
2514 314
4640 87
8379 450
9724 13
1387 478
2320 478
3836 478
5255 478
5836 478
5901 478
6696 52
8842 402
9071 67
638 203
8327 139
9144 203
2889 316
8573 43
640 319
3436 94
7197 15
5142 475
6032 129
7299 176
642 352
1783 97
4436 352
6458 352
7301 49
643 52
5097 52
9291 52
9934 52
9160 182
9609 23
5407 139
7824 344
646 188
5506 188
5600 331
6491 188
6722 188
7033 188
7091 188
647 254
1297 98
3002 423
6504 260
648 184
4548 108
5998 184
6039 184
6468 184
6476 21
6560 184
6582 184
6983 184
8545 19
649 152
1762 304
2737 152
8158 183
828 222
5444 261
9290 151
651 247
1530 247
4062 4
6965 204
8647 168
8763 247
9004 205
9898 247
9972 247
4437 430
5979 387
5221 482
7708 390
7853 110
1181 0
5091 412
6164 102
6667 342
8652 52
655 483
1169 483
1727 323
1938 272
2804 483
6910 483
7053 483
7213 483
7478 483
8867 52
656 33
3250 33
3895 33
4070 33
4145 33
6727 342
657 52
2186 263
6131 450
6234 89
8265 52
8345 52
9789 147
9810 52
658 445
1867 279
8051 265
659 381
1734 58
4810 83
4816 381
7795 381
660 3
1141 69
3167 3
3296 3
6224 382
8484 8
9738 3
879 336
949 49
5176 35
9983 380
2079 133
5627 83
6705 321
1180 272
3750 407
8864 397
665 209
4552 423
5807 209
6656 116
6958 397
7318 209
8006 209
8274 209
9989 193
666 179
4337 110
5248 179
6334 179
7352 179
4280 59
8217 25
668 219
1672 116
2812 219
5415 14
1434 109
3371 109
4276 264
7711 85
8937 344
670 106
3886 106
8183 74
8735 106
9356 223
671 328
2880 328
3083 328
5817 71
3593 368
5413 95
8642 196
673 9
6538 484
7611 9
9029 62
9404 9
9802 9
674 13
5245 172
5289 167
6006 13
8132 13
9402 13
9857 13
7633 284
7752 196
2928 274
6977 216
7742 108
677 342
1441 300
2247 165
8331 342
8349 342
8577 342
8791 57
9025 342
678 215
869 215
1511 215
2208 37
3964 9
9162 27
679 382
4320 382
9589 100
680 371
5149 321
5402 194
5709 371
6219 371
6718 371
7101 371
7156 371
7192 73
7625 371
9503 74
681 396
1239 396
3543 396
3948 396
3978 396
4146 396
6919 61
8715 155
9582 286
3440 43
6559 206
8672 49
683 209
2991 209
7979 6
684 334
5819 94
7792 129
685 391
4068 305
4351 121
8001 391
8856 391
843 166
5907 4
9219 53
1475 288
6013 264
688 22
6022 22
6363 22
7351 22
8385 22
689 147
4441 301
5624 147
6799 279
9743 147
9839 147
690 171
1183 215
5980 171
6691 475
9403 171
9476 171
691 336
2723 336
6536 476
7864 205
693 132
2362 271
8821 129
9430 132
5557 408
5860 244
1472 239
2486 354
9637 155
3568 227
6861 6
697 178
3613 457
698 225
702 402
3028 80
6218 225
699 203
1144 120
1212 153
7373 203
7873 203
8181 203
8605 36
8688 456
700 6
6101 6
7565 342
8223 6
8235 99
6287 177
8611 21
9549 13
8042 108
9245 402
9450 402
9842 402
9985 402
703 143
3894 171
6149 143
7721 143
8073 223
9775 167
875 421
1272 421
1371 353
8667 196
705 249
1995 249
3106 249
3508 337
3584 249
4361 249
9915 196
9976 94
706 270
3098 270
4315 270
5986 373
6783 270
7278 270
8194 3
9590 193
9529 108
9936 9
708 395
2608 244
4566 395
5812 395
709 70
974 70
6980 71
7894 124
710 280
1132 92
1322 280
2495 402
4036 280
6295 67
711 305
2801 305
3285 305
3366 305
3504 305
3922 305
7173 193
9661 181
712 438
4707 438
5891 438
6987 438
8295 438
9967 94
762 92
1976 295
2436 92
3951 92
9919 60
5315 363
715 472
5298 472
6291 472
6836 472
7336 472
7899 361
8124 472
8318 313
8341 472
716 9
1381 290
1500 481
7383 223
8214 9
8729 311
9771 9
717 482
4797 482
5131 482
6339 482
6358 482
6457 482
6704 482
9657 197
1187 462
4140 82
5086 462
8697 9
719 102
2272 467
3865 102
5412 102
6324 102
6494 102
6824 102
7607 205
720 385
9765 100
4015 122
5727 122
6506 122
6709 122
6879 122
7833 122
2450 268
6192 307
723 340
3310 367
4664 340
7126 340
7256 340
7339 340
7560 216
724 9
4223 315
5477 316
8768 73
3772 268
8538 13
726 71
2787 396
3931 71
5535 71
9178 19
9473 71
727 177
3603 177
6023 177
6905 177
7457 177
7928 177
8780 147
728 323
1654 323
8481 7
5620 83
6135 76
6168 125
730 172
2252 357
2264 128
5106 172
5305 172
5955 172
6152 220
6269 172
8627 276
731 154
1258 154
5504 386
5983 83
6943 277
7372 206
2367 166
4164 166
7810 139
7993 338
733 357
1945 357
3428 357
4853 357
5989 367
9045 168
3825 264
4660 398
5304 398
6431 398
8430 484
735 240
8963 15
736 130
2000 130
6885 60
8677 216
2791 9
3665 28
4190 380
6611 149
7355 78
738 283
2503 283
2886 283
4699 283
5546 227
7948 124
964 107
1175 141
9652 21
2987 305
9832 52
741 125
4366 397
6631 125
8011 125
8206 125
8232 125
8303 286
9953 125
742 239
4485 35
4537 344
8075 27
743 196
4867 52
6757 289
9042 196
9059 196
9260 217
9625 57
744 24
6694 207
7637 24
7749 24
1168 238
1674 21
746 349
1549 349
2131 349
2365 35
4433 349
4783 349
747 49
3961 49
5870 206
6489 82
8372 49
8641 49
9507 49
9644 49
9776 52
748 201
4237 201
5103 245
5437 137
6404 201
7328 201
8414 484
9510 53
749 406
805 406
861 406
2145 406
2569 406
2842 406
3373 406
7509 139
8869 220
887 107
925 107
1191 107
9184 3
751 9
4843 9
7075 246
8429 9
9164 151
752 485
3623 485
4988 485
6075 485
6138 485
6539 485
6834 485
8114 429
8540 53
753 296
806 17
4063 400
4352 318
6657 296
7462 296
7561 296
7570 296
7594 296
754 348
5605 122
5706 156
7037 348
7562 348
7589 43
7914 348
755 281
1156 448
1213 281
2326 216
3510 281
2206 214
2284 214
4546 103
7123 204
8464 397
1551 312
3974 36
6014 158
758 59
1545 59
1679 59
3081 59
3355 59
5603 59
7774 7
759 235
2839 35
4174 235
4857 235
5071 235
5173 207
5410 235
5777 235
7621 269
760 175
6829 213
7898 428
8478 6
761 238
5810 60
763 84
1271 44
1817 84
3124 84
4990 15
6551 393
764 16
1552 473
1936 16
1985 16
3544 16
4039 16
4166 177
2564 479
7312 346
766 373
1116 208
5266 373
5453 373
6475 182
6556 373
7367 373
8262 276
767 406
2528 406
5393 477
7829 71
769 421
1462 421
5755 176
7473 49
9762 94
1981 25
5369 149
6408 149
1619 27
2954 225
3803 303
6452 439
7618 456
773 96
7493 355
8419 13
8730 96
774 27
7997 27
8600 27
8698 108
9112 193
9268 125
9329 27
775 416
1949 59
2100 416
7015 416
8088 429
8799 416
776 119
1102 119
1135 119
1146 119
1250 119
2342 119
4496 119
6702 21
8841 42
777 420
3684 230
4362 420
5342 420
6173 420
6195 466
6997 204
778 376
2708 376
3209 273
3309 376
6435 376
6726 376
6908 389
3138 171
4508 225
780 248
5857 248
6165 248
6171 248
7094 248
9787 112
782 12
3414 441
3456 343
5461 12
7030 183
783 353
5366 183
7592 100
8458 7
4080 173
8463 32
8581 32
9234 32
785 412
2270 388
2349 412
3469 412
4231 412
4447 399
4846 412
7112 412
1049 409
2107 295
7176 241
8368 100
787 92
6901 105
788 310
1288 310
1909 310
3406 310
3736 310
3969 310
4493 2
4557 310
7188 139
7888 155
789 346
5523 180
5914 200
6525 236
790 338
4026 214
8344 301
8794 147
791 72
6272 72
8193 49
2822 234
2912 290
793 143
7338 143
794 462
1982 288
3022 288
3150 217
6608 402
7557 9
796 67
1656 179
7246 67
797 77
4913 77
5495 77
5850 77
6780 77
3123 49
799 278
1768 278
2617 278
800 307
6680 307
6827 307
7311 307
801 106
7982 298
9314 106
9348 106
9535 99
802 316
2263 316
2831 316
3471 316
6038 316
6142 316
8759 21
9013 244
803 117
1636 117
2932 117
3531 117
3566 117
4799 117
804 220
6077 220
8592 220
9391 147
2690 406
6712 49
9243 21
1366 355
6713 25
807 60
906 214
9477 108
9822 60
808 299
5125 171
8443 9
809 16
7407 397
8623 120
810 435
2119 406
6938 435
7142 435
811 289
3515 320
3949 367
4820 201
8243 197
9986 13
813 240
5773 359
9154 52
814 266
1608 266
4653 97
7657 175
9097 213
815 429
4248 466
6686 429
6809 429
8040 429
9000 244
816 315
3067 353
3986 315
5414 315
8924 247
817 232
5262 232
5874 475
7568 20
6529 393
9238 223
819 410
1337 410
7241 410
8031 410
8311 410
8454 410
820 238
2782 486
8523 134
8595 85
8973 129
822 320
2807 333
4054 320
5136 320
6345 320
6445 320
6636 320
7690 171
823 54
3096 253
3981 253
6456 338
5910 483
2413 337
5296 69
827 123
854 123
1610 123
2560 123
2893 123
3136 123
3175 123
3674 265
8109 311
9098 146
4481 171
8111 176
829 185
2577 185
5646 185
6654 228
8685 241
8823 129
830 408
1403 408
4907 408
5321 129
5325 286
6080 408
9050 181
831 214
1868 214
2892 214
3939 214
832 267
3839 485
833 168
1479 132
6679 105
7976 168
8149 53
834 214
1463 214
2676 214
7958 22
8296 99
7353 15
836 381
2836 81
5483 381
6871 466
1474 432
1836 432
3594 475
6037 100
8378 134
7120 100
5420 49
8365 52
2160 348
6625 205
7600 205
8562 205
8601 205
9227 205
9241 205
2042 21
2116 197
9068 217
844 150
2020 459
3132 150
6689 205
7253 150
845 31
5739 7
5883 31
5994 31
6388 31
6461 171
8185 43
846 266
4013 266
5330 430
847 485
3516 386
4621 468
5564 485
848 125
1281 125
4569 125
9058 125
4109 147
9782 3
850 168
4236 485
6942 341
8895 168
851 30
4696 30
5284 30
5447 30
5972 30
9964 104
852 138
1996 69
5944 286
8805 138
2408 310
9903 85
1343 123
3110 123
7062 380
855 261
1830 416
2907 291
4662 261
7780 261
7861 167
8353 261
8854 261
9089 261
856 440
1665 440
1822 398
3133 440
5214 440
857 450
7531 450
7886 450
7964 138
8624 85
8636 450
8783 450
8953 450
9002 450
858 117
3558 117
9707 193
998 39
4693 331
5354 39
2850 212
3945 212
5688 212
8316 212
8434 212
8621 212
9468 8
862 241
2972 486
5042 397
8849 53
9558 217
9607 217
865 225
1957 105
5533 85
7022 225
7908 225
3864 24
7166 372
1248 487
6478 36
6658 27
8602 27
868 164
7184 146
2094 215
8747 27
870 244
1598 484
1624 213
6964 244
7083 244
9574 112
871 219
6766 456
7966 391
9530 64
872 410
5869 410
5919 410
7703 410
8383 73
9193 247
3813 61
9119 155
874 264
1120 264
2558 289
6503 264
7764 264
9445 71
1044 485
1554 100
7498 94
1310 403
1856 212
7777 125
9703 94
877 382
4127 382
7178 212
878 290
3191 204
5892 290
8153 290
1140 464
880 27
5650 27
8880 27
9597 27
9690 27
881 355
7823 355
1703 189
6896 361
9961 94
883 436
5559 62
9561 380
884 389
1969 22
2470 389
4968 389
6355 389
6891 112
5189 217
2169 458
9114 129
888 158
3630 315
6512 158
6640 158
7350 365
7553 158
889 463
7441 52
6228 424
7771 35
8462 380
891 321
7377 57
7751 321
7783 321
9292 321
9647 146
9838 321
9859 321
9937 7
892 118
1959 118
4771 108
6845 200
893 474
2471 474
5191 474
1031 33
6359 313
6517 428
8777 156
895 469
2142 469
3021 469
3424 469
4272 469
4515 469
4558 246
7788 43
8403 14
896 347
993 347
1061 347
1513 347
1718 347
3616 347
3980 347
897 314
5095 44
7940 26
9540 57
9993 21
898 21
9003 116
9363 129
9973 21
4888 361
7057 42
8421 372
8832 42
9628 42
9718 42
900 34
1485 34
1702 34
3621 34
4031 34
4216 34
4627 34
7585 213
9843 3
902 258
3738 386
8188 3
8511 193
3242 239
1633 109
2175 362
3289 109
8298 181
905 37
2520 448
6226 37
8472 125
4589 292
907 33
1962 33
2351 21
6816 241
908 347
2136 347
2635 340
2916 347
7933 358
9412 197
909 85
5611 85
8764 85
9242 85
910 133
1298 427
1233 104
9656 104
4397 52
913 387
2751 387
3488 463
4098 480
4997 387
7469 387
7803 387
914 234
3398 453
3661 212
4213 424
915 462
3041 27
3897 471
7544 124
8958 155
916 21
917 27
3620 99
9946 27
2260 108
9811 108
9879 108
6738 223
8306 484
920 89
970 89
3729 89
921 362
1641 362
5695 362
5842 362
6433 362
6482 484
6542 362
6595 362
922 6
1634 94
1993 26
6823 6
923 231
2197 231
2204 140
924 263
3000 21
3157 263
8925 151
9463 151
5977 40
926 317
2357 317
7009 322
927 72
1660 72
2978 291
8493 397
8795 104
9721 155
2139 481
4148 481
4442 481
4524 481
4721 481
4743 481
8957 27
929 178
3170 275
3435 388
3749 178
4889 211
6698 178
930 250
1206 250
3075 250
3705 250
4376 250
5821 250
6321 478
7830 23
931 136
5362 120
6804 192
4178 63
5985 63
7655 365
8656 52
1184 289
7734 23
8192 138
8466 113
2305 254
3760 449
9790 197
935 204
968 298
7805 204
9311 94
936 293
3297 293
3527 293
4422 293
4556 293
7522 224
8922 139
1928 286
2150 288
6130 370
938 134
1844 112
7093 134
8080 134
8457 134
8635 120
8716 71
939 295
1362 295
2161 295
3359 295
4069 284
8792 15
7007 175
9786 27
943 124
6005 321
7145 124
8115 23
8714 124
8913 124
945 110
5026 31
5316 110
5818 3
6200 110
7105 110
7165 110
2906 38
6956 380
947 199
1747 486
2404 343
4343 161
5175 199
6674 199
9416 318
6767 298
9281 298
9884 298
3723 114
7242 49
7414 49
950 163
2837 163
2865 163
4583 163
4773 163
5179 483
5324 163
951 285
1176 285
1876 285
5048 285
5187 285
952 340
6108 340
6158 74
3496 23
8404 484
8982 23
1005 223
5197 197
3334 383
4460 414
956 296
6684 8
7260 296
7547 286
8245 286
7276 97
7641 147
958 443
1065 443
3741 443
4202 443
5331 443
5597 443
5749 443
6336 226
959 430
1408 430
1548 430
1615 430
3069 75
3560 234
4199 180
4484 430
960 461
3034 461
5758 461
2643 431
7878 146
2288 36
2372 257
5784 402
963 68
1738 68
4086 68
5863 150
6424 124
7144 301
984 107
5148 331
1729 231
3064 473
8713 276
966 36
2982 469
3711 464
7122 439
9635 36
9817 36
967 145
4856 145
7048 284
969 244
6832 244
8390 244
8470 393
3707 89
5531 89
8616 286
9327 171
971 208
7638 208
9482 64
9830 27
972 359
7867 311
8814 359
973 102
7837 147
2467 70
3134 135
3827 70
9122 52
975 265
4222 323
976 293
977 321
5751 321
6708 169
978 435
2909 435
5728 435
5824 116
7802 402
8956 311
979 285
3511 172
7013 20
980 386
1986 386
3606 198
5280 386
6281 57
7432 74
2317 109
4863 356
7680 156
7724 151
982 473
2669 473
3178 473
3845 473
4544 473
5322 224
5383 53
2358 76
2140 232
4274 350
1249 289
6895 289
986 129
8052 129
8645 216
987 413
3379 110
9624 8
988 434
2095 434
7851 228
1913 308
990 77
2345 77
2674 83
5760 77
991 349
2990 349
3042 349
3528 464
6087 363
6883 100
2573 315
3423 315
4313 315
4449 315
8061 145
9207 94
994 314
1013 190
8485 53
9261 120
4894 151
5271 467
9330 223
9975 7
7567 168
8291 298
1709 16
5880 355
4494 382
4951 169
1003 119
1392 119
3745 456
6970 119
2010 312
2324 116
8448 223
9297 223
2235 385
4726 86
5313 172
6772 269
7609 155
2421 90
2190 379
3148 152
1010 80
3206 193
5014 484
1011 196
7398 380
9317 196
9723 196
9906 402
5335 190
6406 190
6955 190
7397 190
3740 48
5031 161
5435 192
5638 161
8474 183
7526 106
8420 42
9128 106
1016 448
1224 448
1229 448
2856 448
3071 448
3109 448
4293 448
7832 151
8936 207
1017 295
1519 295
1773 71
2611 295
4927 295
5028 295
6700 7
6859 459
1018 93
1791 391
2117 93
2156 93
3607 93
4862 93
5113 93
5428 376
1020 361
6906 424
6915 361
7058 361
7369 147
7516 361
7622 361
1021 64
2964 74
8585 64
8587 64
1022 378
5656 378
7187 378
7380 378
9386 57
3094 460
6241 391
1024 85
2718 249
5734 139
8824 85
1025 289
4492 68
5754 176
7206 286
9258 19
1026 134
5123 448
7676 318
8171 134
1027 469
2567 469
3403 413
1029 471
1211 471
1724 471
2623 318
7481 241
1030 96
8000 32
7923 203
4264 120
9697 27
1033 472
7599 472
7741 472
8157 472
2343 201
3538 201
3940 417
4282 417
7073 52
1035 415
1450 415
2479 415
3035 415
5990 97
7011 120
8067 372
1036 159
6637 73
9449 60
4183 195
9218 262
1038 420
6215 420
7435 85
1039 312
1469 312
1877 7
4567 312
7706 301
8154 342
8288 301
1042 452
3053 99
7905 155
1043 271
2387 271
7843 271
8835 276
2627 364
3819 364
9165 56
1900 438
2523 407
1047 301
4004 99
6040 94
7474 56
8537 301
9399 206
3027 71
8015 193
1050 371
1772 389
4818 486
7020 371
9592 3
1052 253
3861 253
1053 16
8694 276
9146 42
1054 375
3493 375
3831 375
1055 151
2004 242
2763 151
6493 438
9111 151
9161 151
9537 151
1056 376
3482 376
6853 376
9551 43
1057 133
1786 133
1916 133
1058 58
1059 399
2517 399
3995 399
4029 399
4078 329
4521 399
5456 399
1060 215
1196 270
1482 170
1789 215
4670 2
1062 438
2210 438
4252 438
5312 438
5384 438
1063 321
8022 321
8740 321
8912 49
2184 304
2853 35
3971 304
5711 62
3348 443
5499 321
6663 277
1066 331
6068 331
6953 331
7330 331
7817 331
8970 58
1067 168
5076 43
8530 168
1623 376
3791 311
5178 333
5098 328
5382 328
6425 207
1070 9
2527 367
6794 365
7158 9
1071 0
1632 0
3319 483
5152 313
6643 180
1072 283
4747 283
5481 175
6296 94
3015 295
1074 85
6745 475
9566 85
9677 27
9816 85
1075 44
3222 106
4398 44
7922 44
1076 327
1470 327
2943 327
3065 327
3916 327
4221 327
4944 228
5200 327
1712 117
2376 117
2882 117
3810 207
1078 341
3878 23
9511 206
1079 340
3382 94
7391 9
5003 11
5286 11
7422 57
1081 362
4212 362
5685 424
1082 401
5334 401
6246 401
6250 32
8563 247
1083 188
3066 188
3797 172
5529 419
5895 55
1084 33
2542 33
7550 197
7846 439
9197 42
1085 309
6203 309
1086 398
2383 398
2452 398
2668 322
5997 251
2400 294
6537 466
1089 461
2381 461
3205 461
8129 22
8820 32
1091 255
1872 255
2555 255
3244 255
5184 255
5440 255
6078 111
1092 206
7252 427
9464 167
9620 206
1093 350
2789 350
4077 363
9251 100
1094 416
6880 416
7709 416
6773 39
9642 402
1096 295
5938 464
8803 301
1097 233
3173 233
4688 103
1098 361
3322 387
1100 422
4330 422
4450 422
6420 202
1599 119
6532 48
1103 74
5346 32
5399 74
6902 74
9253 206
9374 74
9524 74
5516 372
5940 179
6545 147
1105 383
1858 374
8903 49
9093 206
5544 229
6376 286
1107 51
3721 51
3917 81
5886 51
7924 313
3777 85
7942 207
9326 207
1988 250
3859 250
5613 439
3381 89
5295 350
6041 198
8202 198
2766 140
5199 140
2130 169
3412 51
1115 73
4041 9
9483 73
9804 73
5434 482
1117 275
3161 111
3578 112
3624 275
5601 275
7939 393
9323 7
1369 141
1785 196
1225 1
2298 119
2475 264
5767 264
6074 264
9968 52
1121 52
4873 224
7868 56
9096 52
1122 411
2023 411
3010 411
5250 411
6629 393
7489 138
1123 406
8308 52
1125 6
8170 71
9534 52
6166 228
7440 15
1127 347
5083 193
6793 475
2003 427
1129 359
3363 250
7699 359
7773 262
1130 19
5228 1
7212 19
7916 19
9564 19
9683 19
9757 19
9823 19
1131 223
6299 49
8665 223
7952 402
8417 64
1133 273
2513 273
4321 96
4393 273
6382 348
1885 119
2242 119
3213 156
9210 73
1136 388
4064 388
4220 388
7616 216
9304 207
1137 232
3812 232
6768 71
1138 117
9553 135
1592 339
2661 290
6187 290
7198 290
1376 464
1751 464
2857 464
4594 464
5657 464
8939 424
2574 69
5218 69
6920 69
7084 69
5761 246
6216 243
9758 196
1492 110
4554 88
5491 88
5871 88
6159 88
6303 88
3119 120
3476 344
5921 292
8309 120
1145 5
2241 5
3847 5
3901 5
4358 5
4432 136
4530 5
4858 5
9733 27
1147 452
2448 405
1148 137
9573 104
7411 22
7541 22
8833 61
1150 103
4389 103
5720 103
5738 103
5861 103
9717 13
1151 389
3288 389
6479 389
6649 389
1397 335
1922 221
2866 221
3074 221
1153 391
4595 423
5941 428
7349 391
8663 391
9231 247
1154 114
3243 18
5925 114
6380 114
6576 114
6651 114
7527 114
1155 386
2194 119
5145 303
5671 386
2483 448
9095 155
9720 49
1157 61
4663 170
4761 61
5614 53
6662 61
7523 61
9781 61
6701 218
8272 176
1159 276
2554 414
7587 26
8596 276
2915 169
2981 285
1162 188
3628 188
4616 188
7193 427
3550 142
7421 313
9912 181
3185 372
5867 113
6677 113
7816 456
3802 236
6607 236
1166 288
1975 21
6881 183
1167 227
2195 227
3757 227
3962 455
4713 227
5395 227
9431 380
1886 483
2590 483
4053 483
5915 52
9550 135
1170 92
2076 92
2123 92
3156 236
5518 92
6311 92
1171 191
1291 191
2390 400
5680 46
1172 120
9760 146
1173 217
4056 160
5808 23
2322 420
3154 420
3792 420
5540 43
9169 348
5310 356
8896 74
1478 466
1179 360
1935 360
3645 360
8305 62
9636 146
1788 272
1808 272
3122 272
3182 272
3586 272
7264 58
8719 61
7471 186
3430 384
4954 484
2240 289
1185 156
1937 25
2021 156
2673 428
5202 156
7852 156
8400 271
1188 48
9691 71
1252 162
4731 162
7172 23
9513 247
1190 116
2232 4
4168 116
7483 344
6941 57
9135 358
1193 335
3907 335
5068 335
6308 172
1194 49
4307 331
9145 49
5745 268
8582 271
3793 270
4506 270
4572 74
6050 122
1197 94
8746 94
8837 94
9377 94
9687 94
1198 220
3670 203
7744 186
8121 393
1201 267
1483 267
6409 52
1202 207
8744 207
9248 99
8810 202
1204 181
4473 403
9819 181
1953 108
3642 295
8141 132
3341 475
6508 456
1207 464
3135 464
8440 402
1208 179
1219 106
1965 102
2871 179
5525 110
1209 204
8300 167
5726 416
9585 262
7652 279
2859 27
6175 153
8528 62
1842 202
5244 281
5565 71
7692 73
1214 64
6326 62
7745 64
8520 372
1215 34
1401 34
1216 416
4323 416
9133 262
5928 286
1218 378
2192 459
4933 322
5209 378
5593 378
9649 99
9815 196
1220 40
8534 125
8907 53
1221 149
1532 429
6018 149
1862 29
3641 355
9057 402
1223 101
5849 60
7449 101
9274 7
8473 7
1227 406
2677 402
1228 5
1423 320
7280 390
1230 266
4256 455
9182 104
1232 93
1625 55
5004 93
9043 262
1417 61
7378 104
7530 3
8127 49
8225 104
9977 104
1234 95
1324 340
3854 95
5503 95
6668 338
1236 412
1627 373
6541 412
7205 412
8852 151
7800 271
3442 249
4124 249
4928 135
1743 396
2096 396
1240 64
7040 64
9223 64
1241 2
1903 2
2059 262
2419 2
5159 2
7938 9
1293 439
4100 211
6790 361
7054 361
2191 68
8533 247
8594 57
8985 155
1244 135
7659 135
9378 135
9454 135
1245 151
4107 151
7041 197
2056 107
3024 470
4971 142
1307 487
1943 487
4334 487
4652 487
4678 487
4869 487
5339 487
8543 52
6982 241
1998 394
7949 13
1253 22
3018 22
4136 193
8134 147
1254 188
1473 348
2546 188
5920 441
8044 49
4973 56
6972 53
1256 366
1690 366
3405 366
6614 184
1257 316
1435 316
2701 414
2967 316
3693 256
1847 460
2200 21
1259 105
1787 481
3303 105
5172 105
7603 311
7809 105
1260 338
4805 71
1947 242
3877 155
4209 242
2073 169
8195 380
1265 195
2002 195
3184 463
1267 53
6860 53
7630 53
7822 104
1268 27
3982 27
6628 27
9927 193
1269 145
7766 145
9355 155
7863 269
1594 100
9339 311
4692 367
6034 58
1354 165
2911 165
4906 170
1274 373
4058 373
5263 105
7221 373
2777 38
8754 64
8796 106
1277 99
4071 104
4453 99
6385 146
9183 99
1278 352
3817 352
6740 220
7366 49
9345 100
9749 108
4668 448
8215 217
1282 83
1481 71
6190 83
6598 83
6862 83
1283 320
6453 320
7282 3
7972 27
1284 125
7389 125
1285 296
1286 262
1536 159
2159 7
9202 100
6603 284
8555 57
4367 447
5599 447
6150 447
6210 129
3353 59
3492 111
7605 186
1823 191
6961 260
5893 184
5247 439
6100 439
6393 192
7417 439
7718 439
8660 439
1578 287
2473 287
7619 20
9546 62
1295 143
2062 118
8416 402
5964 4
6998 427
7135 427
9803 167
3868 463
7945 43
1300 23
3093 146
4175 186
5799 204
8955 23
1301 209
2988 209
1302 276
2631 135
8476 108
9298 276
1303 53
4764 261
5069 315
1305 299
4491 299
5198 299
1306 448
1487 80
1776 448
2463 448
3151 448
5373 63
3955 487
4778 487
1308 331
7098 18
7304 331
8822 23
1974 50
2153 50
6562 57
6685 213
2009 403
3657 403
4741 196
4903 403
5560 391
5724 403
6184 403
6621 36
1576 63
3739 20
8816 167
1314 124
3126 85
8964 124
9998 124
1315 304
1352 146
2410 82
2648 371
2939 304
3646 304
4049 304
4162 304
4177 304
1316 4
6422 134
8451 4
6297 3
1319 139
2741 139
1320 365
3367 454
5211 190
7897 365
8678 193
1321 446
2083 446
7003 197
7524 397
9255 62
8575 19
1323 382
8662 344
3690 151
5032 340
1325 323
3072 323
3637 323
4099 323
4159 323
4550 323
4400 227
5903 124
1327 372
1893 372
6372 372
8839 372
1328 200
1910 238
8591 120
1329 100
6907 100
9444 155
1330 399
9020 106
8030 13
1332 163
3689 163
4938 7
7267 202
1333 252
4605 68
5899 205
7754 27
1334 155
3638 36
4861 366
8639 182
8878 21
8879 155
1336 213
1800 99
7615 213
9017 23
2438 410
5905 260
7382 106
8483 85
1338 225
3193 225
8219 202
1340 430
2216 430
4503 430
9716 36
5240 213
9103 155
9354 155
9820 155
9893 155
1342 91
5653 53
1825 123
2753 301
8750 73
1346 253
1972 71
3618 220
1347 367
2498 367
2838 367
3331 367
3756 367
1348 88
2645 88
3079 88
3884 172
1349 261
7237 261
7320 261
1350 115
4965 115
3118 36
4597 241
7778 146
8556 146
1445 239
3446 97
2626 467
9962 71
1356 352
1958 486
1756 151
2301 477
9094 151
9213 151
9249 286
1359 150
6921 457
3304 410
7584 217
6244 46
2339 122
5403 184
1705 137
1365 400
3786 400
5112 454
2721 95
2013 125
7720 372
8255 21
9370 135
1370 7
7225 7
8189 7
9131 7
9755 7
4102 78
5596 48
8086 67
3007 343
3258 343
4057 343
4477 343
4532 343
7663 456
3863 103
3776 351
5059 124
1377 178
3215 392
5110 178
1379 470
1832 470
9654 146
1380 475
5421 475
6350 36
7108 475
7161 475
8210 49
3968 220
5252 290
1382 135
2171 482
2267 372
5988 74
9346 52
1383 124
5692 147
9340 85
1384 268
2474 268
3044 268
4263 268
1385 27
2500 142
4040 142
4431 142
3744 478
6086 478
1388 146
6058 429
6304 346
8495 146
1389 150
5772 150
8938 74
3519 248
2616 119
2953 52
8479 15
1393 284
6688 284
7385 25
8648 269
4165 455
4291 455
1396 95
4522 269
5765 243
6365 19
2604 481
1399 44
6485 301
7626 44
9090 279
9216 3
9448 44
1400 51
7582 52
7688 439
1719 34
2700 163
1404 386
8218 313
1405 53
4297 356
6429 53
8819 348
6049 112
1407 7
4011 7
7643 125
8612 7
8863 7
9046 7
1968 83
4324 71
5576 387
1409 74
2356 411
3443 58
9704 74
2553 340
7428 61
8831 19
4703 438
1414 181
3942 416
6580 46
8333 181
4732 180
6844 180
8724 3
1934 64
7808 23
1421 260
6139 260
7236 260
4027 320
1424 395
4547 395
8906 94
8987 132
3503 3
5105 4
3773 27
4443 15
1427 168
4926 167
1429 367
4918 367
8813 182
1430 135
3699 71
8077 135
2039 423
4194 423
4887 423
5166 100
1433 480
3669 61
4815 480
5130 480
5204 480
5406 480
5573 480
9032 71
3318 458
7092 380
7747 64
9212 213
1436 27
7223 276
7327 27
8606 151
9309 27
7064 321
9604 380
1439 50
9087 380
9855 52
5030 156
6673 48
1538 2
1569 225
1642 172
5397 251
1443 8
9106 8
9527 8
9719 71
1444 159
3677 278
1446 5
3241 5
1448 361
1499 415
5158 27
5500 147
1451 456
1693 456
5835 456
5232 55
1453 472
2827 472
7160 472
1454 396
2855 7
3612 396
3712 396
4711 284
3345 453
7662 108
8267 14
6897 342
9239 402
1457 281
1926 281
6626 7
6765 122
1458 473
2363 58
3688 473
8173 27
1459 293
1609 293
8373 223
1460 457
5377 457
5664 457
7214 457
7309 457
7314 457
9992 27
3365 124
1778 94
5884 160
2465 468
3967 468
9074 36
1465 103
7271 390
2048 414
5698 145
1941 211
1468 254
2316 342
2870 312
7574 3
5238 327
2488 187
7490 60
3882 312
8139 167
8996 71
8123 167
4715 42
6125 42
8048 358
2289 315
5439 160
6781 466
6867 466
7654 132
3287 188
4920 379
7018 450
3609 53
5494 71
5957 71
1562 170
4809 170
5479 170
7563 181
1484 110
6519 110
6806 110
9734 380
1486 3
3261 213
6202 3
7482 3
1907 396
6072 182
1488 114
2478 114
6634 114
6878 114
1489 393
5660 393
8347 393
8527 262
6916 97
7316 243
7981 23
2830 305
4247 475
7973 380
2525 78
1495 74
7196 74
9067 74
1496 310
1908 426
1497 357
2919 357
8877 49
1498 9
9198 286
1501 3
6459 3
9688 64
9739 151
8145 207
1504 192
2215 306
6220 192
6249 43
1505 428
6929 428
7298 428
5868 270
6217 64
1507 414
1661 414
3195 414
7520 132
7915 244
8276 78
3291 477
4381 208
4384 477
7602 121
2816 259
9491 94
1512 251
6004 48
7799 251
7831 251
4654 248
1514 159
5044 475
7261 9
1517 326
5233 326
5888 424
6185 397
1518 3
8197 136
6036 79
2897 67
7168 67
9577 380
7071 105
7983 49
9950 155
1522 68
2018 68
2781 68
4240 68
6134 243
7613 186
1657 384
1631 414
3038 19
4017 144
3231 56
8834 49
4712 425
7772 60
8408 247
8830 247
9712 247
1531 396
8487 135
2826 175
4790 429
7794 429
1534 242
1818 139
4357 57
6940 61
1535 355
3352 246
4749 36
8860 217
6644 389
9767 71
5114 105
1539 328
5140 328
4986 197
7670 124
1542 153
1845 153
1543 295
3005 327
2938 59
4814 23
1546 60
7315 226
1989 275
4169 291
1550 55
2863 55
5367 55
5640 55
6111 55
2899 312
6873 181
8471 380
6927 138
2114 428
9063 424
3668 410
1556 120
3336 439
4582 101
7134 167
8560 120
1557 231
2180 231
3438 231
6739 67
1558 484
2733 270
6116 484
6387 484
6259 44
6384 69
7274 105
1774 75
2080 9
6699 54
2813 94
4563 170
1563 190
2007 190
3581 190
5329 36
8409 333
1564 136
1750 104
7801 136
8706 136
9054 136
9853 136
1688 101
1566 87
1978 350
3562 155
1568 125
8201 125
2091 257
2951 153
1570 412
1861 321
2933 55
3238 326
1572 268
3909 268
6352 268
6391 268
7374 205
1573 36
8200 36
9515 36
1574 39
5991 26
9269 85
3902 3
4895 2
5118 376
1577 104
9850 104
8431 57
1580 413
2776 413
3857 155
7934 450
1581 358
2703 58
4967 358
7008 358
7484 147
8711 358
1582 216
8608 216
1583 130
1960 130
6062 49
1585 209
4844 246
5804 31
6027 247
1587 80
3470 78
5368 484
2198 131
2585 131
4287 131
5109 158
9224 13
5046 325
1590 437
2549 437
2992 437
7345 181
1591 312
6877 196
7025 144
2331 339
3025 339
4781 339
5188 21
1593 81
2651 81
2864 30
4021 81
4974 81
5216 81
5220 81
6665 100
9562 100
5951 79
7420 155
9792 100
2501 312
4402 312
2148 119
1600 43
4480 457
1601 439
3100 439
5259 139
7731 439
3495 69
1603 158
5070 158
5974 158
1604 2
4079 2
1605 298
2582 298
7485 298
9579 181
1606 194
6055 194
4828 82
5230 82
6857 82
6886 129
7326 82
2746 99
8917 247
1612 67
6543 67
1613 279
2687 218
4898 218
7681 218
1616 485
1790 356
4777 485
2575 301
8013 167
2538 193
3013 27
1620 297
2167 297
2445 297
4076 217
7450 25
6115 21
1622 125
8047 213
4961 55
7753 62
5308 129
9621 129
1630 175
2983 255
3232 102
7269 62
3189 315
5436 380
7815 358
3357 441
1635 425
2735 425
3767 425
4042 311
4074 425
2313 47
6821 48
8494 342
6194 363
1638 170
4189 170
7313 151
1639 172
2706 172
3171 172
3683 172
5473 52
6748 428
8002 269
2086 172
8256 151
9189 108
1643 426
6855 7
7370 63
1644 420
2221 200
5555 457
4782 52
6971 23
1647 26
5651 26
6534 26
7324 26
8242 61
8329 26
1648 188
6944 62
2543 260
3828 355
1921 222
3099 222
1653 341
6182 341
2460 53
5975 217
2765 355
8914 311
1659 27
6984 27
3552 414
1662 103
2424 103
2446 103
3467 103
3551 103
4821 103
6093 151
7181 144
4418 168
1664 468
8718 318
5865 367
1666 324
6028 324
1668 21
7363 21
7943 21
9474 57
1670 399
2731 466
9419 85
6830 116
7918 116
8564 116
7932 49
5055 21
1675 466
6549 262
7984 168
2214 307
9365 247
3626 186
3229 419
1680 207
8584 32
1682 277
6671 277
9521 71
8376 49
1684 333
1824 293
5090 333
6887 333
6957 333
7685 333
1685 130
2275 284
9668 49
5345 61
9081 61
3565 101
4253 101
7717 116
1689 27
3298 27
4288 366
1691 179
3932 179
1692 103
6922 456
7608 456
2115 238
3314 397
1695 53
6477 171
8951 53
1696 392
1901 129
2937 392
4160 392
5741 196
1697 262
4584 268
7290 64
1698 177
6495 19
7447 177
9155 213
1700 256
5430 256
1701 446
2484 57
7465 202
7215 26
3001 128
1706 104
8175 7
1707 110
9902 73
2224 321
2747 92
2944 92
6238 73
1710 25
5501 380
7890 298
8081 25
8301 25
8437 25
9426 52
1711 187
2199 301
5300 187
9479 206
1713 79
2162 317
7368 79
1714 87
1715 237
3681 265
5719 402
2290 346
7045 276
7461 27
3835 178
1720 226
4275 226
7296 226
5019 216
8959 124
1722 278
2477 278
1723 151
6124 224
8082 151
7653 71
2225 110
4339 243
8412 183
9192 62
6044 155
7076 136
8273 224
1730 137
7827 318
1731 302
1732 19
8738 19
9509 19
1733 372
8140 372
9315 18
1735 166
5854 393
7505 147
1736 185
4311 185
5018 185
1737 293
2258 293
8049 60
2531 193
1740 136
1741 44
7063 44
1897 171
7736 298
6876 211
7866 94
1744 296
4754 147
6273 19
1745 395
2595 307
7695 8
6204 22
8707 48
2375 486
2563 486
4631 486
1748 334
6681 334
7989 43
9814 23
1749 475
4261 83
8717 104
9489 104
6104 9
5301 322
9865 167
1753 158
6510 151
1755 147
2770 480
8664 147
7682 438
8708 7
1757 382
4255 382
7392 416
2713 256
2065 304
1954 29
2183 52
1826 273
1766 337
7967 206
1767 125
6347 139
8700 52
1769 72
2277 100
6148 24
1770 397
8381 397
8630 397
3676 355
5234 389
7506 71
2946 225
1775 218
3853 218
5474 218
6070 121
1794 57
2908 448
9368 57
1777 246
5049 100
6770 246
6778 246
7155 111
7364 246
7514 246
9866 94
1779 33
3378 71
1781 174
5632 35
7956 393
1782 103
3061 103
3846 103
2134 146
5668 97
6707 97
8017 183
8532 183
2603 20
4387 324
4642 338
4246 101
9109 49
2649 374
2950 272
7234 48
1793 459
3963 108
6447 459
8363 146
4600 57
7649 106
5830 321
6167 182
7919 15
7650 223
1798 53
7476 265
1799 193
4286 49
8901 193
9252 193
9518 193
2141 193
6327 193
6837 193
2177 177
4730 299
2683 55
1804 309
1805 7
6201 156
9117 7
2761 55
3589 370
3764 27
1807 248
3284 73
6067 182
6484 182
1809 151
6412 151
2008 152
1811 367
2295 171
3290 108
5391 367
1815 151
5610 466
8658 151
5375 321
9289 49
7595 139
1819 391
1820 24
6774 410
7511 24
9105 402
3572 313
1850 398
5217 398
5493 381
4299 36
6820 391
3972 3
5791 111
1828 166
3692 362
1874 479
5463 446
8981 53
1833 447
5171 334
2437 82
3874 100
8151 23
4461 389
6967 338
7055 338
1839 450
5667 313
1841 39
1992 39
2294 193
3202 138
9769 286
8423 202
9705 112
9890 112
3179 181
1846 175
4748 334
4193 460
4470 460
7046 134
1848 27
8034 181
4153 44
1851 407
4669 262
5328 212
6349 212
1870 367
4475 108
5452 42
6723 99
2099 236
7427 247
9672 62
1860 161
4386 49
1863 291
4197 291
7333 57
9523 197
1864 264
2280 264
5729 264
1865 359
7068 359
1866 209
4008 209
5993 209
7701 450
8469 279
9048 8
2660 367
3349 48
8240 104
2592 479
2650 46
2917 479
3180 479
4285 479
4512 479
7811 15
1878 286
8319 49
8790 286
8793 286
1879 238
2505 238
6442 410
1880 11
7029 201
7529 201
8725 74
1882 74
6051 49
2335 167
1917 483
3377 483
1887 88
7240 380
6317 143
1891 102
4855 102
8071 311
6483 372
6102 441
3374 49
9141 53
7245 171
8915 171
2715 86
4465 86
1899 100
6924 100
2581 438
9899 49
7224 129
1902 380
8785 380
8926 129
4577 2
3659 12
6650 456
7566 416
7467 279
9044 52
8800 146
1912 486
3559 486
2833 64
3315 38
7798 48
3325 213
5574 483
1918 346
4233 346
9203 71
2965 459
7024 106
1923 384
5060 58
1927 230
3004 168
5636 224
8997 286
5687 44
1930 151
6316 108
7021 151
8360 151
1931 318
7061 262
7756 318
8995 318
1933 19
2254 305
6935 94
3887 71
4486 327
2948 440
9957 146
5274 14
8983 224
1939 484
5253 484
7759 484
3658 363
8227 211
8249 211
1942 104
9471 23
9175 8
1948 120
2586 136
8352 120
2589 139
5707 147
1950 405
5102 405
8940 358
9678 167
1951 53
3523 66
7723 108
6268 108
9662 108
8436 27
1956 132
3146 344
5954 54
4586 311
5550 429
1963 96
5686 387
8165 62
3629 305
1966 21
2771 323
4434 311
3347 67
1970 105
3217 269
7985 71
9818 380
2929 223
8356 21
6934 167
6243 186
2213 350
1980 332
9486 23
6875 25
7575 25
5143 9
4787 301
1984 36
5704 346
6012 100
3530 370
4960 62
1991 269
4134 197
7222 269
8313 26
1994 112
9552 3
3361 35
6864 247
2001 328
2593 328
2041 163
6193 427
6511 427
7519 14
3794 318
3220 190
4991 19
8625 74
2657 403
4260 403
6605 346
3421 49
2011 333
2920 218
2012 286
3023 286
5177 243
7927 125
8722 125
2015 338
2861 482
3145 68
7558 167
7325 156
2022 224
6833 224
7577 60
8840 224
2024 99
6792 476
8146 196
7499 183
8126 183
2027 227
4520 412
5272 427
2029 365
5268 202
2030 113
3308 261
6396 160
2033 199
4388 199
6498 224
9008 108
2034 276
2038 77
2082 218
7365 216
6310 467
3977 114
2046 209
3302 450
3996 209
2624 414
6812 64
2049 309
4876 309
9770 62
2051 431
4374 345
5370 318
2052 372
7911 48
8155 78
2118 64
9244 286
2054 401
5451 401
5602 261
3788 311
2058 182
9070 217
9531 182
2060 156
4344 369
5702 265
5827 52
2061 218
3848 218
2063 121
2607 484
4369 121
2068 20
2069 128
2406 112
3479 128
3604 128
3770 128
2070 122
7456 122
7959 74
2071 187
3047 187
6619 187
7357 7
6162 223
2074 182
5208 151
2075 115
3898 115
4207 92
7287 147
9383 380
2078 153
2081 232
5521 49
4044 446
8544 342
2085 243
6191 371
2415 172
2090 251
2695 251
4789 251
2828 183
8271 73
4239 236
2098 441
4649 441
4691 441
6151 441
6419 441
2101 271
5716 307
7839 271
2102 251
2103 327
4336 476
4733 327
2104 64
6693 85
7239 279
2105 237
3020 237
5547 78
5319 212
5856 284
2110 244
5343 427
6791 52
7128 244
9872 52
9928 52
5505 355
5246 167
7992 211
7743 146
2125 305
2679 305
3497 305
3517 305
4340 305
2126 75
2127 106
7331 106
8919 106
2128 32
5080 241
9995 19
2129 61
9572 61
2132 14
4620 333
4717 85
6928 14
2133 202
5743 120
3639 427
8422 146
2135 367
4131 367
5526 79
7277 8
2138 254
4658 232
2364 193
2601 459
5616 47
6523 116
3590 224
3632 53
2146 212
4834 212
7840 212
9138 23
4295 119
2806 182
7463 359
3667 100
5733 85
2684 327
6687 205
3539 294
2155 27
5545 439
8169 104
6577 20
4679 422
8089 7
2545 435
8172 265
8998 182
3060 106
5276 146
6337 48
3375 419
7095 371
2166 423
2883 423
6340 48
2596 458
3763 458
6377 213
2170 307
5960 478
2172 270
7848 313
5642 30
8620 100
2176 373
4513 373
6682 177
3486 56
6440 168
2179 21
4316 392
8650 171
2181 62
5275 62
5859 286
6105 62
7052 62
7491 303
9270 129
4217 393
2185 11
2188 6
7341 6
2502 68
2193 35
2469 35
6205 35
7347 181
8679 344
4073 480
3633 172
8972 49
2202 477
7487 365
7825 49
6107 359
7765 100
4292 37
2209 348
8023 269
6846 211
2212 296
3070 307
6400 307
4478 181
2219 379
7598 73
2222 36
2312 36
2223 384
5292 74
6969 321
8144 94
8346 321
8874 321
2226 322
3715 322
4106 324
6113 24
2368 86
5606 97
2231 124
4025 294
7396 100
5446 156
3346 25
9344 49
8268 203
2901 255
6814 286
7023 145
4625 71
4093 139
2243 220
6183 220
2244 112
5816 112
2246 427
3031 159
2248 232
2250 420
3799 321
2251 100
9581 100
7164 348
3941 14
5008 14
3177 305
8804 206
5956 439
3679 108
6544 106
7537 116
8589 108
5358 372
7507 342
4179 243
4201 243
5288 243
7207 3
2656 467
5190 467
5480 467
5553 467
6057 467
2274 478
2835 443
3957 478
2518 142
8059 100
2278 435
5307 435
7702 8
2279 487
7564 120
2281 121
2282 441
2283 404
5802 404
6170 404
8101 19
3988 36
5590 359
5778 36
6157 52
7579 183
2291 380
9429 380
2292 290
6926 247
5120 82
2300 378
3950 52
2302 476
4345 476
5075 476
5394 476
5649 476
2303 359
2898 318
7194 136
3282 123
2310 448
6010 122
4879 129
4170 25
7678 47
5168 57
7781 49
4840 200
8961 318
4227 333
3742 478
2321 294
4892 124
9028 167
3728 372
8618 116
2325 454
4998 454
4902 320
2329 42
2334 145
7845 145
8659 147
4277 167
8569 167
2336 181
2337 370
3095 370
4500 138
2338 85
8752 196
2340 132
6177 363
3714 424
6524 201
2344 52
6176 52
7604 52
8506 380
2350 482
5314 482
8238 138
5237 167
5776 54
7170 429
8442 3
2355 137
6808 61
2359 32
2361 132
4273 403
7406 271
8009 271
8465 58
8887 193
6270 193
8099 193
8317 265
8933 301
4801 108
7295 301
7987 223
2371 162
2399 162
3165 162
8050 49
2373 204
2374 243
5987 264
8182 78
8334 247
2377 271
2378 226
3444 128
3970 226
4278 226
6129 226
2379 428
4868 56
8737 73
7729 186
2386 309
9616 380
4665 271
7545 26
8314 358
2389 370
3818 370
5320 53
2393 402
4173 99
2394 206
9726 206
2587 260
5520 380
2401 184
3372 158
6578 262
9960 147
2403 479
3338 479
7854 27
2405 104
6245 348
8452 265
9462 129
6530 147
9277 146
3862 205
4019 82
5450 424
8060 318
2630 429
3449 159
2416 42
4897 186
7860 147
2504 19
6416 397
2423 319
3473 390
8388 390
2426 390
3327 390
9233 146
2428 387
2431 438
5586 206
2434 4
5006 146
5615 265
2793 410
9188 13
2439 116
4985 116
6527 6
8480 116
2440 269
5338 269
6918 135
8266 269
4598 371
2442 115
2443 27
2444 113
3908 113
3735 344
6436 96
4581 18
4893 26
6301 13
2454 79
2455 21
4415 120
7951 18
3088 268
8916 146
2458 85
7329 85
7401 67
2459 220
6612 18
2464 211
4133 318
7322 7
2468 224
7819 224
3062 171
2725 474
3387 62
8425 57
2636 264
2476 279
2792 114
7737 112
7755 206
9382 57
8808 57
3837 69
5747 21
6033 60
2487 92
7665 196
2699 187
5224 13
2489 326
2490 197
2557 71
6466 100
9710 197
2491 116
5923 341
6939 79
2497 313
5167 265
5847 99
7186 57
7415 313
7645 313
2499 59
2974 12
4628 59
5192 59
2511 142
9722 49
9736 19
9741 19
2506 369
4032 7
4576 369
3434 211
2510 39
6756 391
8107 193
6341 424
9293 49
5965 344
2521 198
3188 198
8413 135
8453 198
3037 108
2524 284
5169 284
5703 78
2526 331
5460 21
7704 125
6222 193
9217 247
2537 146
7448 112
2541 359
6379 260
7070 260
6390 53
6717 134
3370 435
3478 89
2551 44
2904 457
7572 21
3808 64
2562 77
5885 392
6305 392
3333 453
6590 344
5756 171
4677 318
6357 450
2578 403
4373 216
2580 62
6888 136
8884 49
2588 78
7131 78
2671 286
3390 381
5047 358
2598 428
2968 138
3283 73
4900 176
4435 155
3312 260
2610 151
2612 251
2613 124
8325 23
2614 40
4348 40
7442 216
4301 443
4966 135
7593 52
5222 175
3529 14
3911 467
4172 476
7534 36
6360 429
7658 318
9012 108
2634 94
9680 13
2638 412
3815 466
3411 244
2642 3
6647 3
7049 3
4852 220
7892 61
7715 100
2652 286
5645 15
9499 100
2654 387
2655 42
6258 42
2959 467
7664 197
6616 286
3830 402
6581 212
9113 13
2666 480
7716 311
3935 217
6019 472
3425 301
4016 327
2879 175
2800 348
6029 213
3700 276
2691 19
6550 73
5469 64
3960 252
2896 74
6505 134
8083 52
2698 139
3556 187
7466 186
2705 74
3537 424
6893 217
4372 207
2707 318
5677 203
3142 149
5789 57
2709 38
2712 260
5710 3
5982 21
2714 484
8984 8
5443 220
2717 456
7257 196
3465 95
7786 279
5096 47
5528 167
2784 190
2726 198
4727 333
2728 153
4196 223
2729 120
6683 13
2730 7
9435 7
6635 24
4833 313
5753 361
2736 363
3768 363
4736 363
2738 353
6398 353
9925 23
2744 124
6009 124
6232 124
8888 197
2745 292
3385 292
5051 292
8815 99
5270 9
3459 387
4018 172
3286 134
2755 81
8054 7
2758 71
3622 3
3521 149
2762 27
2767 22
4987 307
3339 53
6330 197
4411 450
7763 52
2993 401
2780 172
4884 193
6223 47
7153 85
9849 9
2796 298
8247 112
7375 348
5511 235
9485 49
3294 52
4881 36
4837 333
8133 181
2819 18
4917 100
9076 18
2824 192
3520 192
6981 262
7748 129
7581 49
5007 85
8812 85
6787 67
2848 151
8021 151
2849 402
2852 94
2860 79
5633 96
2962 30
5592 372
5135 27
2867 224
7500 224
2868 301
5299 31
9335 129
8683 265
7458 6
3422 457
4489 181
2895 456
9235 74
7733 100
6868 241
3899 404
2903 106
4095 7
3197 457
6771 241
3678 331
2913 85
7402 393
2918 184
8853 19
8159 57
3726 286
8093 424
3571 168
6564 9
3879 268
3938 268
9698 100
9288 52
2940 358
2941 265
3102 57
5074 27
2945 63
4714 63
7032 100
2949 15
5251 60
2958 216
5052 228
8016 147
3548 30
3369 54
9512 62
6528 298
6858 56
4009 303
8477 60
8695 424
2971 313
3959 313
4528 100
7834 202
2975 202
2977 419
5161 419
3636 291
6884 108
7113 424
7293 197
6156 64
2995 101
4368 466
4420 466
5061 417
3239 289
8444 112
3003 97
7726 168
4498 147
5082 212
3017 82
3019 147
3155 73
4302 138
3026 277
4430 296
3032 108
7871 205
7937 100
3526 342
6818 108
6937 120
3490 419
3045 99
3354 178
3052 167
3054 192
3447 217
3725 18
5323 271
3691 106
6314 171
5056 402
6319 390
3068 23
3087 114
5621 156
5552 177
8029 21
4091 23
3078 160
3080 265
6962 228
3086 261
8152 125
4751 268
4963 370
3101 358
5539 25
7790 424
4772 247
6231 139
3107 363
4651 177
3112 1
4116 1
4514 1
7883 208
6589 244
3117 180
3695 180
6480 13
7051 36
7521 213
3128 62
4003 18
3139 321
3141 99
3585 149
8828 8
5775 60
8988 73
5487 116
3162 429
6261 168
5101 54
6189 246
4571 224
3181 106
3187 299
8389 7
3190 199
4673 199
6835 7
8518 67
4825 146
3204 193
9010 206
5814 112
3480 346
5498 193
6533 450
8136 56
3416 44
7628 49
4964 472
6181 23
7954 321
8728 318
3251 168
7119 100
3255 56
4759 100
4896 476
3259 472
5575 247
3260 129
9121 108
5813 160
3268 206
3844 341
3275 381
3634 381
3277 63
8572 73
3362 112
4638 52
7087 52
8106 52
6690 49
6900 183
3720 151
4848 333
5155 136
4266 387
3326 26
5635 177
7272 271
6574 49
5785 466
7646 53
7371 286
8909 108
9307 146
8671 48
7436 18
3356 57
6945 108
3358 15
4949 15
5823 15
9104 112
6262 269
7855 276
8732 262
4784 177
3573 89
3386 73
3785 208
7667 73
3389 358
6235 303
8748 196
3395 416
4180 202
5020 416
3397 52
6473 100
6948 146
3415 194
5848 106
5652 71
3418 397
3834 78
3824 31
8684 49
6137 116
3426 177
3427 220
4186 393
7130 57
8721 151
5966 211
4088 85
3915 7
7354 159
3555 397
7970 193
7114 36
3464 439
7104 3
6095 58
6933 390
3475 49
7356 135
3997 9
5864 112
3512 151
3524 124
5946 428
3498 370
5424 424
5855 3
6516 100
4467 14
3507 244
6557 244
5336 15
4826 248
4536 135
6417 206
3536 476
3718 476
4281 476
4937 424
6017 424
5379 75
6470 15
3842 136
3545 116
3561 151
5348 101
6951 313
5448 125
5803 67
9215 9
3588 12
3595 279
3709 9
3598 338
6736 134
4038 47
8459 106
6462 198
4645 32
3893 457
3619 267
6664 223
9396 3
7459 167
3625 96
7769 186
5637 19
3635 75
7238 203
3643 99
7644 94
3648 147
7513 147
4380 307
8741 247
7418 212
6179 342
3663 205
7177 205
5356 261
3672 449
6866 391
4734 334
4399 235
3682 303
7838 21
7289 62
7228 213
3701 184
5894 344
5641 44
5449 32
4241 386
8324 18
3890 15
6622 74
4135 309
4752 381
6096 135
6276 71
3769 226
4740 197
3774 21
4356 261
6840 311
5344 121
7828 15
3937 235
3807 73
3814 359
4950 31
4750 264
4765 106
5853 74
5763 78
6850 99
3838 248
6351 341
4101 95
7689 120
8032 155
3880 265
4087 381
4306 155
3926 182
6758 8
9696 71
4353 179
8078 213
8103 247
6399 47
4770 424
5291 9
6889 202
4211 135
3966 74
5913 182
5283 44
3983 484
3985 167
6025 390
4698 378
3993 342
3999 424
5971 57
6721 303
4014 365
5162 365
5387 49
4023 391
4028 120
4955 71
4043 100
5839 8
4052 100
6236 60
4066 456
6112 402
5788 171
4072 197
4083 147
4526 211
7263 7
7067 193
5278 8
4122 269
4125 43
7683 196
6426 37
4637 367
5389 205
4141 94
5654 49
5570 111
8513 52
5744 79
5833 393
4230 402
4646 404
5257 26
4575 31
8270 298
4267 145
5050 159
6002 241
6089 397
5730 155
4501 225
4559 112
9139 146
8297 147
4317 58
6798 58
5588 241
5380 61
4365 196
5203 138
7712 217
7078 136
4444 358
4452 290
5950 48
6540 265
4744 380
5264 48
4519 211
7405 147
6163 138
5949 225
5681 311
5133 402
6251 74
6776 203
7028 74
4590 52
4780 175
6521 298
6601 217
7399 60
8579 196
5748 194
5242 74
4680 54
4694 146
8147 223
5141 378
5309 19
7099 186
4737 159
8108 380
7475 138
4767 348
4769 167
7730 168
4807 334
5572 279
5933 67
4830 181
5984 301
4886 135
5568 52
4932 73
7900 67
5043 151
4945 159
6520 19
5293 24
6213 134
6558 217
7804 286
5943 79
5563 79
9626 206
7856 365
5064 193
8570 213
5088 181
5349 105
5165 176
5696 138
5626 134
5981 344
6615 21
5890 19
5381 205
5386 19
5429 14
6389 32
5432 49
5466 32
5470 393
5796 64
5510 348
6963 49
5618 271
7337 57
7433 286
6714 99
6514 9
6208 301
