0 0
1 1
2 2
3 3
4 4
5 5
6 6
7 7
8 8
9 9
10 10
11 11
12 12
13 0
14 13
15 14
16 15
17 16
18 17
19 18
20 19
21 20
22 21
23 22
24 23
25 24
26 25
27 26
28 27
29 28
30 28
31 29
32 30
33 29
34 19
35 31
36 32
37 14
38 33
39 34
40 35
41 36
42 37
43 38
44 5
45 39
46 40
47 41
48 37
49 30
50 42
51 43
52 44
53 4
54 0
55 45
56 46
57 47
58 48
59 49
60 46
61 50
62 8
63 51
64 41
65 36
66 52
67 8
68 53
69 45
70 5
71 54
72 33
73 6
74 55
75 31
76 56
77 57
78 58
79 32
80 59
81 38
82 31
83 44
84 60
85 61
86 62
87 60
88 63
89 64
90 65
91 8
92 23
93 62
94 34
95 66
96 59
97 67
98 68
99 31
100 69
101 70
102 69
103 39
104 5
105 71
106 67
107 72
108 14
109 68
110 68
111 62
112 73
113 74
114 73
115 8
116 37
117 34
118 75
119 8
120 76
121 72
122 77
123 59
124 78
125 30
126 59
127 5
128 2
129 79
130 13
131 26
132 57
133 46
134 80
135 81
136 72
137 82
138 17
139 73
140 74
141 40
142 72
143 30
144 30
145 83
146 24
147 14
148 84
149 41
150 53
151 48
152 66
153 85
154 21
155 53
156 9
157 85
158 86
159 30
160 85
161 57
162 87
163 30
164 81
165 72
166 9
167 17
168 36
169 59
170 79
171 88
172 69
173 34
174 72
175 23
176 75
177 89
178 90
179 90
180 42
181 8
182 18
183 31
184 49
185 34
186 36
187 30
188 35
189 53
190 16
191 53
192 36
193 91
194 55
195 92
196 87
197 17
198 72
199 35
200 84
201 93
202 94
203 95
204 26
205 2
206 55
207 7
208 96
209 90
210 52
211 97
212 34
213 93
214 90
215 55
216 39
217 85
218 26
219 85
220 84
221 98
222 52
223 84
224 30
225 99
226 62
227 44
228 63
229 36
230 98
231 27
232 90
233 69
234 64
235 87
236 95
237 26
238 66
239 11
240 45
241 93
242 6
243 100
244 13
245 31
246 49
247 95
248 7
249 54
250 39
251 4
252 21
253 30
254 31
255 13
256 99
257 11
258 95
259 30
260 16
261 95
262 42
263 27
264 10
265 96
266 101
267 36
268 88
269 21
270 61
271 15
272 21
273 76
274 29
275 26
276 102
277 103
278 15
279 7
280 61
281 56
282 7
283 19
284 18
285 42
286 87
287 49
288 5
289 26
290 49
291 16
292 15
293 61
294 39
295 8
296 88
297 101
298 40
299 44
300 90
301 42
302 42
303 56
304 18
305 56
306 102
307 18
308 42
309 51
310 86
311 96
312 104
313 99
314 7
315 100
316 84
317 84
318 7
319 54
320 61
321 6
322 105
323 50
324 61
325 15
326 95
327 29
328 33
329 51
330 46
331 34
332 5
333 63
334 106
335 47
336 90
337 61
338 89
339 61
340 40
341 81
342 72
343 15
344 107
345 59
346 18
347 108
348 44
349 73
350 51
351 59
352 99
353 52
354 57
355 41
356 49
357 17
358 4
359 109
360 95
361 77
362 48
363 19
364 99
365 54
366 84
367 44
368 59
369 44
370 110
371 26
372 37
373 69
374 10
375 73
376 7
377 111
378 52
379 15
380 55
381 59
382 2
383 16
384 15
385 5
386 101
387 57
388 82
389 47
390 12
391 18
392 57
393 33
394 61
395 47
396 7
397 48
398 101
399 20
400 8
401 112
402 113
403 98
404 48
405 45
406 0
407 22
408 47
409 22
410 79
411 9
412 61
413 56
414 114
415 56
416 19
417 69
418 33
419 87
420 18
421 101
422 33
423 70
424 115
425 79
426 41
427 56
428 16
429 61
430 89
431 89
432 91
433 28
434 19
435 87
436 73
437 114
438 72
439 116
440 61
441 69
442 42
443 52
444 42
445 84
446 80
447 16
448 5
449 95
450 112
451 52
452 6
453 61
454 47
455 0
456 117
457 0
458 69
459 23
460 118
461 115
462 17
463 55
464 72
465 29
466 119
467 118
468 55
469 32
470 120
471 34
472 41
473 89
474 121
475 55
476 97
477 54
478 117
479 23
480 114
481 69
482 88
483 14
484 79
485 31
486 23
487 32
488 39
489 36
490 8
491 52
492 31
493 122
494 114
495 47
496 44
497 53
498 41
499 17
500 79
501 118
502 75
503 16
504 23
505 69
506 123
507 69
508 2
509 0
510 14
511 72
512 30
513 15
514 14
515 69
516 58
517 69
518 118
519 0
520 22
521 100
522 69
523 122
524 109
525 8
526 44
527 53
528 36
529 114
530 99
531 53
532 55
533 30
534 72
535 25
536 72
537 31
538 52
539 41
540 118
541 75
542 0
543 16
544 118
545 19
546 100
547 106
548 75
549 89
550 11
551 55
552 114
553 118
554 101
555 2
556 98
557 8
558 72
559 40
560 35
561 41
562 53
563 124
564 81
565 12
566 55
567 70
568 35
569 94
570 93
571 97
572 32
573 30
574 68
575 52
576 93
577 55
578 14
579 44
580 14
581 57
582 57
583 32
584 79
585 9
586 59
587 49
588 40
589 59
590 81
591 68
592 111
593 57
594 118
595 89
596 66
597 61
598 89
599 2
600 118
601 40
602 75
603 97
604 37
605 34
606 74
607 22
608 90
609 37
610 54
611 125
612 50
613 126
614 58
615 44
616 23
617 19
618 72
619 82
620 104
621 57
622 90
623 70
624 88
625 84
626 31
627 23
628 12
629 66
630 95
631 18
632 81
633 127
634 101
635 91
636 84
637 118
638 2
639 118
640 53
641 34
642 52
643 9
644 76
645 31
646 61
647 53
648 44
649 7
650 99
651 19
652 92
653 17
654 4
655 81
656 32
657 30
658 30
659 90
660 75
661 68
662 23
663 41
664 79
665 79
666 82
667 69
668 62
669 69
670 38
671 83
672 41
673 85
674 18
675 80
676 107
677 53
678 44
679 44
680 38
681 11
682 59
683 128
684 99
685 11
686 95
687 2
688 26
689 69
690 30
691 49
692 69
693 53
694 36
695 129
696 91
697 70
698 2
699 56
700 71
701 26
702 28
703 59
704 70
705 84
706 57
707 17
708 97
709 38
710 2
711 47
712 56
713 2
714 3
715 68
716 81
717 19
718 95
719 11
720 95
721 16
722 60
723 2
724 97
725 10
726 32
727 49
728 93
729 94
730 51
731 130
732 42
733 7
734 99
735 26
736 95
737 52
738 130
739 52
740 16
741 57
742 60
743 39
744 129
745 90
746 64
747 5
748 15
749 8
750 131
751 44
752 84
753 81
754 38
755 2
756 84
757 61
758 63
759 129
760 42
761 61
762 86
763 68
764 38
765 118
766 15
767 105
768 74
769 95
770 76
771 10
772 107
773 101
774 57
775 95
776 110
777 5
778 52
779 34
780 99
781 69
782 34
783 16
784 83
785 51
786 31
787 55
788 102
789 38
790 53
791 0
792 23
793 114
794 47
795 19
796 114
797 44
798 68
799 90
800 23
801 17
802 81
803 85
804 115
805 53
806 81
807 61
808 93
809 54
810 57
811 53
812 56
813 5
814 47
815 103
816 56
817 79
818 69
819 126
820 2
821 14
822 51
823 35
824 30
825 100
826 5
827 69
828 68
829 56
830 118
831 52
832 100
833 42
834 132
835 128
836 15
837 61
838 46
839 55
840 81
841 79
842 69
843 118
844 118
845 53
846 114
847 71
848 56
849 53
850 82
851 30
852 89
853 129
854 130
855 48
856 57
857 114
858 38
859 51
860 19
861 3
862 90
863 22
864 61
865 57
866 53
867 38
868 47
869 57
870 105
871 62
872 110
873 58
874 42
875 52
876 79
877 4
878 23
879 38
880 74
881 26
882 48
883 97
884 5
885 27
886 51
887 112
888 68
889 46
890 69
891 40
892 49
893 51
894 52
895 72
896 2
897 38
898 53
899 30
900 97
901 2
902 68
903 57
904 53
905 93
906 5
907 61
908 48
909 18
910 117
911 34
912 44
913 69
914 72
915 68
916 47
917 114
918 27
919 56
920 22
921 57
922 106
923 84
924 44
925 97
926 5
927 18
928 0
929 38
930 51
931 38
932 40
933 118
934 89
935 5
936 49
937 89
938 90
939 56
940 84
941 69
942 69
943 42
944 118
945 57
946 53
947 51
948 129
949 50
950 30
951 79
952 79
953 35
954 61
955 73
956 51
957 86
958 69
959 133
960 100
961 75
962 72
963 51
964 57
965 61
966 47
967 60
968 56
969 31
970 79
971 104
972 5
973 72
974 64
975 62
976 128
977 49
978 5
979 18
980 51
981 44
982 41
983 44
984 41
985 41
986 59
987 118
988 44
989 31
990 2
991 42
992 55
993 90
994 87
995 5
996 18
997 118
998 107
999 8
1000 81
1001 44
1002 38
1003 41
1004 5
1005 83
1006 44
1007 115
1008 27
1009 89
1010 114
1011 79
1012 18
1013 42
1014 16
1015 100
1016 79
1017 44
1018 26
1019 5
1020 72
1021 5
1022 30
1023 76
1024 124
1025 83
1026 112
1027 31
1028 79
1029 59
1030 31
1031 55
1032 134
1033 5
1034 68
1035 44
1036 132
1037 118
1038 79
1039 36
1040 26
1041 88
1042 30
1043 41
1044 26
1045 37
1046 54
1047 52
1048 75
1049 96
1050 109
1051 9
1052 53
1053 135
1054 101
1055 53
1056 37
1057 110
1058 55
1059 26
1060 78
1061 131
1062 69
1063 60
1064 46
1065 114
1066 37
1067 67
1068 60
1069 79
1070 53
1071 2
1072 72
1073 118
1074 124
1075 32
1076 26
1077 98
1078 44
1079 13
1080 53
1081 32
1082 28
1083 26
1084 40
1085 31
1086 37
1087 38
1088 5
1089 105
1090 110
1091 16
1092 34
1093 118
1094 28
1095 68
1096 5
1097 114
1098 24
1099 18
1100 18
1101 25
1102 70
1103 46
1104 31
1105 52
1106 42
1107 118
1108 31
1109 26
1110 36
1111 2
1112 44
1113 2
1114 18
1115 50
1116 70
1117 90
1118 136
1119 60
1120 118
1121 29
1122 67
1123 38
1124 49
1125 18
1126 72
1127 90
1128 8
1129 36
1130 91
1131 52
1132 81
1133 38
1134 112
1135 84
1136 2
1137 11
1138 23
1139 5
1140 2
1141 32
1142 53
1143 23
1144 56
1145 57
1146 5
1147 72
1148 115
1149 38
1150 2
1151 14
1152 113
1153 38
1154 84
1155 81
1156 84
1157 34
1158 118
1159 26
1160 2
1161 112
1162 17
1163 90
1164 112
1165 15
1166 2
1167 83
1168 100
1169 67
1170 99
1171 43
1172 17
1173 99
1174 2
1175 97
1176 43
1177 114
1178 73
1179 5
1180 9
1181 81
1182 97
1183 99
1184 95
1185 91
1186 44
1187 19
1188 9
1189 97
1190 69
1191 24
1192 97
1193 87
1194 97
1195 15
1196 77
1197 97
1198 18
1199 114
1200 37
1201 22
1202 35
1203 85
1204 129
1205 13
1206 34
1207 5
1208 84
1209 8
1210 28
1211 16
1212 5
1213 47
1214 41
1215 96
1216 85
1217 19
1218 2
1219 38
1220 31
1221 118
1222 2
1223 75
1224 75
1225 137
1226 92
1227 5
1228 19
1229 9
1230 95
1231 95
1232 17
1233 44
1234 112
1235 13
1236 19
1237 8
1238 26
1239 59
1240 31
1241 99
1242 86
1243 53
1244 9
1245 52
1246 18
1247 93
1248 44
1249 53
1250 51
1251 81
1252 0
1253 92
1254 38
1255 117
1256 50
1257 16
1258 19
1259 11
1260 8
1261 57
1262 83
1263 26
1264 18
1265 17
1266 29
1267 52
1268 5
1269 83
1270 93
1271 53
1272 62
1273 44
1274 95
1275 42
1276 97
1277 14
1278 42
1279 18
1280 84
1281 88
1282 126
1283 56
1284 21
1285 90
1286 138
1287 18
1288 21
1289 23
1290 32
1291 51
1292 96
1293 32
1294 97
1295 84
1296 44
1297 90
1298 109
1299 118
1300 17
1301 44
1302 84
1303 38
1304 11
1305 2
1306 24
1307 38
1308 32
1309 51
1310 51
1311 91
1312 34
1313 68
1314 55
1315 97
1316 12
1317 30
1318 3
1319 56
1320 23
1321 105
1322 38
1323 25
1324 16
1325 84
1326 23
1327 30
1328 18
1329 61
1330 16
1331 16
1332 20
1333 128
1334 19
1335 19
1336 42
1337 18
1338 101
1339 84
1340 5
1341 47
1342 118
1343 15
1344 79
1345 40
1346 32
1347 82
1348 37
1349 97
1350 34
1351 44
1352 79
1353 18
1354 42
1355 2
1356 34
1357 2
1358 38
1359 80
1360 93
1361 44
1362 98
1363 52
1364 118
1365 33
1366 17
1367 68
1368 2
1369 16
1370 68
1371 99
1372 99
1373 79
1374 79
1375 118
1376 117
1377 23
1378 7
1379 17
1380 11
1381 41
1382 24
1383 83
1384 37
1385 47
1386 26
1387 79
1388 118
1389 70
1390 56
1391 51
1392 138
1393 38
1394 29
1395 41
1396 18
1397 42
1398 5
1399 72
1400 69
1401 133
1402 2
1403 19
1404 19
1405 56
1406 69
1407 44
1408 38
1409 81
1410 118
1411 13
1412 102
1413 79
1414 89
1415 127
1416 41
1417 45
1418 38
1419 79
1420 44
1421 61
1422 117
1423 38
1424 52
1425 23
1426 0
1427 111
1428 118
1429 85
1430 68
1431 0
1432 0
1433 38
1434 68
1435 44
1436 17
1437 103
1438 23
1439 9
1440 7
1441 114
1442 51
1443 87
1444 0
1445 38
1446 61
1447 51
1448 81
1449 23
1450 57
1451 118
1452 5
1453 5
1454 18
1455 46
1456 36
1457 2
1458 114
1459 42
1460 23
1461 36
1462 106
1463 72
1464 81
1465 55
1466 52
1467 9
1468 19
1469 29
1470 92
1471 47
1472 29
1473 5
1474 70
1475 89
1476 89
1477 52
1478 81
1479 72
1480 38
1481 23
1482 6
1483 79
1484 56
1485 7
1486 17
1487 119
1488 79
1489 42
1490 38
1491 129
1492 0
1493 30
1494 23
1495 38
1496 44
1497 51
1498 72
1499 29
1500 79
1501 53
1502 52
1503 18
1504 70
1505 73
1506 57
1507 95
1508 53
1509 11
1510 87
1511 47
1512 19
1513 114
1514 37
1515 51
1516 79
1517 23
1518 49
1519 0
1520 75
1521 57
1522 114
1523 47
1524 81
1525 30
1526 67
1527 38
1528 16
1529 58
1530 55
1531 38
1532 114
1533 53
1534 95
1535 72
1536 21
1537 55
1538 105
1539 65
1540 11
1541 14
1542 18
1543 89
1544 30
1545 52
1546 31
1547 114
1548 2
1549 58
1550 57
1551 80
1552 47
1553 57
1554 31
1555 29
1556 44
1557 30
1558 10
1559 139
1560 76
1561 105
1562 47
1563 44
1564 44
1565 2
1566 2
1567 68
1568 75
1569 12
1570 101
1571 31
1572 57
1573 118
1574 15
1575 131
1576 14
1577 12
1578 61
1579 40
1580 23
1581 30
1582 33
1583 57
1584 19
1585 88
1586 33
1587 98
1588 53
1589 5
1590 5
1591 24
1592 70
1593 2
1594 53
1595 51
1596 30
1597 32
1598 87
1599 58
1600 59
1601 82
1602 48
1603 14
1604 46
1605 44
1606 109
1607 53
1608 17
1609 57
1610 42
1611 42
1612 65
1613 48
1614 47
1615 47
1616 98
1617 5
1618 127
1619 2
1620 116
1621 31
1622 127
1623 3
1624 69
1625 2
1626 42
1627 72
1628 4
1629 30
1630 44
1631 60
1632 53
1633 44
1634 44
1635 70
1636 84
1637 59
1638 55
1639 81
1640 102
1641 140
1642 102
1643 91
1644 30
1645 95
1646 52
1647 12
1648 8
1649 52
1650 84
1651 23
1652 23
1653 52
1654 125
1655 34
1656 5
1657 17
1658 81
1659 38
1660 26
1661 70
1662 62
1663 52
1664 5
1665 62
1666 50
1667 75
1668 5
1669 86
1670 100
1671 41
1672 84
1673 81
1674 23
1675 92
1676 30
1677 23
1678 5
1679 43
1680 31
1681 69
1682 43
1683 17
1684 31
1685 2
1686 2
1687 38
1688 83
1689 97
1690 130
1691 15
1692 47
1693 60
1694 69
1695 47
1696 7
1697 38
1698 86
1699 97
1700 30
1701 2
1702 5
1703 26
1704 31
1705 70
1706 73
1707 31
1708 12
1709 52
1710 38
1711 15
1712 114
1713 136
1714 2
1715 85
1716 87
1717 69
1718 74
1719 38
1720 79
1721 56
1722 31
1723 114
1724 7
1725 47
1726 18
1727 95
1728 118
1729 60
1730 27
1731 72
1732 110
1733 23
1734 112
1735 97
1736 79
1737 23
1738 19
1739 18
1740 14
1741 16
1742 29
1743 110
1744 47
1745 95
1746 18
1747 18
1748 118
1749 99
1750 53
1751 97
1752 11
1753 130
1754 32
1755 19
1756 51
1757 19
1758 81
1759 84
1760 52
1761 16
1762 114
1763 54
1764 81
1765 31
1766 18
1767 18
1768 17
1769 60
1770 129
1771 39
1772 79
1773 44
1774 35
1775 2
1776 16
1777 27
1778 17
1779 47
1780 5
1781 47
1782 53
1783 8
1784 18
1785 18
1786 118
1787 5
1788 17
1789 61
1790 69
1791 49
1792 47
1793 19
1794 131
1795 51
1796 85
1797 55
1798 9
1799 84
1800 23
1801 100
1802 55
1803 18
1804 23
1805 127
1806 5
1807 18
1808 38
1809 90
1810 26
1811 81
1812 44
1813 41
1814 38
1815 114
1816 97
1817 5
1818 31
1819 118
1820 13
1821 11
1822 95
1823 52
1824 9
1825 23
1826 47
1827 28
1828 5
1829 44
1830 47
1831 40
1832 53
1833 52
1834 47
1835 18
1836 2
1837 129
1838 44
1839 99
1840 57
1841 76
1842 31
1843 37
1844 53
1845 66
1846 81
1847 21
1848 42
1849 79
1850 114
1851 44
1852 118
1853 17
1854 58
1855 5
1856 51
1857 44
1858 95
1859 53
1860 81
1861 32
1862 79
1863 56
1864 31
1865 90
1866 15
1867 8
1868 16
1869 69
1870 18
1871 57
1872 23
1873 69
1874 101
1875 55
1876 79
1877 97
1878 57
1879 30
1880 2
1881 52
1882 23
1883 114
1884 101
1885 105
1886 69
1887 68
1888 2
1889 44
1890 118
1891 61
1892 118
1893 31
1894 97
1895 16
1896 44
1897 44
1898 89
1899 48
1900 55
1901 79
1902 26
1903 55
1904 120
1905 46
1906 52
1907 95
1908 18
1909 47
1910 2
1911 81
1912 30
1913 57
1914 89
1915 47
1916 73
1917 52
1918 47
1919 50
1920 97
1921 51
1922 53
1923 52
1924 112
1925 42
1926 5
1927 16
1928 56
1929 101
1930 55
1931 51
1932 55
1933 47
1934 79
1935 69
1936 5
1937 41
1938 34
1939 44
1940 38
1941 31
1942 139
1943 72
1944 69
1945 38
1946 55
1947 81
1948 51
1949 47
1950 79
1951 72
1952 15
1953 41
1954 114
1955 69
1956 37
1957 26
1958 72
1959 27
1960 53
1961 55
1962 52
1963 57
1964 53
1965 53
1966 2
1967 72
1968 44
1969 36
1970 47
1971 87
1972 7
1973 69
1974 49
1975 55
1976 35
1977 129
1978 42
1979 31
1980 41
1981 18
1982 134
1983 16
1984 46
1985 18
1986 30
1987 141
1988 97
1989 88
1990 47
1991 52
1992 55
1993 114
1994 30
1995 72
1996 59
1997 59
1998 44
1999 72
2000 2
2001 51
2002 30
2003 118
2004 55
2005 56
2006 38
2007 69
2008 31
2009 5
2010 38
2011 112
2012 14
2013 93
2014 51
2015 118
2016 82
2017 38
2018 118
2019 79
2020 114
2021 30
2022 89
2023 114
2024 30
2025 69
2026 101
2027 30
2028 5
2029 23
2030 26
2031 38
2032 30
2033 47
2034 72
2035 2
2036 57
2037 44
2038 44
2039 18
2040 68
2041 38
2042 55
2043 75
2044 57
2045 58
2046 14
2047 14
2048 57
2049 13
2050 124
2051 27
2052 32
2053 68
2054 109
2055 36
2056 39
2057 26
2058 106
2059 69
2060 116
2061 19
2062 30
2063 85
2064 8
2065 60
2066 75
2067 131
2068 11
2069 60
2070 18
2071 44
2072 54
2073 80
2074 19
2075 56
2076 38
2077 43
2078 21
2079 75
2080 0
2081 60
2082 24
2083 77
2084 78
2085 93
2086 121
2087 60
2088 14
2089 16
2090 68
2091 124
2092 18
2093 114
2094 8
2095 110
2096 57
2097 58
2098 68
2099 13
2100 67
2101 81
2102 56
2103 44
2104 75
2105 51
2106 5
2107 31
2108 44
2109 30
2110 114
2111 83
2112 16
2113 68
2114 41
2115 98
2116 26
2117 128
2118 10
2119 40
2120 74
2121 60
2122 61
2123 44
2124 19
2125 5
2126 47
2127 60
2128 96
2129 105
2130 44
2131 26
2132 72
2133 30
2134 44
2135 18
2136 2
2137 46
2138 14
2139 26
2140 61
2141 44
2142 41
2143 55
2144 69
2145 60
2146 40
2147 75
2148 47
2149 129
2150 129
2151 73
2152 95
2153 41
2154 84
2155 84
2156 76
2157 125
2158 84
2159 31
2160 89
2161 114
2162 141
2163 125
2164 7
2165 19
2166 44
2167 134
2168 97
2169 72
2170 117
2171 90
2172 34
2173 57
2174 84
2175 0
2176 92
2177 38
2178 95
2179 14
2180 26
2181 13
2182 116
2183 2
2184 110
2185 69
2186 44
2187 105
2188 99
2189 92
2190 142
2191 72
2192 93
2193 43
2194 84
2195 92
2196 120
2197 123
2198 85
2199 99
2200 44
2201 95
2202 44
2203 27
2204 129
2205 88
2206 87
2207 43
2208 40
2209 17
2210 30
2211 59
2212 60
2213 128
2214 30
2215 72
2216 44
2217 11
2218 0
2219 66
2220 15
2221 121
2222 23
2223 67
2224 44
2225 90
2226 68
2227 97
2228 124
2229 139
2230 96
2231 34
2232 44
2233 17
2234 83
2235 13
2236 5
2237 87
2238 68
2239 44
2240 84
2241 56
2242 94
2243 52
2244 17
2245 119
2246 37
2247 70
2248 46
2249 75
2250 72
2251 44
2252 86
2253 44
2254 47
2255 19
2256 5
2257 10
2258 37
2259 29
2260 16
2261 14
2262 72
2263 83
2264 101
2265 36
2266 44
2267 104
2268 53
2269 18
2270 49
2271 108
2272 99
2273 60
2274 42
2275 54
2276 1
2277 73
2278 99
2279 121
2280 5
2281 52
2282 51
2283 71
2284 82
2285 63
2286 55
2287 55
2288 7
2289 39
2290 87
2291 30
2292 58
2293 90
2294 99
2295 90
2296 49
2297 30
2298 128
2299 58
2300 68
2301 34
2302 111
2303 122
2304 126
2305 56
2306 138
2307 11
2308 84
2309 52
2310 90
2311 143
2312 68
2313 133
2314 49
2315 125
2316 1
2317 114
2318 21
2319 74
2320 68
2321 117
2322 75
2323 44
2324 46
2325 34
2326 12
2327 114
2328 30
2329 101
2330 93
2331 82
2332 97
2333 26
2334 97
2335 7
2336 72
2337 48
2338 131
2339 91
2340 51
2341 70
2342 110
2343 88
2344 43
2345 75
2346 69
2347 9
2348 76
2349 93
2350 26
2351 83
2352 44
2353 33
2354 90
2355 90
2356 19
2357 95
2358 85
2359 40
2360 21
2361 68
2362 79
2363 54
2364 19
2365 18
2366 8
2367 0
2368 26
2369 132
2370 97
2371 54
2372 47
2373 92
2374 95
2375 38
2376 16
2377 44
2378 79
2379 18
2380 64
2381 46
2382 23
2383 44
2384 51
2385 112
2386 51
2387 29
2388 101
2389 108
2390 41
2391 17
2392 93
2393 52
2394 74
2395 10
2396 26
2397 56
2398 18
2399 47
2400 61
2401 73
2402 81
2403 81
2404 44
2405 26
2406 93
2407 79
2408 95
2409 74
2410 18
2411 139
2412 125
2413 91
2414 57
2415 53
2416 118
2417 80
2418 81
2419 42
2420 26
2421 30
2422 41
2423 99
2424 44
2425 79
2426 23
2427 18
2428 118
2429 57
2430 97
2431 49
2432 114
2433 101
2434 77
2435 19
2436 79
2437 47
2438 115
2439 81
2440 44
2441 61
2442 69
2443 1
2444 116
2445 104
2446 62
2447 0
2448 127
2449 90
2450 118
2451 99
2452 47
2453 42
2454 81
2455 89
2456 0
2457 92
2458 9
2459 48
2460 23
2461 88
2462 99
2463 15
2464 51
2465 62
2466 19
2467 83
2468 44
2469 81
2470 87
2471 95
2472 118
2473 19
2474 32
2475 23
2476 100
2477 98
2478 73
2479 84
2480 118
2481 41
2482 120
2483 44
2484 0
2485 77
2486 6
2487 61
2488 26
2489 114
2490 27
2491 23
2492 44
2493 81
2494 114
2495 13
2496 41
2497 135
2498 86
2499 97
2500 114
2501 72
2502 47
2503 69
2504 23
2505 112
2506 57
2507 44
2508 114
2509 114
2510 15
2511 35
2512 92
2513 102
2514 61
2515 44
2516 69
2517 51
2518 81
2519 14
2520 72
2521 26
2522 31
2523 53
2524 63
2525 114
2526 97
2527 106
2528 81
2529 118
2530 31
2531 69
2532 32
2533 61
2534 69
2535 18
2536 23
2537 118
2538 55
2539 0
2540 28
2541 114
2542 118
2543 69
2544 31
2545 44
2546 23
2547 87
2548 31
2549 37
2550 57
2551 117
2552 114
2553 31
2554 54
2555 0
2556 7
2557 75
2558 21
2559 59
2560 22
2561 72
2562 8
2563 89
2564 27
2565 59
2566 53
2567 52
2568 27
2569 89
2570 114
2571 35
2572 2
2573 41
2574 44
2575 2
2576 84
2577 6
2578 0
2579 18
2580 22
2581 99
2582 124
2583 31
2584 46
2585 80
2586 44
2587 64
2588 129
2589 51
2590 130
2591 114
2592 3
2593 42
2594 46
2595 2
2596 86
2597 14
2598 58
2599 8
2600 8
2601 13
2602 16
2603 61
2604 57
2605 137
2606 1
2607 8
2608 69
2609 59
2610 142
2611 33
2612 95
2613 14
2614 31
2615 32
2616 60
2617 43
2618 55
2619 102
2620 2
2621 43
2622 118
2623 59
2624 5
2625 88
2626 48
2627 90
2628 99
2629 79
2630 0
2631 52
2632 68
2633 68
2634 60
2635 68
2636 72
2637 18
2638 10
2639 69
2640 81
2641 69
2642 40
2643 48
2644 118
2645 48
2646 53
2647 52
2648 18
2649 74
2650 55
2651 18
2652 98
2653 5
2654 79
2655 11
2656 3
2657 23
2658 84
2659 52
2660 7
2661 31
2662 23
2663 118
2664 81
2665 44
2666 112
2667 2
2668 63
2669 72
2670 78
2671 52
2672 69
2673 138
2674 48
2675 0
2676 105
2677 18
2678 30
2679 48
2680 90
2681 17
2682 38
2683 108
2684 31
2685 81
2686 69
2687 89
2688 18
2689 17
2690 90
2691 18
2692 142
2693 30
2694 69
2695 23
2696 2
2697 53
2698 142
2699 2
2700 95
2701 61
2702 8
2703 38
2704 2
2705 38
2706 2
2707 38
2708 84
2709 55
2710 23
2711 14
2712 69
2713 126
2714 23
2715 69
2716 13
2717 48
2718 72
2719 79
2720 52
2721 44
2722 5
2723 103
2724 9
2725 47
2726 32
2727 85
2728 2
2729 81
2730 74
2731 6
2732 69
2733 9
2734 47
2735 9
2736 17
2737 90
2738 27
2739 60
2740 91
2741 133
2742 83
2743 47
2744 90
2745 18
2746 16
2747 31
2748 38
2749 30
2750 47
2751 56
2752 44
2753 129
2754 57
2755 23
2756 83
2757 95
2758 15
2759 79
2760 93
2761 56
2762 0
2763 23
2764 14
2765 118
2766 18
2767 114
2768 43
2769 57
2770 5
2771 23
2772 5
2773 18
2774 55
2775 59
2776 79
2777 38
2778 23
2779 59
2780 23
2781 38
2782 114
2783 47
2784 13
2785 44
2786 44
2787 55
2788 8
2789 125
2790 57
2791 19
2792 95
2793 16
2794 69
2795 68
2796 44
2797 127
2798 10
2799 3
2800 2
2801 69
2802 69
2803 117
2804 95
2805 97
2806 57
2807 44
2808 27
2809 7
2810 69
2811 19
2812 118
2813 3
2814 44
2815 5
2816 18
2817 132
2818 81
2819 51
2820 69
2821 23
2822 31
2823 95
2824 23
2825 51
2826 88
2827 16
2828 2
2829 79
2830 47
2831 2
2832 47
2833 95
2834 81
2835 26
2836 53
2837 69
2838 2
2839 52
2840 22
2841 114
2842 31
2843 53
2844 31
2845 26
2846 93
2847 81
2848 56
2849 31
2850 49
2851 83
2852 18
2853 114
2854 69
2855 75
2856 43
2857 42
2858 47
2859 38
2860 38
2861 118
2862 44
2863 55
2864 18
2865 2
2866 36
2867 100
2868 47
2869 84
2870 17
2871 122
2872 118
2873 106
2874 69
2875 84
2876 26
2877 21
2878 31
2879 114
2880 77
2881 118
2882 79
2883 42
2884 118
2885 18
2886 105
2887 63
2888 134
2889 49
2890 16
2891 69
2892 59
2893 44
2894 61
2895 114
2896 52
2897 53
2898 2
2899 51
2900 30
2901 51
2902 53
2903 2
2904 18
2905 68
2906 95
2907 114
2908 138
2909 62
2910 52
2911 125
2912 17
2913 105
2914 68
2915 54
2916 114
2917 2
2918 34
2919 73
2920 89
2921 61
2922 26
2923 68
2924 41
2925 92
2926 53
2927 23
2928 44
2929 73
2930 2
2931 81
2932 72
2933 72
2934 55
2935 31
2936 72
2937 79
2938 47
2939 47
2940 31
2941 93
2942 10
2943 69
2944 44
2945 34
2946 89
2947 72
2948 61
2949 19
2950 23
2951 57
2952 6
2953 99
2954 81
2955 72
2956 18
2957 0
2958 11
2959 31
2960 51
2961 56
2962 68
2963 61
2964 69
2965 124
2966 53
2967 118
2968 114
2969 61
2970 16
2971 24
2972 114
2973 23
2974 26
2975 111
2976 79
2977 57
2978 5
2979 52
2980 30
2981 57
2982 57
2983 47
2984 66
2985 72
2986 68
2987 72
2988 61
2989 118
2990 26
2991 18
2992 129
2993 68
2994 59
2995 31
2996 38
2997 61
2998 2
2999 31
3000 5
3001 130
3002 1
3003 32
3004 112
3005 6
3006 52
3007 53
3008 53
3009 118
3010 18
3011 2
3012 114
3013 69
3014 32
3015 23
3016 2
3017 52
3018 26
3019 26
3020 9
3021 81
3022 73
3023 114
3024 52
3025 72
3026 68
3027 72
3028 123
3029 57
3030 41
3031 18
3032 69
3033 52
3034 44
3035 41
3036 88
3037 101
3038 81
3039 53
3040 81
3041 79
3042 38
3043 16
3044 31
3045 53
3046 81
3047 52
3048 114
3049 81
3050 69
3051 79
3052 23
3053 30
3054 8
3055 79
3056 114
3057 75
3058 30
3059 18
3060 2
3061 61
3062 14
3063 55
3064 110
3065 81
3066 44
3067 40
3068 81
3069 26
3070 57
3071 55
3072 104
3073 118
3074 75
3075 26
3076 2
3077 103
3078 15
3079 34
3080 36
3081 118
3082 52
3083 31
3084 2
3085 26
3086 52
3087 10
3088 41
3089 55
3090 46
3091 17
3092 26
3093 52
3094 2
3095 75
3096 46
3097 52
3098 72
3099 122
3100 69
3101 7
3102 19
3103 118
3104 26
3105 81
3106 44
3107 23
3108 70
3109 85
3110 138
3111 31
3112 118
3113 122
3114 101
3115 136
3116 98
3117 44
3118 2
3119 52
3120 123
3121 107
3122 41
3123 53
3124 26
3125 111
3126 2
3127 69
3128 5
3129 14
3130 118
3131 68
3132 47
3133 118
3134 53
3135 68
3136 60
3137 58
3138 118
3139 5
3140 118
3141 35
3142 21
3143 53
3144 38
3145 29
3146 38
3147 38
3148 11
3149 23
3150 30
3151 52
3152 12
3153 26
3154 69
3155 44
3156 23
3157 56
3158 81
3159 5
3160 60
3161 47
3162 60
3163 23
3164 5
3165 118
3166 81
3167 57
3168 30
3169 37
3170 2
3171 2
3172 16
3173 0
3174 58
3175 2
3176 54
3177 73
3178 23
3179 26
3180 81
3181 68
3182 70
3183 52
3184 129
3185 12
3186 44
3187 42
3188 118
3189 62
3190 74
3191 90
3192 2
3193 118
3194 55
3195 55
3196 105
3197 38
3198 91
3199 52
3200 23
3201 114
3202 59
3203 46
3204 81
3205 69
3206 37
3207 101
3208 13
3209 2
3210 31
3211 84
3212 118
3213 125
3214 62
3215 38
3216 34
3217 42
3218 18
3219 17
3220 39
3221 5
3222 61
3223 18
3224 17
3225 118
3226 2
3227 5
3228 44
3229 8
3230 105
3231 97
3232 87
3233 89
3234 15
3235 130
3236 7
3237 5
3238 31
3239 81
3240 136
3241 18
3242 41
3243 112
3244 44
3245 73
3246 114
3247 15
3248 60
3249 69
3250 89
3251 20
3252 52
3253 95
3254 23
3255 34
3256 68
3257 44
3258 23
3259 23
3260 49
3261 95
3262 88
3263 36
3264 56
3265 95
3266 23
3267 5
3268 13
3269 18
3270 84
3271 125
3272 129
3273 23
3274 19
3275 44
3276 60
3277 16
3278 115
3279 60
3280 120
3281 18
3282 81
3283 74
3284 84
3285 5
3286 89
3287 14
3288 69
3289 9
3290 0
3291 90
3292 84
3293 87
3294 7
3295 2
3296 19
3297 62
3298 90
3299 84
3300 16
3301 68
3302 89
3303 99
3304 60
3305 84
3306 17
3307 5
3308 49
3309 141
3310 81
3311 83
3312 30
3313 53
3314 46
3315 35
3316 129
3317 19
3318 92
3319 5
3320 16
3321 118
3322 90
3323 83
3324 17
3325 97
3326 38
3327 51
3328 27
3329 32
3330 50
3331 50
3332 95
3333 31
3334 2
3335 118
3336 57
3337 101
3338 44
3339 90
3340 47
3341 29
3342 141
3343 23
3344 81
3345 51
3346 81
3347 52
3348 52
3349 15
3350 132
3351 16
3352 79
3353 14
3354 47
3355 15
3356 7
3357 15
3358 34
3359 62
3360 79
3361 87
3362 81
3363 36
3364 5
3365 2
3366 83
3367 48
3368 110
3369 23
3370 40
3371 18
3372 99
3373 5
3374 10
3375 44
3376 2
3377 97
3378 83
3379 52
3380 81
3381 20
3382 23
3383 97
3384 113
3385 104
3386 93
3387 128
3388 40
3389 30
3390 32
3391 97
3392 7
3393 122
3394 81
3395 74
3396 26
3397 97
3398 34
3399 10
3400 44
3401 118
3402 21
3403 18
3404 5
3405 103
3406 38
3407 81
3408 2
3409 52
3410 47
3411 56
3412 79
3413 125
3414 38
3415 10
3416 17
3417 18
3418 63
3419 38
3420 2
3421 95
3422 84
3423 87
3424 44
3425 68
3426 18
3427 57
3428 44
3429 29
3430 4
3431 2
3432 125
3433 81
3434 2
3435 18
3436 66
3437 82
3438 56
3439 59
3440 16
3441 18
3442 63
3443 15
3444 67
3445 118
3446 112
3447 42
3448 118
3449 18
3450 16
3451 23
3452 47
3453 74
3454 113
3455 38
3456 47
3457 114
3458 47
3459 126
3460 114
3461 5
3462 100
3463 0
3464 34
3465 60
3466 47
3467 81
3468 79
3469 40
3470 5
3471 97
3472 118
3473 13
3474 37
3475 89
3476 23
3477 18
3478 112
3479 16
3480 56
3481 5
3482 18
3483 18
3484 18
3485 87
3486 47
3487 23
3488 5
3489 38
3490 18
3491 18
3492 2
3493 122
3494 41
3495 57
3496 37
3497 89
3498 112
3499 5
3500 38
3501 0
3502 86
3503 114
3504 36
3505 97
3506 79
3507 73
3508 71
3509 133
3510 67
3511 23
3512 85
3513 86
3514 51
3515 23
3516 129
3517 61
3518 84
3519 27
3520 141
3521 69
3522 2
3523 87
3524 38
3525 13
3526 57
3527 118
3528 143
3529 101
3530 132
3531 22
3532 142
3533 9
3534 132
3535 11
3536 52
3537 47
3538 55
3539 26
3540 23
3541 0
3542 48
3543 16
3544 2
3545 35
3546 81
3547 97
3548 79
3549 5
3550 44
3551 52
3552 114
3553 22
3554 57
3555 51
3556 38
3557 81
3558 47
3559 118
3560 38
3561 47
3562 120
3563 44
3564 127
3565 2
3566 53
3567 2
3568 75
3569 14
3570 18
3571 5
3572 47
3573 57
3574 31
3575 5
3576 55
3577 47
3578 69
3579 72
3580 37
3581 114
3582 47
3583 53
3584 18
3585 38
3586 39
3587 114
3588 37
3589 0
3590 11
3591 52
3592 30
3593 70
3594 18
3595 72
3596 84
3597 94
3598 87
3599 69
3600 32
3601 31
3602 10
3603 93
3604 77
3605 119
3606 0
3607 21
3608 12
3609 105
3610 44
3611 46
3612 35
3613 81
3614 8
3615 103
3616 31
3617 118
3618 44
3619 44
3620 60
3621 68
3622 14
3623 129
3624 101
3625 55
3626 128
3627 105
3628 84
3629 46
3630 90
3631 12
3632 114
3633 0
3634 60
3635 53
3636 132
3637 13
3638 2
3639 15
3640 0
3641 66
3642 2
3643 55
3644 2
3645 53
3646 23
3647 118
3648 2
3649 81
3650 137
3651 52
3652 31
3653 125
3654 119
3655 54
3656 5
3657 18
3658 105
3659 52
3660 70
3661 32
3662 19
3663 72
3664 81
3665 81
3666 2
3667 81
3668 114
3669 118
3670 2
3671 81
3672 52
3673 65
3674 52
3675 103
3676 14
3677 52
3678 18
3679 137
3680 48
3681 30
3682 66
3683 60
3684 18
3685 38
3686 15
3687 5
3688 98
3689 106
3690 50
3691 48
3692 32
3693 36
3694 55
3695 5
3696 32
3697 38
3698 95
3699 138
3700 84
3701 31
3702 84
3703 38
3704 32
3705 95
3706 0
3707 44
3708 0
3709 8
3710 104
3711 17
3712 81
3713 26
3714 118
3715 81
3716 143
3717 68
3718 81
3719 81
3720 90
3721 26
3722 5
3723 118
3724 114
3725 81
3726 44
3727 47
3728 83
3729 32
3730 53
3731 52
3732 52
3733 2
3734 39
3735 44
3736 73
3737 5
3738 72
3739 14
3740 44
3741 125
3742 14
3743 118
3744 51
3745 38
3746 114
3747 62
3748 60
3749 33
3750 79
3751 118
3752 86
3753 18
3754 81
3755 66
3756 27
3757 2
3758 31
3759 79
3760 5
3761 140
3762 91
3763 129
3764 88
3765 34
3766 38
3767 77
3768 0
3769 114
3770 69
3771 79
3772 115
3773 56
3774 18
3775 81
3776 52
3777 79
3778 52
3779 38
3780 81
3781 97
3782 57
3783 57
3784 81
3785 97
3786 124
3787 44
3788 97
3789 23
3790 80
3791 114
3792 81
3793 26
3794 129
3795 81
3796 2
3797 95
3798 57
3799 28
3800 92
3801 138
3802 69
3803 118
3804 26
3805 38
3806 79
3807 93
3808 7
3809 47
3810 97
3811 47
3812 79
3813 69
3814 81
3815 26
3816 60
3817 38
3818 79
3819 18
3820 114
3821 23
3822 23
3823 4
3824 90
3825 42
3826 42
3827 67
3828 52
3829 133
3830 52
3831 18
3832 28
3833 81
3834 49
3835 38
3836 81
3837 38
3838 16
3839 67
3840 38
3841 85
3842 18
3843 114
3844 16
3845 18
3846 42
3847 31
3848 51
3849 54
3850 9
3851 93
3852 60
3853 44
3854 38
3855 30
3856 92
3857 13
3858 65
3859 44
3860 38
3861 118
3862 93
3863 2
3864 47
3865 79
3866 90
3867 2
3868 31
3869 81
3870 5
3871 61
3872 19
3873 93
3874 47
3875 5
3876 52
3877 44
3878 25
3879 128
3880 90
3881 42
3882 48
3883 57
3884 114
3885 24
3886 90
3887 44
3888 2
3889 114
3890 55
3891 69
3892 118
3893 37
3894 23
3895 55
3896 90
3897 38
3898 101
3899 51
3900 52
3901 69
3902 56
3903 47
3904 2
3905 12
3906 69
3907 41
3908 57
3909 79
3910 16
3911 16
3912 36
3913 52
3914 47
3915 23
3916 52
3917 44
3918 114
3919 114
3920 114
3921 79
3922 97
3923 5
3924 49
3925 56
3926 68
3927 80
3928 81
3929 68
3930 47
3931 69
3932 53
3933 16
3934 69
3935 38
3936 42
3937 89
3938 44
3939 5
3940 118
3941 97
3942 5
3943 55
3944 89
3945 79
3946 114
3947 53
3948 62
3949 69
3950 55
3951 61
3952 54
3953 57
3954 124
3955 53
3956 68
3957 79
3958 2
3959 47
3960 118
3961 51
3962 53
3963 79
3964 38
3965 37
3966 68
3967 52
3968 55
3969 30
3970 79
3971 55
3972 51
3973 57
3974 57
3975 72
3976 86
3977 114
3978 64
3979 118
3980 114
3981 57
3982 61
3983 86
3984 59
3985 114
3986 114
3987 72
3988 142
3989 92
3990 52
3991 79
3992 31
3993 51
3994 53
3995 51
3996 61
3997 79
3998 118
3999 53
4000 98
4001 36
4002 118
4003 5
4004 88
4005 114
4006 47
4007 44
4008 114
4009 72
4010 53
4011 37
4012 57
4013 53
4014 109
4015 31
4016 76
4017 49
4018 2
4019 59
4020 18
4021 124
4022 6
4023 69
4024 52
4025 44
4026 72
4027 16
4028 95
4029 5
4030 112
4031 32
4032 55
4033 69
4034 52
4035 81
4036 26
4037 118
4038 69
4039 18
4040 44
4041 114
4042 81
4043 0
4044 31
4045 5
4046 47
4047 69
4048 88
4049 2
4050 69
4051 69
4052 57
4053 79
4054 53
4055 40
4056 32
4057 118
4058 47
4059 23
4060 65
4061 37
4062 123
4063 57
4064 31
4065 81
4066 52
4067 101
4068 47
4069 118
4070 6
4071 79
4072 2
4073 52
4074 54
4075 53
4076 2
4077 56
4078 52
4079 18
4080 85
4081 65
4082 61
4083 54
4084 75
4085 23
4086 23
4087 118
4088 2
4089 63
4090 2
4091 49
4092 75
4093 26
4094 53
4095 69
4096 68
4097 31
4098 47
4099 56
4100 47
4101 65
4102 118
4103 6
4104 57
4105 69
4106 12
4107 39
4108 10
4109 31
4110 69
4111 79
4112 6
4113 124
4114 72
4115 68
4116 83
4117 4
4118 72
4119 46
4120 62
4121 26
4122 5
4123 74
4124 56
4125 24
4126 38
4127 129
4128 2
4129 33
4130 68
4131 5
4132 2
4133 13
4134 31
4135 41
4136 8
4137 75
4138 56
4139 49
4140 31
4141 69
4142 75
4143 21
4144 28
4145 44
4146 46
4147 14
4148 5
4149 58
4150 81
4151 33
4152 17
4153 57
4154 29
4155 16
4156 83
4157 36
4158 113
4159 2
4160 140
4161 6
4162 47
4163 55
4164 68
4165 79
4166 103
4167 11
4168 11
4169 55
4170 79
4171 30
4172 118
4173 67
4174 74
4175 11
4176 37
4177 14
4178 59
4179 8
4180 31
4181 19
4182 70
4183 38
4184 118
4185 47
4186 44
4187 107
4188 14
4189 92
4190 92
4191 58
4192 137
4193 32
4194 90
4195 63
4196 138
4197 26
4198 70
4199 30
4200 38
4201 7
4202 72
4203 59
4204 129
4205 53
4206 126
4207 0
4208 94
4209 36
4210 123
4211 19
4212 114
4213 94
4214 31
4215 44
4216 58
4217 90
4218 86
4219 126
4220 26
4221 84
4222 27
4223 77
4224 69
4225 60
4226 52
4227 74
4228 13
4229 37
4230 61
4231 53
4232 95
4233 30
4234 73
4235 66
4236 95
4237 9
4238 17
4239 5
4240 17
4241 0
4242 89
4243 30
4244 21
4245 70
4246 39
4247 60
4248 27
4249 44
4250 57
4251 31
4252 136
4253 51
4254 120
4255 85
4256 89
4257 0
4258 66
4259 43
4260 9
4261 88
4262 55
4263 87
4264 25
4265 25
4266 76
4267 34
4268 85
4269 31
4270 99
4271 84
4272 15
4273 18
4274 77
4275 97
4276 96
4277 32
4278 0
4279 84
4280 68
4281 84
4282 55
4283 44
4284 88
4285 134
4286 118
4287 44
4288 118
4289 44
4290 56
4291 5
4292 49
4293 6
4294 32
4295 23
4296 16
4297 56
4298 17
4299 29
4300 109
4301 36
4302 41
4303 44
4304 26
4305 83
4306 87
4307 72
4308 5
4309 52
4310 23
4311 49
4312 14
4313 72
4314 127
4315 93
4316 44
4317 50
4318 73
4319 49
4320 14
4321 92
4322 16
4323 16
4324 16
4325 99
4326 125
4327 77
4328 8
4329 42
4330 142
4331 31
4332 52
4333 34
4334 7
4335 95
4336 86
4337 73
4338 77
4339 56
4340 10
4341 33
4342 21
4343 95
4344 24
4345 46
4346 42
4347 76
4348 12
4349 85
4350 123
4351 91
4352 7
4353 56
4354 65
4355 49
4356 35
4357 141
4358 41
4359 97
4360 11
4361 51
4362 53
4363 11
4364 61
4365 81
4366 81
4367 24
4368 79
4369 16
4370 45
4371 26
4372 75
4373 106
4374 31
4375 31
4376 21
4377 79
4378 4
4379 44
4380 17
4381 106
4382 75
4383 119
4384 58
4385 42
4386 82
4387 8
4388 97
4389 7
4390 80
4391 57
4392 125
4393 22
4394 99
4395 41
4396 107
4397 81
4398 38
4399 128
4400 12
4401 37
4402 8
4403 32
4404 129
4405 23
4406 18
4407 61
4408 82
4409 29
4410 66
4411 33
4412 44
4413 37
4414 115
4415 24
4416 54
4417 18
4418 56
4419 52
4420 47
4421 61
4422 56
4423 23
4424 26
4425 101
4426 95
4427 35
4428 7
4429 47
4430 44
4431 15
4432 18
4433 49
4434 18
4435 18
4436 37
4437 7
4438 11
4439 20
4440 134
4441 56
4442 44
4443 92
4444 32
4445 42
4446 9
4447 36
4448 37
4449 53
4450 51
4451 68
4452 18
4453 86
4454 117
4455 112
4456 47
4457 59
4458 94
4459 109
4460 103
4461 67
4462 44
4463 81
4464 67
4465 131
4466 57
4467 30
4468 89
4469 67
4470 133
4471 125
4472 97
4473 69
4474 52
4475 59
4476 97
4477 97
4478 130
4479 37
4480 10
4481 23
4482 59
4483 60
4484 23
4485 114
4486 19
4487 89
4488 109
4489 81
4490 70
4491 122
4492 142
4493 81
4494 37
4495 86
4496 61
4497 95
4498 117
4499 47
4500 85
4501 56
4502 57
4503 59
4504 17
4505 61
4506 98
4507 47
4508 95
4509 87
4510 81
4511 86
4512 20
4513 47
4514 52
4515 52
4516 140
4517 58
4518 117
4519 101
4520 80
4521 60
4522 132
4523 70
4524 93
4525 81
4526 81
4527 127
4528 17
4529 42
4530 0
4531 114
4532 84
4533 52
4534 49
4535 57
4536 84
4537 44
4538 70
4539 49
4540 47
4541 38
4542 93
4543 92
4544 52
4545 104
4546 72
4547 118
4548 23
4549 69
4550 69
4551 122
4552 57
4553 23
4554 0
4555 118
4556 2
4557 9
4558 125
4559 16
4560 32
4561 18
4562 114
4563 89
4564 52
4565 23
4566 114
4567 55
4568 104
4569 23
4570 137
4571 57
4572 32
4573 52
4574 46
4575 75
4576 41
4577 31
4578 96
4579 118
4580 79
4581 97
4582 134
4583 105
4584 22
4585 11
4586 69
4587 8
4588 118
4589 18
4590 55
4591 26
4592 44
4593 109
4594 69
4595 54
4596 105
4597 18
4598 118
4599 90
4600 53
4601 32
4602 35
4603 5
4604 112
4605 105
4606 114
4607 11
4608 42
4609 76
4610 30
4611 94
4612 30
4613 89
4614 89
4615 51
4616 89
4617 55
4618 8
4619 14
4620 30
4621 17
4622 105
4623 44
4624 52
4625 75
4626 2
4627 44
4628 54
4629 2
4630 100
4631 41
4632 2
4633 12
4634 2
4635 20
4636 2
4637 103
4638 85
4639 12
4640 41
4641 65
4642 52
4643 52
4644 118
4645 68
4646 29
4647 85
4648 23
4649 72
4650 8
4651 51
4652 22
4653 29
4654 19
4655 2
4656 20
4657 72
4658 2
4659 37
4660 23
4661 68
4662 5
4663 48
4664 2
4665 30
4666 89
4667 5
4668 44
4669 89
4670 2
4671 5
4672 44
4673 43
4674 89
4675 44
4676 5
4677 112
4678 122
4679 81
4680 45
4681 49
4682 8
4683 21
4684 128
4685 44
4686 8
4687 60
4688 105
4689 114
4690 52
4691 112
4692 15
4693 60
4694 72
4695 18
4696 138
4697 81
4698 105
4699 31
4700 92
4701 33
4702 44
4703 5
4704 90
4705 52
4706 104
4707 70
4708 58
4709 32
4710 44
4711 27
4712 23
4713 23
4714 23
4715 97
4716 120
4717 95
4718 72
4719 5
4720 138
4721 65
4722 118
4723 44
4724 132
4725 51
4726 14
4727 23
4728 34
4729 5
4730 39
4731 32
4732 110
4733 44
4734 57
4735 70
4736 44
4737 69
4738 47
4739 81
4740 19
4741 99
4742 52
4743 52
4744 52
4745 17
4746 118
4747 9
4748 85
4749 5
4750 17
4751 38
4752 44
4753 33
4754 38
4755 79
4756 52
4757 15
4758 23
4759 38
4760 46
4761 95
4762 99
4763 15
4764 18
4765 79
4766 18
4767 69
4768 8
4769 26
4770 18
4771 33
4772 52
4773 34
4774 68
4775 52
4776 84
4777 129
4778 68
4779 69
4780 23
4781 129
4782 69
4783 52
4784 118
4785 44
4786 7
4787 69
4788 81
4789 17
4790 47
4791 9
4792 62
4793 69
4794 79
4795 79
4796 44
4797 21
4798 8
4799 114
4800 16
4801 23
4802 90
4803 15
4804 36
4805 26
4806 61
4807 55
4808 69
4809 52
4810 90
4811 38
4812 44
4813 7
4814 55
4815 17
4816 19
4817 57
4818 47
4819 92
4820 98
4821 47
4822 5
4823 18
4824 51
4825 2
4826 93
4827 103
4828 47
4829 56
4830 81
4831 92
4832 72
4833 60
4834 5
4835 18
4836 7
4837 23
4838 17
4839 81
4840 118
4841 44
4842 17
4843 18
4844 47
4845 44
4846 44
4847 2
4848 114
4849 93
4850 79
4851 2
4852 103
4853 77
4854 81
4855 32
4856 105
4857 2
4858 79
4859 61
4860 16
4861 19
4862 55
4863 69
4864 2
4865 117
4866 81
4867 44
4868 55
4869 21
4870 79
4871 51
4872 55
4873 81
4874 93
4875 23
4876 26
4877 2
4878 19
4879 52
4880 79
4881 79
4882 97
4883 30
4884 2
4885 19
4886 118
4887 93
4888 2
4889 118
4890 53
4891 114
4892 57
4893 38
4894 52
4895 47
4896 34
4897 81
4898 5
4899 5
4900 44
4901 19
4902 55
4903 57
4904 80
4905 38
4906 79
4907 52
4908 55
4909 47
4910 38
4911 69
4912 2
4913 81
4914 97
4915 76
4916 104
4917 16
4918 19
4919 44
4920 52
4921 69
4922 79
4923 23
4924 40
4925 114
4926 23
4927 31
4928 31
4929 88
4930 16
4931 55
4932 38
4933 47
4934 23
4935 55
4936 61
4937 52
4938 114
4939 70
4940 38
4941 28
4942 12
4943 89
4944 31
4945 38
4946 19
4947 47
4948 18
4949 54
4950 23
4951 99
4952 52
4953 47
4954 5
4955 23
4956 118
4957 106
4958 16
4959 57
4960 70
4961 118
4962 18
4963 57
4964 31
4965 52
4966 81
4967 54
4968 47
4969 23
4970 26
4971 31
4972 57
4973 23
4974 51
4975 81
4976 23
4977 30
4978 114
4979 79
4980 2
4981 31
4982 59
4983 19
4984 42
4985 38
4986 47
4987 68
4988 5
4989 93
4990 72
4991 5
4992 73
4993 114
4994 114
4995 30
4996 66
4997 81
4998 52
4999 99
5000 2
5001 16
5002 72
5003 143
5004 52
5005 17
5006 117
5007 56
5008 84
5009 97
5010 14
5011 69
5012 53
5013 16
5014 2
5015 53
5016 81
5017 18
5018 55
5019 53
5020 5
5021 26
5022 85
5023 79
5024 68
5025 19
5026 48
5027 81
5028 114
5029 69
5030 53
5031 2
5032 30
5033 38
5034 18
5035 72
5036 5
5037 58
5038 69
5039 97
5040 114
5041 33
5042 72
5043 42
5044 68
5045 118
5046 114
5047 57
5048 74
5049 72
5050 52
5051 26
5052 79
5053 97
5054 56
5055 83
5056 44
5057 68
5058 38
5059 132
5060 79
5061 2
5062 69
5063 30
5064 44
5065 87
5066 129
5067 57
5068 109
5069 57
5070 81
5071 53
5072 72
5073 44
5074 11
5075 23
5076 93
5077 38
5078 119
5079 31
5080 114
5081 5
5082 79
5083 118
5084 57
5085 128
5086 52
5087 69
5088 114
5089 78
5090 57
5091 87
5092 81
5093 118
5094 69
5095 30
5096 31
5097 26
5098 79
5099 32
5100 112
5101 81
5102 138
5103 114
5104 34
5105 53
5106 73
5107 9
5108 107
5109 0
5110 57
5111 69
5112 114
5113 20
5114 23
5115 69
5116 52
5117 60
5118 5
5119 51
5120 52
5121 28
5122 72
5123 84
5124 6
5125 111
5126 131
5127 133
5128 14
5129 29
5130 49
5131 118
5132 35
5133 81
5134 52
5135 0
5136 99
5137 61
5138 5
5139 72
5140 114
5141 2
5142 89
5143 46
5144 11
5145 72
5146 2
5147 14
5148 8
5149 2
5150 72
5151 44
5152 55
5153 8
5154 48
5155 129
5156 110
5157 114
5158 33
5159 31
5160 38
5161 31
5162 0
5163 2
5164 87
5165 69
5166 89
5167 129
5168 59
5169 57
5170 30
5171 9
5172 95
5173 118
5174 2
5175 118
5176 142
5177 89
5178 118
5179 44
5180 118
5181 75
5182 118
5183 31
5184 68
5185 74
5186 12
5187 105
5188 26
5189 97
5190 112
5191 38
5192 86
5193 109
5194 14
5195 42
5196 2
5197 22
5198 23
5199 2
5200 43
5201 14
5202 109
5203 2
5204 82
5205 8
5206 26
5207 81
5208 40
5209 38
5210 26
5211 5
5212 83
5213 14
5214 103
5215 2
5216 40
5217 113
5218 38
5219 5
5220 44
5221 31
5222 2
5223 79
5224 23
5225 67
5226 118
5227 52
5228 2
5229 2
5230 2
5231 5
5232 75
5233 72
5234 81
5235 67
5236 44
5237 23
5238 75
5239 64
5240 53
5241 23
5242 44
5243 26
5244 2
5245 110
5246 118
5247 46
5248 118
5249 68
5250 18
5251 38
5252 65
5253 18
5254 5
5255 60
5256 44
5257 2
5258 23
5259 59
5260 68
5261 15
5262 69
5263 46
5264 85
5265 53
5266 62
5267 39
5268 38
5269 40
5270 52
5271 32
5272 95
5273 130
5274 81
5275 95
5276 26
5277 118
5278 38
5279 55
5280 97
5281 23
5282 127
5283 70
5284 109
5285 75
5286 46
5287 25
5288 71
5289 26
5290 18
5291 34
5292 33
5293 38
5294 52
5295 17
5296 118
5297 18
5298 39
5299 41
5300 97
5301 5
5302 5
5303 65
5304 17
5305 27
5306 143
5307 81
5308 44
5309 38
5310 95
5311 30
5312 7
5313 17
5314 19
5315 17
5316 19
5317 7
5318 124
5319 38
5320 19
5321 16
5322 44
5323 109
5324 125
5325 23
5326 89
5327 93
5328 23
5329 120
5330 0
5331 8
5332 142
5333 34
5334 90
5335 88
5336 104
5337 94
5338 127
5339 49
5340 5
5341 18
5342 49
5343 118
5344 36
5345 5
5346 81
5347 14
5348 16
5349 4
5350 23
5351 136
5352 40
5353 42
5354 38
5355 65
5356 84
5357 23
5358 16
5359 68
5360 5
5361 11
5362 60
5363 81
5364 17
5365 52
5366 127
5367 58
5368 104
5369 95
5370 68
5371 118
5372 38
5373 6
5374 31
5375 30
5376 18
5377 52
5378 53
5379 81
5380 5
5381 2
5382 52
5383 118
5384 8
5385 17
5386 114
5387 38
5388 42
5389 51
5390 52
5391 47
5392 55
5393 16
5394 19
5395 52
5396 98
5397 5
5398 38
5399 109
5400 49
5401 76
5402 19
5403 26
5404 81
5405 129
5406 44
5407 52
5408 19
5409 56
5410 118
5411 97
5412 85
5413 80
5414 5
5415 2
5416 118
5417 23
5418 12
5419 93
5420 56
5421 79
5422 134
5423 124
5424 19
5425 52
5426 44
5427 46
5428 52
5429 11
5430 8
5431 45
5432 81
5433 81
5434 18
5435 79
5436 22
5437 11
5438 34
5439 118
5440 95
5441 5
5442 2
5443 85
5444 17
5445 5
5446 18
5447 41
5448 99
5449 46
5450 42
5451 52
5452 42
5453 44
5454 32
5455 16
5456 31
5457 52
5458 33
5459 47
5460 94
5461 65
5462 52
5463 124
5464 56
5465 17
5466 53
5467 62
5468 15
5469 5
5470 89
5471 38
5472 50
5473 36
5474 38
5475 18
5476 57
5477 59
5478 68
5479 51
5480 52
5481 12
5482 53
5483 26
5484 137
5485 131
5486 7
5487 5
5488 70
5489 12
5490 49
5491 101
5492 79
5493 88
5494 51
5495 46
5496 22
5497 38
5498 57
5499 114
5500 124
5501 8
5502 23
5503 37
5504 116
5505 59
5506 18
5507 81
5508 99
5509 118
5510 18
5511 9
5512 82
5513 95
5514 23
5515 23
5516 26
5517 23
5518 38
5519 118
5520 23
5521 78
5522 39
5523 49
5524 118
5525 99
5526 52
5527 79
5528 47
5529 81
5530 95
5531 42
5532 69
5533 2
5534 57
5535 24
5536 5
5537 56
5538 52
5539 131
5540 86
5541 44
5542 52
5543 114
5544 2
5545 88
5546 48
5547 44
5548 118
5549 85
5550 122
5551 0
5552 84
5553 57
5554 2
5555 42
5556 37
5557 5
5558 115
5559 95
5560 79
5561 32
5562 52
5563 5
5564 87
5565 72
5566 132
5567 44
5568 79
5569 63
5570 99
5571 110
5572 42
5573 79
5574 75
5575 50
5576 23
5577 135
5578 52
5579 55
5580 9
5581 84
5582 83
5583 57
5584 130
5585 47
5586 23
5587 2
5588 18
5589 6
5590 81
5591 18
5592 129
5593 81
5594 81
5595 47
5596 23
5597 118
5598 118
5599 57
5600 47
5601 51
5602 79
5603 44
5604 81
5605 69
5606 53
5607 81
5608 118
5609 55
5610 85
5611 52
5612 52
5613 44
5614 19
5615 79
5616 125
5617 30
5618 2
5619 36
5620 31
5621 81
5622 44
5623 72
5624 69
5625 18
5626 87
5627 15
5628 5
5629 114
5630 36
5631 47
5632 8
5633 52
5634 106
5635 106
5636 44
5637 76
5638 55
5639 131
5640 91
5641 129
5642 19
5643 21
5644 117
5645 129
5646 12
5647 91
5648 84
5649 75
5650 18
5651 72
5652 41
5653 55
5654 26
5655 21
5656 46
5657 19
5658 25
5659 99
5660 32
5661 57
5662 41
5663 42
5664 44
5665 72
5666 38
5667 130
5668 0
5669 2
5670 5
5671 59
5672 114
5673 47
5674 40
5675 98
5676 9
5677 36
5678 52
5679 23
5680 55
5681 0
5682 115
5683 55
5684 59
5685 80
5686 11
5687 57
5688 47
5689 14
5690 50
5691 52
5692 58
5693 79
5694 68
5695 81
5696 81
5697 141
5698 140
5699 53
5700 5
5701 33
5702 2
5703 29
5704 58
5705 110
5706 60
5707 31
5708 94
5709 38
5710 29
5711 41
5712 98
5713 0
5714 44
5715 59
5716 18
5717 23
5718 61
5719 88
5720 92
5721 44
5722 96
5723 18
5724 103
5725 81
5726 23
5727 112
5728 63
5729 5
5730 55
5731 52
5732 31
5733 53
5734 38
5735 2
5736 5
5737 51
5738 38
5739 5
5740 34
5741 44
5742 52
5743 52
5744 81
5745 44
5746 38
5747 53
5748 53
5749 62
5750 38
5751 69
5752 52
5753 21
5754 5
5755 84
5756 114
5757 59
5758 32
5759 2
5760 76
5761 27
5762 6
5763 17
5764 106
5765 45
5766 17
5767 12
5768 84
5769 44
5770 116
5771 23
5772 109
5773 23
5774 51
5775 69
5776 52
5777 0
5778 44
5779 47
5780 5
5781 37
5782 69
5783 44
5784 115
5785 69
5786 52
5787 38
5788 18
5789 97
5790 32
5791 81
5792 18
5793 59
5794 18
5795 2
5796 32
5797 114
5798 2
5799 59
5800 89
5801 96
5802 84
5803 68
5804 43
5805 15
5806 114
5807 69
5808 30
5809 44
5810 52
5811 49
5812 81
5813 81
5814 107
5815 89
5816 81
5817 72
5818 38
5819 84
5820 52
5821 69
5822 47
5823 81
5824 57
5825 114
5826 52
5827 106
5828 114
5829 109
5830 114
5831 56
5832 38
5833 2
5834 18
5835 5
5836 57
5837 109
5838 49
5839 6
5840 97
5841 83
5842 125
5843 11
5844 52
5845 53
5846 118
5847 81
5848 38
5849 57
5850 97
5851 118
5852 23
5853 114
5854 114
5855 18
5856 83
5857 52
5858 69
5859 57
5860 97
5861 38
5862 114
5863 143
5864 129
5865 57
5866 91
5867 94
5868 47
5869 5
5870 44
5871 129
5872 44
5873 60
5874 5
5875 91
5876 55
5877 44
5878 97
5879 38
5880 19
5881 68
5882 118
5883 18
5884 52
5885 51
5886 44
5887 52
5888 118
5889 81
5890 18
5891 60
5892 69
5893 114
5894 55
5895 81
5896 101
5897 44
5898 79
5899 42
5900 53
5901 99
5902 79
5903 42
5904 114
5905 46
5906 16
5907 5
5908 2
5909 57
5910 2
5911 119
5912 38
5913 57
5914 15
5915 15
5916 47
5917 46
5918 49
5919 38
5920 53
5921 38
5922 38
5923 57
5924 2
5925 55
5926 2
5927 55
5928 129
5929 95
5930 2
5931 18
5932 118
5933 7
5934 47
5935 52
5936 81
5937 37
5938 118
5939 44
5940 52
5941 97
5942 23
5943 114
5944 74
5945 47
5946 69
5947 53
5948 55
5949 5
5950 16
5951 69
5952 18
5953 57
5954 42
5955 130
5956 5
5957 29
5958 18
5959 38
5960 38
5961 85
5962 40
5963 129
5964 38
5965 44
5966 131
5967 5
5968 2
5969 118
5970 82
5971 31
5972 127
5973 55
5974 18
5975 57
5976 107
5977 69
5978 55
5979 89
5980 23
5981 79
5982 101
5983 52
5984 18
5985 72
5986 5
5987 23
5988 18
5989 124
5990 19
5991 108
5992 57
5993 81
5994 101
5995 47
5996 44
5997 30
5998 27
5999 47
6000 79
6001 44
6002 23
6003 38
6004 69
6005 79
6006 55
6007 68
6008 101
6009 118
6010 81
6011 2
6012 31
6013 136
6014 2
6015 81
6016 68
6017 26
6018 97
6019 38
6020 52
6021 118
6022 30
6023 53
6024 18
6025 72
6026 23
6027 55
6028 23
6029 30
6030 59
6031 47
6032 55
6033 114
6034 89
6035 38
6036 69
6037 81
6038 118
6039 26
6040 79
6041 26
6042 81
6043 31
6044 72
6045 38
6046 60
6047 31
6048 47
6049 41
6050 0
6051 99
6052 73
6053 0
6054 38
6055 103
6056 97
6057 30
6058 31
6059 79
6060 118
6061 31
6062 137
6063 62
6064 2
6065 114
6066 5
6067 30
6068 30
6069 79
6070 18
6071 68
6072 55
6073 79
6074 52
6075 75
6076 51
6077 55
6078 69
6079 52
6080 79
6081 5
6082 6
6083 89
6084 2
6085 79
6086 29
6087 61
6088 114
6089 89
6090 0
6091 26
6092 44
6093 57
6094 52
6095 89
6096 30
6097 84
6098 61
6099 93
6100 27
6101 18
6102 52
6103 30
6104 17
6105 56
6106 114
6107 0
6108 41
6109 93
6110 6
6111 53
6112 53
6113 114
6114 81
6115 140
6116 79
6117 14
6118 69
6119 38
6120 55
6121 5
6122 118
6123 55
6124 72
6125 38
6126 2
6127 16
6128 57
6129 51
6130 30
6131 122
6132 23
6133 81
6134 57
6135 88
6136 118
6137 26
6138 81
6139 53
6140 38
6141 31
6142 5
6143 89
6144 30
6145 58
6146 38
6147 3
6148 8
6149 91
6150 69
6151 31
6152 73
6153 14
6154 75
6155 58
6156 16
6157 59
6158 2
6159 118
6160 105
6161 77
6162 76
6163 59
6164 73
6165 96
6166 124
6167 44
6168 8
6169 58
6170 101
6171 72
6172 33
6173 5
6174 21
6175 8
6176 39
6177 55
6178 80
6179 0
6180 37
6181 26
6182 44
6183 58
6184 89
6185 64
6186 37
6187 19
6188 85
6189 128
6190 14
6191 24
6192 101
6193 54
6194 118
6195 35
6196 50
6197 60
6198 114
6199 69
6200 55
6201 60
6202 71
6203 40
6204 93
6205 8
6206 97
6207 124
6208 75
6209 15
6210 68
6211 46
6212 44
6213 48
6214 47
6215 10
6216 44
6217 46
6218 111
6219 72
6220 30
6221 89
6222 44
6223 19
6224 59
6225 105
6226 69
6227 92
6228 60
6229 92
6230 57
6231 97
6232 103
6233 74
6234 68
6235 114
6236 14
6237 22
6238 123
6239 53
6240 17
6241 101
6242 110
6243 93
6244 14
6245 60
6246 0
6247 84
6248 6
6249 28
6250 95
6251 69
6252 60
6253 73
6254 75
6255 72
6256 105
6257 48
6258 12
6259 84
6260 86
6261 23
6262 26
6263 114
6264 41
6265 73
6266 104
6267 56
6268 26
6269 53
6270 77
6271 15
6272 68
6273 32
6274 103
6275 95
6276 30
6277 75
6278 44
6279 53
6280 93
6281 79
6282 68
6283 96
6284 57
6285 108
6286 105
6287 88
6288 68
6289 110
6290 93
6291 13
6292 44
6293 8
6294 95
6295 8
6296 16
6297 129
6298 47
6299 30
6300 62
6301 61
6302 97
6303 57
6304 102
6305 83
6306 130
6307 44
6308 97
6309 7
6310 44
6311 53
6312 97
6313 7
6314 130
6315 132
6316 98
6317 37
6318 84
6319 141
6320 30
6321 71
6322 97
6323 14
6324 68
6325 17
6326 30
6327 6
6328 36
6329 93
6330 72
6331 129
6332 83
6333 17
6334 98
6335 21
6336 16
6337 1
6338 30
6339 69
6340 60
6341 109
6342 70
6343 52
6344 16
6345 44
6346 69
6347 56
6348 55
6349 45
6350 107
6351 59
6352 29
6353 56
6354 29
6355 99
6356 52
6357 55
6358 75
6359 83
6360 60
6361 17
6362 42
6363 53
6364 34
6365 56
6366 44
6367 123
6368 36
6369 6
6370 112
6371 12
6372 17
6373 44
6374 37
6375 52
6376 15
6377 99
6378 120
6379 4
6380 51
6381 60
6382 127
6383 19
6384 42
6385 130
6386 67
6387 30
6388 70
6389 131
6390 90
6391 44
6392 127
6393 58
6394 93
6395 61
6396 52
6397 45
6398 7
6399 61
6400 26
6401 44
6402 105
6403 111
6404 84
6405 56
6406 34
6407 95
6408 26
6409 84
6410 79
6411 61
6412 3
6413 15
6414 82
6415 44
6416 61
6417 111
6418 44
6419 49
6420 101
6421 87
6422 98
6423 79
6424 32
6425 52
6426 60
6427 142
6428 79
6429 56
6430 57
6431 45
6432 61
6433 66
6434 20
6435 99
6436 55
6437 47
6438 83
6439 14
6440 95
6441 16
6442 61
6443 95
6444 21
6445 53
6446 34
6447 37
6448 15
6449 51
6450 56
6451 48
6452 18
6453 23
6454 41
6455 133
6456 77
6457 75
6458 26
6459 87
6460 47
6461 110
6462 61
6463 33
6464 85
6465 51
6466 18
6467 47
6468 23
6469 23
6470 47
6471 129
6472 43
6473 87
6474 98
6475 84
6476 115
6477 16
6478 59
6479 56
6480 82
6481 18
6482 96
6483 89
6484 17
6485 81
6486 129
6487 61
6488 44
6489 44
6490 42
6491 12
6492 23
6493 84
6494 94
6495 51
6496 42
6497 52
6498 84
6499 59
6500 57
6501 79
6502 104
6503 48
6504 57
6505 47
6506 23
6507 47
6508 81
6509 121
6510 29
6511 66
6512 44
6513 67
6514 41
6515 114
6516 19
6517 59
6518 82
6519 92
6520 78
6521 92
6522 91
6523 52
6524 73
6525 47
6526 15
6527 105
6528 37
6529 51
6530 10
6531 123
6532 39
6533 118
6534 57
6535 30
6536 16
6537 41
6538 49
6539 42
6540 72
6541 47
6542 51
6543 67
6544 113
6545 7
6546 124
6547 31
6548 95
6549 57
6550 97
6551 44
6552 89
6553 18
6554 84
6555 114
6556 114
6557 47
6558 83
6559 20
6560 138
6561 49
6562 52
6563 79
6564 69
6565 131
6566 118
6567 118
6568 17
6569 142
6570 118
6571 74
6572 81
6573 57
6574 23
6575 44
6576 96
6577 118
6578 123
6579 72
6580 101
6581 142
6582 47
6583 56
6584 118
6585 47
6586 89
6587 75
6588 23
6589 52
6590 55
6591 84
6592 56
6593 126
6594 23
6595 41
6596 68
6597 52
6598 68
6599 85
6600 100
6601 35
6602 42
6603 129
6604 90
6605 0
6606 69
6607 52
6608 69
6609 81
6610 52
6611 14
6612 47
6613 87
6614 44
6615 59
6616 91
6617 57
6618 57
6619 42
6620 54
6621 79
6622 57
6623 118
6624 29
6625 114
6626 8
6627 70
6628 87
6629 53
6630 104
6631 15
6632 44
6633 75
6634 79
6635 31
6636 13
6637 92
6638 52
6639 76
6640 9
6641 26
6642 52
6643 57
6644 67
6645 61
6646 81
6647 118
6648 129
6649 72
6650 53
6651 69
6652 59
6653 55
6654 59
6655 5
6656 44
6657 15
6658 32
6659 5
6660 56
6661 20
6662 61
6663 80
6664 108
6665 15
6666 134
6667 44
6668 18
6669 67
6670 6
6671 44
6672 57
6673 61
6674 52
6675 31
6676 83
6677 110
6678 52
6679 20
6680 42
6681 0
6682 2
6683 44
6684 54
6685 57
6686 118
6687 75
6688 73
6689 29
6690 114
6691 118
6692 87
6693 46
6694 60
6695 97
6696 31
6697 2
6698 23
6699 114
6700 55
6701 8
6702 44
6703 69
6704 55
6705 44
6706 79
6707 2
6708 142
6709 56
6710 118
6711 53
6712 44
6713 78
6714 52
6715 23
6716 5
6717 55
6718 114
6719 0
6720 107
6721 66
6722 81
6723 76
6724 14
6725 44
6726 17
6727 52
6728 41
6729 82
6730 2
6731 22
6732 139
6733 81
6734 94
6735 119
6736 74
6737 118
6738 53
6739 139
6740 115
6741 114
6742 70
6743 56
6744 85
6745 70
6746 116
6747 50
6748 29
6749 43
6750 9
6751 18
6752 57
6753 5
6754 113
6755 29
6756 118
6757 44
6758 21
6759 52
6760 66
6761 85
6762 109
6763 2
6764 2
6765 48
6766 130
6767 0
6768 69
6769 69
6770 62
6771 31
6772 41
6773 5
6774 5
6775 90
6776 84
6777 7
6778 81
6779 100
6780 47
6781 5
6782 133
6783 53
6784 38
6785 23
6786 42
6787 102
6788 21
6789 132
6790 18
6791 69
6792 23
6793 23
6794 52
6795 118
6796 60
6797 38
6798 81
6799 15
6800 131
6801 32
6802 23
6803 84
6804 53
6805 52
6806 47
6807 3
6808 17
6809 69
6810 47
6811 31
6812 69
6813 7
6814 113
6815 92
6816 18
6817 52
6818 47
6819 114
6820 60
6821 14
6822 47
6823 79
6824 69
6825 8
6826 34
6827 5
6828 41
6829 17
6830 97
6831 52
6832 52
6833 69
6834 0
6835 89
6836 38
6837 101
6838 6
6839 38
6840 57
6841 84
6842 106
6843 95
6844 19
6845 27
6846 32
6847 114
6848 97
6849 57
6850 47
6851 59
6852 79
6853 18
6854 69
6855 94
6856 2
6857 118
6858 68
6859 92
6860 38
6861 22
6862 56
6863 23
6864 79
6865 81
6866 44
6867 16
6868 79
6869 19
6870 24
6871 38
6872 87
6873 81
6874 75
6875 81
6876 60
6877 65
6878 114
6879 92
6880 56
6881 52
6882 114
6883 118
6884 26
6885 135
6886 44
6887 79
6888 5
6889 38
6890 19
6891 79
6892 56
6893 38
6894 5
6895 79
6896 38
6897 90
6898 5
6899 51
6900 55
6901 52
6902 114
6903 64
6904 118
6905 5
6906 52
6907 69
6908 52
6909 23
6910 117
6911 36
6912 60
6913 79
6914 79
6915 61
6916 5
6917 85
6918 97
6919 90
6920 93
6921 87
6922 69
6923 110
6924 56
6925 95
6926 55
6927 97
6928 47
6929 56
6930 131
6931 118
6932 7
6933 79
6934 53
6935 44
6936 101
6937 23
6938 52
6939 56
6940 101
6941 48
6942 18
6943 68
6944 57
6945 35
6946 11
6947 69
6948 1
6949 44
6950 83
6951 51
6952 38
6953 66
6954 44
6955 70
6956 2
6957 57
6958 47
6959 56
6960 37
6961 114
6962 38
6963 25
6964 55
6965 68
6966 114
6967 57
6968 52
6969 31
6970 99
6971 52
6972 69
6973 68
6974 58
6975 23
6976 37
6977 5
6978 38
6979 40
6980 67
6981 5
6982 16
6983 52
6984 5
6985 101
6986 17
6987 38
6988 89
6989 31
6990 69
6991 114
6992 2
6993 61
6994 68
6995 49
6996 38
6997 31
6998 44
6999 55
7000 97
7001 31
7002 53
7003 18
7004 114
7005 101
7006 18
7007 52
7008 23
7009 23
7010 52
7011 30
7012 47
7013 18
7014 69
7015 31
7016 18
7017 30
7018 47
7019 101
7020 42
7021 23
7022 31
7023 44
7024 30
7025 41
7026 72
7027 65
7028 93
7029 81
7030 59
7031 59
7032 30
7033 18
7034 79
7035 44
7036 69
7037 41
7038 114
7039 26
7040 97
7041 75
7042 53
7043 38
7044 18
7045 57
7046 15
7047 55
7048 21
7049 18
7050 101
7051 30
7052 68
7053 27
7054 114
7055 44
7056 44
7057 30
7058 118
7059 52
7060 73
7061 69
7062 55
7063 79
7064 81
7065 105
7066 56
7067 18
7068 95
7069 55
7070 118
7071 5
7072 46
7073 47
7074 38
7075 121
7076 79
7077 114
7078 44
7079 23
7080 26
7081 5
7082 114
7083 30
7084 59
7085 109
7086 68
7087 65
7088 55
7089 69
7090 31
7091 58
7092 118
7093 69
7094 30
7095 57
7096 57
7097 84
7098 53
7099 53
7100 2
7101 63
7102 79
7103 68
7104 85
7105 2
7106 114
7107 69
7108 42
7109 115
7110 57
7111 118
7112 69
7113 68
7114 52
7115 109
7116 72
7117 68
7118 57
7119 73
7120 9
7121 42
7122 31
7123 47
7124 51
7125 44
7126 52
7127 55
7128 18
7129 72
7130 47
7131 26
7132 38
7133 30
7134 29
7135 6
7136 26
7137 5
7138 68
7139 26
7140 31
7141 38
7142 81
7143 114
7144 68
7145 105
7146 2
7147 92
7148 125
7149 38
7150 69
7151 78
7152 23
7153 114
7154 80
7155 15
7156 89
7157 47
7158 85
7159 44
7160 68
7161 79
7162 38
7163 1
7164 43
7165 69
7166 118
7167 31
7168 41
7169 75
7170 52
7171 81
7172 36
7173 68
7174 122
7175 69
7176 103
7177 79
7178 52
7179 44
7180 31
7181 139
7182 32
7183 102
7184 2
7185 57
7186 48
7187 65
7188 12
7189 2
7190 61
7191 56
7192 44
7193 45
7194 2
7195 89
7196 55
7197 32
7198 68
7199 60
7200 127
7201 101
7202 60
7203 26
7204 79
7205 118
7206 60
7207 43
7208 5
7209 123
7210 96
7211 8
7212 89
7213 59
7214 70
7215 53
7216 40
7217 26
7218 78
7219 23
7220 23
7221 2
7222 89
7223 23
7224 30
7225 5
7226 32
7227 142
7228 38
7229 44
7230 68
7231 44
7232 72
7233 5
7234 2
7235 68
7236 124
7237 44
7238 18
7239 75
7240 13
7241 10
7242 38
7243 44
7244 30
7245 18
7246 18
7247 70
7248 23
7249 108
7250 5
7251 23
7252 52
7253 92
7254 5
7255 25
7256 14
7257 18
7258 81
7259 123
7260 42
7261 2
7262 79
7263 38
7264 73
7265 31
7266 44
7267 89
7268 18
7269 8
7270 59
7271 69
7272 57
7273 14
7274 62
7275 78
7276 88
7277 44
7278 66
7279 118
7280 68
7281 12
7282 58
7283 23
7284 132
7285 18
7286 21
7287 54
7288 18
7289 81
7290 136
7291 23
7292 118
7293 44
7294 38
7295 47
7296 71
7297 17
7298 41
7299 48
7300 44
7301 2
7302 52
7303 75
7304 18
7305 23
7306 48
7307 0
7308 44
7309 81
7310 26
7311 2
7312 90
7313 32
7314 38
7315 17
7316 68
7317 5
7318 95
7319 23
7320 95
7321 85
7322 52
7323 109
7324 18
7325 118
7326 2
7327 55
7328 5
7329 2
7330 87
7331 48
7332 78
7333 41
7334 131
7335 90
7336 44
7337 110
7338 38
7339 129
7340 38
7341 44
7342 23
7343 25
7344 74
7345 18
7346 95
7347 8
7348 41
7349 34
7350 136
7351 22
7352 5
7353 25
7354 74
7355 44
7356 53
7357 96
7358 44
7359 33
7360 23
7361 52
7362 23
7363 8
7364 103
7365 78
7366 118
7367 52
7368 103
7369 118
7370 7
7371 18
7372 16
7373 14
7374 26
7375 52
7376 81
7377 104
7378 139
7379 84
7380 5
7381 15
7382 2
7383 84
7384 95
7385 107
7386 60
7387 18
7388 99
7389 26
7390 52
7391 133
7392 29
7393 97
7394 30
7395 62
7396 2
7397 23
7398 107
7399 31
7400 18
7401 93
7402 51
7403 38
7404 81
7405 19
7406 99
7407 93
7408 44
7409 68
7410 38
7411 97
7412 118
7413 31
7414 18
7415 65
7416 106
7417 97
7418 38
7419 5
7420 36
7421 118
7422 7
7423 71
7424 38
7425 87
7426 23
7427 38
7428 2
7429 118
7430 34
7431 20
7432 37
7433 53
7434 36
7435 84
7436 118
7437 45
7438 61
7439 90
7440 18
7441 7
7442 42
7443 81
7444 93
7445 18
7446 79
7447 47
7448 29
7449 49
7450 105
7451 118
7452 43
7453 110
7454 17
7455 130
7456 114
7457 124
7458 18
7459 38
7460 97
7461 5
7462 81
7463 103
7464 110
7465 79
7466 38
7467 44
7468 5
7469 84
7470 77
7471 117
7472 107
7473 52
7474 26
7475 14
7476 52
7477 2
7478 5
7479 5
7480 23
7481 23
7482 34
7483 97
7484 81
7485 31
7486 33
7487 33
7488 15
7489 49
7490 42
7491 81
7492 18
7493 47
7494 7
7495 118
7496 2
7497 17
7498 5
7499 38
7500 112
7501 37
7502 2
7503 80
7504 127
7505 7
7506 18
7507 81
7508 25
7509 17
7510 52
7511 37
7512 44
7513 79
7514 81
7515 53
7516 92
7517 52
7518 52
7519 79
7520 138
7521 120
7522 48
7523 84
7524 15
7525 47
7526 44
7527 18
7528 57
7529 41
7530 52
7531 5
7532 18
7533 52
7534 104
7535 58
7536 5
7537 2
7538 132
7539 89
7540 38
7541 68
7542 34
7543 18
7544 57
7545 107
7546 127
7547 19
7548 84
7549 23
7550 41
7551 19
7552 38
7553 61
7554 2
7555 18
7556 61
7557 79
7558 23
7559 123
7560 118
7561 46
7562 23
7563 69
7564 89
7565 101
7566 81
7567 26
7568 23
7569 127
7570 42
7571 52
7572 114
7573 91
7574 18
7575 81
7576 52
7577 65
7578 139
7579 69
7580 57
7581 51
7582 77
7583 40
7584 27
7585 101
7586 16
7587 19
7588 79
7589 118
7590 47
7591 2
7592 57
7593 84
7594 43
7595 141
7596 18
7597 81
7598 79
7599 80
7600 47
7601 51
7602 55
7603 68
7604 142
7605 79
7606 37
7607 13
7608 35
7609 114
7610 118
7611 17
7612 2
7613 18
7614 118
7615 38
7616 42
7617 93
7618 87
7619 2
7620 47
7621 56
7622 2
7623 5
7624 87
7625 57
7626 57
7627 22
7628 2
7629 114
7630 79
7631 92
7632 44
7633 52
7634 23
7635 128
7636 111
7637 72
7638 44
7639 5
7640 30
7641 5
7642 72
7643 47
7644 114
7645 2
7646 32
7647 52
7648 45
7649 18
7650 114
7651 55
7652 85
7653 57
7654 57
7655 47
7656 72
7657 102
7658 118
7659 89
7660 69
7661 53
7662 84
7663 52
7664 118
7665 27
7666 16
7667 52
7668 57
7669 10
7670 70
7671 30
7672 30
7673 75
7674 36
7675 79
7676 2
7677 116
7678 110
7679 38
7680 75
7681 132
7682 81
7683 118
7684 52
7685 94
7686 55
7687 38
7688 57
7689 2
7690 53
7691 52
7692 87
7693 53
7694 16
7695 51
7696 75
7697 30
7698 74
7699 81
7700 56
7701 55
7702 44
7703 36
7704 98
7705 101
7706 44
7707 37
7708 110
7709 44
7710 52
7711 47
7712 2
7713 68
7714 47
7715 32
7716 131
7717 23
7718 52
7719 114
7720 89
7721 56
7722 41
7723 12
7724 52
7725 59
7726 43
7727 37
7728 33
7729 68
7730 30
7731 129
7732 124
7733 59
7734 32
7735 59
7736 53
7737 32
7738 12
7739 81
7740 28
7741 0
7742 81
7743 52
7744 81
7745 47
7746 27
7747 23
7748 79
7749 18
7750 5
7751 81
7752 23
7753 52
7754 114
7755 18
7756 8
7757 60
7758 69
7759 120
7760 23
7761 38
7762 53
7763 38
7764 142
7765 2
7766 2
7767 79
7768 81
7769 81
7770 125
7771 52
7772 44
7773 14
7774 5
7775 44
7776 119
7777 44
7778 23
7779 32
7780 59
7781 68
7782 118
7783 38
7784 2
7785 140
7786 81
7787 5
7788 55
7789 95
7790 90
7791 73
7792 14
7793 41
7794 83
7795 42
7796 86
7797 95
7798 18
7799 4
7800 5
7801 118
7802 94
7803 112
7804 30
7805 70
7806 95
7807 5
7808 68
7809 52
7810 11
7811 80
7812 5
7813 109
7814 75
7815 93
7816 23
7817 17
7818 81
7819 38
7820 125
7821 38
7822 73
7823 92
7824 44
7825 75
7826 72
7827 72
7828 25
7829 73
7830 141
7831 88
7832 124
7833 93
7834 112
7835 85
7836 85
7837 91
7838 83
7839 38
7840 95
7841 47
7842 27
7843 38
7844 2
7845 85
7846 87
7847 44
7848 2
7849 2
7850 44
7851 47
7852 91
7853 44
7854 26
7855 18
7856 93
7857 114
7858 47
7859 81
7860 8
7861 5
7862 118
7863 38
7864 85
7865 7
7866 79
7867 69
7868 2
7869 57
7870 81
7871 68
7872 83
7873 5
7874 26
7875 37
7876 5
7877 52
7878 2
7879 99
7880 23
7881 85
7882 23
7883 118
7884 69
7885 107
7886 15
7887 15
7888 57
7889 15
7890 114
7891 84
7892 18
7893 90
7894 23
7895 95
7896 81
7897 99
7898 38
7899 81
7900 79
7901 60
7902 118
7903 118
7904 97
7905 56
7906 51
7907 57
7908 57
7909 73
7910 5
7911 118
7912 114
7913 38
7914 84
7915 56
7916 57
7917 121
7918 30
7919 44
7920 81
7921 55
7922 57
7923 52
7924 99
7925 52
7926 93
7927 19
7928 52
7929 38
7930 138
7931 118
7932 38
7933 47
7934 55
7935 44
7936 68
7937 93
7938 52
7939 23
7940 114
7941 18
7942 52
7943 18
7944 44
7945 42
7946 2
7947 118
7948 114
7949 19
7950 32
7951 69
7952 7
7953 66
7954 81
7955 38
7956 44
7957 23
7958 15
7959 72
7960 69
7961 55
7962 47
7963 52
7964 81
7965 49
7966 44
7967 53
7968 18
7969 69
7970 42
7971 10
7972 55
7973 47
7974 38
7975 114
7976 55
7977 49
7978 69
7979 55
7980 19
7981 23
7982 55
7983 84
7984 55
7985 61
7986 55
7987 53
7988 38
7989 52
7990 46
7991 75
7992 84
7993 2
7994 16
7995 97
7996 53
7997 17
7998 79
7999 23
8000 43
8001 6
8002 31
8003 57
8004 56
8005 17
8006 68
8007 36
8008 57
8009 53
8010 95
8011 79
8012 57
8013 53
8014 118
8015 69
8016 52
8017 69
8018 114
8019 49
8020 7
8021 16
8022 52
8023 70
8024 31
8025 95
8026 81
8027 69
8028 57
8029 5
8030 53
8031 57
8032 72
8033 118
8034 37
8035 68
8036 18
8037 38
8038 23
8039 38
8040 114
8041 2
8042 68
8043 47
8044 108
8045 114
8046 30
8047 114
8048 69
8049 56
8050 74
8051 38
8052 79
8053 5
8054 5
8055 44
8056 11
8057 112
8058 89
8059 16
8060 118
8061 58
8062 17
8063 55
8064 118
8065 23
8066 23
8067 16
8068 16
8069 30
8070 110
8071 134
8072 79
8073 72
8074 26
8075 81
8076 69
8077 2
8078 17
8079 114
8080 88
8081 72
8082 28
8083 68
8084 5
8085 31
8086 46
8087 53
8088 72
8089 72
8090 2
8091 59
8092 53
8093 5
8094 53
8095 26
8096 41
8097 19
8098 114
8099 41
8100 114
8101 47
8102 38
8103 38
8104 123
8105 48
8106 16
8107 5
8108 101
8109 5
8110 30
8111 44
8112 49
8113 47
8114 27
8115 26
8116 87
8117 38
8118 38
8119 31
8120 68
8121 128
8122 44
8123 6
8124 30
8125 44
8126 118
8127 106
8128 38
8129 38
8130 57
8131 29
8132 56
8133 41
8134 79
8135 47
8136 59
8137 59
8138 79
8139 38
8140 55
8141 48
8142 68
8143 47
8144 41
8145 85
8146 31
8147 52
8148 114
8149 52
8150 2
8151 59
8152 116
8153 47
8154 123
8155 68
8156 18
8157 18
8158 26
8159 23
8160 53
8161 57
8162 93
8163 31
8164 114
8165 19
8166 31
8167 38
8168 88
8169 18
8170 123
8171 75
8172 72
8173 44
8174 36
8175 75
8176 44
8177 59
8178 69
8179 2
8180 30
8181 68
8182 79
8183 118
8184 51
8185 57
8186 38
8187 29
8188 53
8189 118
8190 68
8191 16
8192 61
8193 6
8194 94
8195 117
8196 109
8197 53
8198 57
8199 82
8200 124
8201 68
8202 30
8203 69
8204 10
8205 8
8206 31
8207 105
8208 3
8209 142
8210 31
8211 44
8212 60
8213 32
8214 126
8215 72
8216 130
8217 55
8218 101
8219 37
8220 79
8221 55
8222 5
8223 32
8224 23
8225 29
8226 83
8227 31
8228 44
8229 79
8230 41
8231 35
8232 2
8233 0
8234 89
8235 60
8236 124
8237 63
8238 0
8239 60
8240 26
8241 25
8242 35
8243 121
8244 59
8245 66
8246 31
8247 88
8248 41
8249 106
8250 61
8251 68
8252 0
8253 75
8254 105
8255 44
8256 60
8257 31
8258 55
8259 28
8260 14
8261 53
8262 125
8263 69
8264 61
8265 59
8266 135
8267 40
8268 53
8269 134
8270 68
8271 70
8272 127
8273 118
8274 30
8275 130
8276 12
8277 10
8278 31
8279 0
8280 19
8281 57
8282 103
8283 101
8284 138
8285 72
8286 53
8287 36
8288 72
8289 84
8290 40
8291 33
8292 0
8293 26
8294 34
8295 69
8296 79
8297 49
8298 84
8299 53
8300 118
8301 65
8302 132
8303 32
8304 86
8305 77
8306 60
8307 74
8308 75
8309 101
8310 24
8311 76
8312 21
8313 69
8314 23
8315 55
8316 68
8317 84
8318 128
8319 131
8320 32
8321 95
8322 47
8323 27
8324 38
8325 7
8326 41
8327 44
8328 26
8329 90
8330 114
8331 36
8332 112
8333 86
8334 15
8335 18
8336 17
8337 60
8338 8
8339 73
8340 95
8341 7
8342 17
8343 68
8344 97
8345 72
8346 44
8347 90
8348 32
8349 135
8350 44
8351 57
8352 2
8353 26
8354 59
8355 10
8356 127
8357 2
8358 2
8359 83
8360 86
8361 7
8362 90
8363 11
8364 91
8365 84
8366 57
8367 30
8368 98
8369 76
8370 14
8371 51
8372 36
8373 44
8374 90
8375 55
8376 8
8377 15
8378 34
8379 9
8380 93
8381 84
8382 140
8383 52
8384 31
8385 35
8386 117
8387 90
8388 60
8389 29
8390 80
8391 90
8392 80
8393 99
8394 88
8395 19
8396 17
8397 98
8398 68
8399 56
8400 125
8401 72
8402 87
8403 135
8404 95
8405 85
8406 88
8407 31
8408 16
8409 53
8410 94
8411 10
8412 97
8413 84
8414 34
8415 34
8416 45
8417 44
8418 121
8419 38
8420 16
8421 19
8422 68
8423 10
8424 42
8425 97
8426 68
8427 2
8428 85
8429 99
8430 65
8431 93
8432 16
8433 141
8434 29
8435 105
8436 60
8437 99
8438 10
8439 44
8440 10
8441 56
8442 20
8443 142
8444 81
8445 104
8446 131
8447 56
8448 20
8449 44
8450 29
8451 15
8452 110
8453 79
8454 86
8455 60
8456 34
8457 29
8458 97
8459 22
8460 17
8461 47
8462 92
8463 47
8464 72
8465 49
8466 8
8467 34
8468 102
8469 85
8470 81
8471 7
8472 83
8473 84
8474 47
8475 85
8476 54
8477 47
8478 34
8479 14
8480 6
8481 16
8482 81
8483 16
8484 15
8485 52
8486 116
8487 26
8488 44
8489 47
8490 42
8491 18
8492 51
8493 56
8494 140
8495 47
8496 26
8497 95
8498 18
8499 61
8500 44
8501 79
8502 47
8503 75
8504 47
8505 83
8506 6
8507 135
8508 46
8509 61
8510 79
8511 47
8512 60
8513 99
8514 52
8515 43
8516 79
8517 16
8518 42
8519 79
8520 70
8521 133
8522 29
8523 132
8524 81
8525 86
8526 101
8527 40
8528 89
8529 121
8530 21
8531 8
8532 26
8533 84
8534 53
8535 68
8536 52
8537 89
8538 47
8539 59
8540 7
8541 58
8542 110
8543 136
8544 52
8545 17
8546 23
8547 110
8548 57
8549 57
8550 40
8551 118
8552 123
8553 59
8554 44
8555 57
8556 57
8557 97
8558 47
8559 47
8560 79
8561 18
8562 56
8563 39
8564 44
8565 30
8566 79
8567 69
8568 81
8569 23
8570 18
8571 57
8572 118
8573 27
8574 44
8575 84
8576 126
8577 105
8578 44
8579 44
8580 124
8581 81
8582 89
8583 15
8584 52
8585 134
8586 47
8587 52
8588 61
8589 87
8590 91
8591 44
8592 40
8593 47
8594 52
8595 75
8596 117
8597 89
8598 89
8599 47
8600 114
8601 69
8602 52
8603 25
8604 41
8605 34
8606 52
8607 117
8608 44
8609 83
8610 89
8611 79
8612 79
8613 79
8614 79
8615 85
8616 59
8617 62
8618 45
8619 9
8620 44
8621 44
8622 18
8623 93
8624 27
8625 55
8626 93
8627 22
8628 111
8629 52
8630 9
8631 58
8632 69
8633 32
8634 87
8635 13
8636 69
8637 36
8638 56
8639 114
8640 81
8641 62
8642 118
8643 19
8644 0
8645 72
8646 80
8647 81
8648 19
8649 45
8650 29
8651 95
8652 118
8653 101
8654 6
8655 82
8656 78
8657 55
8658 32
8659 18
8660 92
8661 23
8662 32
8663 87
8664 18
8665 30
8666 85
8667 33
8668 14
8669 72
8670 18
8671 47
8672 61
8673 18
8674 11
8675 69
8676 87
8677 69
8678 32
8679 52
8680 105
8681 141
8682 98
8683 44
8684 55
8685 57
8686 57
8687 23
8688 97
8689 88
8690 18
8691 83
8692 5
8693 5
8694 55
8695 111
8696 76
8697 118
8698 42
8699 77
8700 42
8701 101
8702 23
8703 47
8704 14
8705 124
8706 56
8707 55
8708 44
8709 6
8710 11
8711 16
8712 52
8713 2
8714 99
8715 54
8716 36
8717 5
8718 16
8719 114
8720 54
8721 65
8722 110
8723 127
8724 96
8725 14
8726 114
8727 2
8728 118
8729 55
8730 30
8731 52
8732 2
8733 13
8734 43
8735 32
8736 12
8737 53
8738 41
8739 66
8740 23
8741 36
8742 88
8743 87
8744 40
8745 8
8746 47
8747 23
8748 79
8749 30
8750 32
8751 21
8752 69
8753 0
8754 31
8755 68
8756 63
8757 129
8758 94
8759 68
8760 89
8761 54
8762 89
8763 53
8764 30
8765 0
8766 48
8767 44
8768 8
8769 51
8770 23
8771 40
8772 94
8773 81
8774 72
8775 57
8776 5
8777 74
8778 46
8779 81
8780 68
8781 75
8782 129
8783 52
8784 52
8785 57
8786 48
8787 22
8788 23
8789 56
8790 2
8791 72
8792 74
8793 55
8794 108
8795 5
8796 134
8797 44
8798 46
8799 72
8800 48
8801 90
8802 81
8803 44
8804 41
8805 62
8806 79
8807 118
8808 98
8809 16
8810 104
8811 52
8812 97
8813 18
8814 76
8815 68
8816 76
8817 91
8818 44
8819 62
8820 142
8821 69
8822 70
8823 18
8824 22
8825 137
8826 47
8827 0
8828 102
8829 100
8830 88
8831 69
8832 23
8833 15
8834 52
8835 2
8836 26
8837 2
8838 84
8839 0
8840 118
8841 2
8842 31
8843 7
8844 52
8845 52
8846 72
8847 88
8848 52
8849 47
8850 118
8851 17
8852 114
8853 52
8854 44
8855 53
8856 44
8857 5
8858 48
8859 34
8860 60
8861 34
8862 73
8863 70
8864 2
8865 81
8866 97
8867 23
8868 44
8869 0
8870 47
8871 114
8872 52
8873 84
8874 99
8875 55
8876 23
8877 137
8878 59
8879 87
8880 55
8881 47
8882 135
8883 85
8884 14
8885 97
8886 85
8887 47
8888 81
8889 2
8890 23
8891 8
8892 18
8893 99
8894 69
8895 87
8896 16
8897 114
8898 101
8899 44
8900 81
8901 37
8902 44
8903 5
8904 143
8905 38
8906 81
8907 57
8908 97
8909 19
8910 52
8911 44
8912 23
8913 2
8914 83
8915 44
8916 90
8917 90
8918 118
8919 26
8920 45
8921 5
8922 75
8923 40
8924 49
8925 44
8926 23
8927 23
8928 73
8929 94
8930 84
8931 60
8932 114
8933 38
8934 57
8935 18
8936 74
8937 137
8938 84
8939 18
8940 38
8941 44
8942 118
8943 84
8944 85
8945 69
8946 19
8947 81
8948 129
8949 142
8950 44
8951 38
8952 42
8953 19
8954 57
8955 57
8956 16
8957 69
8958 79
8959 52
8960 141
8961 114
8962 68
8963 118
8964 5
8965 46
8966 56
8967 90
8968 129
8969 44
8970 81
8971 57
8972 18
8973 58
8974 47
8975 52
8976 38
8977 118
8978 81
8979 95
8980 17
8981 81
8982 47
8983 47
8984 69
8985 55
8986 44
8987 38
8988 5
8989 53
8990 44
8991 47
8992 2
8993 79
8994 36
8995 38
8996 34
8997 52
8998 23
8999 26
9000 51
9001 69
9002 53
9003 48
9004 17
9005 5
9006 52
9007 61
9008 53
9009 95
9010 47
9011 115
9012 47
9013 122
9014 54
9015 44
9016 35
9017 57
9018 2
9019 53
9020 5
9021 57
9022 31
9023 38
9024 31
9025 93
9026 108
9027 5
9028 61
9029 90
9030 118
9031 69
9032 47
9033 47
9034 40
9035 59
9036 5
9037 5
9038 89
9039 47
9040 18
9041 114
9042 2
9043 40
9044 66
9045 44
9046 52
9047 55
9048 47
9049 60
9050 30
9051 47
9052 44
9053 55
9054 48
9055 69
9056 15
9057 110
9058 44
9059 81
9060 53
9061 2
9062 81
9063 30
9064 57
9065 112
9066 17
9067 59
9068 30
9069 55
9070 79
9071 38
9072 31
9073 31
9074 69
9075 68
9076 55
9077 95
9078 52
9079 37
9080 47
9081 44
9082 55
9083 101
9084 17
9085 57
9086 69
9087 57
9088 84
9089 62
9090 26
9091 95
9092 42
9093 118
9094 26
9095 23
9096 55
9097 44
9098 26
9099 30
9100 59
9101 26
9102 69
9103 55
9104 30
9105 23
9106 47
9107 51
9108 83
9109 23
9110 57
9111 18
9112 72
9113 53
9114 103
9115 31
9116 55
9117 69
9118 79
9119 88
9120 52
9121 79
9122 91
9123 97
9124 47
9125 118
9126 2
9127 78
9128 32
9129 47
9130 79
9131 5
9132 69
9133 118
9134 81
9135 84
9136 79
9137 26
9138 118
9139 26
9140 140
9141 41
9142 18
9143 59
9144 106
9145 114
9146 53
9147 5
9148 17
9149 89
9150 68
9151 118
9152 2
9153 72
9154 23
9155 79
9156 55
9157 96
9158 51
9159 81
9160 42
9161 52
9162 52
9163 23
9164 44
9165 114
9166 57
9167 38
9168 29
9169 118
9170 30
9171 57
9172 23
9173 38
9174 47
9175 57
9176 87
9177 87
9178 14
9179 114
9180 79
9181 16
9182 108
9183 0
9184 38
9185 8
9186 23
9187 18
9188 52
9189 108
9190 46
9191 57
9192 47
9193 8
9194 69
9195 23
9196 5
9197 42
9198 75
9199 68
9200 20
9201 14
9202 55
9203 51
9204 31
9205 6
9206 69
9207 98
9208 18
9209 23
9210 44
9211 2
9212 110
9213 38
9214 30
9215 118
9216 53
9217 8
9218 35
9219 0
9220 16
9221 114
9222 52
9223 30
9224 47
9225 2
9226 2
9227 80
9228 69
9229 37
9230 59
9231 0
9232 14
9233 61
9234 44
9235 54
9236 3
9237 89
9238 27
9239 47
9240 2
9241 38
9242 55
9243 141
9244 87
9245 57
9246 35
9247 68
9248 53
9249 0
9250 118
9251 68
9252 83
9253 26
9254 114
9255 30
9256 8
9257 52
9258 118
9259 30
9260 52
9261 12
9262 97
9263 68
9264 36
9265 114
9266 114
9267 2
9268 97
9269 52
9270 2
9271 105
9272 107
9273 129
9274 52
9275 118
9276 0
9277 57
9278 44
9279 118
9280 0
9281 23
9282 79
9283 30
9284 23
9285 81
9286 8
9287 51
9288 110
9289 81
9290 37
9291 2
9292 95
9293 68
9294 105
9295 5
9296 2
9297 59
9298 51
9299 32
9300 52
9301 44
9302 23
9303 5
9304 8
9305 14
9306 52
9307 106
9308 57
9309 127
9310 118
9311 52
9312 5
9313 40
9314 2
9315 46
9316 114
9317 67
9318 70
9319 5
9320 84
9321 44
9322 123
9323 109
9324 132
9325 44
9326 86
9327 2
9328 18
9329 38
9330 0
9331 125
9332 27
9333 110
9334 91
9335 17
9336 84
9337 72
9338 18
9339 26
9340 135
9341 65
9342 89
9343 48
9344 55
9345 1
9346 38
9347 26
9348 65
9349 67
9350 7
9351 128
9352 2
9353 38
9354 84
9355 23
9356 75
9357 44
9358 23
9359 112
9360 17
9361 2
9362 81
9363 73
9364 38
9365 37
9366 86
9367 130
9368 23
9369 18
9370 91
9371 2
9372 97
9373 118
9374 17
9375 87
9376 34
9377 79
9378 34
9379 18
9380 44
9381 118
9382 97
9383 44
9384 18
9385 2
9386 2
9387 72
9388 23
9389 40
9390 52
9391 11
9392 47
9393 34
9394 5
9395 71
9396 49
9397 44
9398 35
9399 57
9400 126
9401 107
9402 143
9403 128
9404 49
9405 118
9406 44
9407 102
9408 23
9409 52
9410 34
9411 75
9412 84
9413 23
9414 55
9415 19
9416 13
9417 83
9418 44
9419 99
9420 60
9421 52
9422 68
9423 138
9424 19
9425 108
9426 95
9427 32
9428 5
9429 29
9430 2
9431 23
9432 5
9433 26
9434 90
9435 16
9436 56
9437 81
9438 67
9439 95
9440 33
9441 72
9442 81
9443 13
9444 55
9445 90
9446 118
9447 84
9448 141
9449 38
9450 55
9451 8
9452 2
9453 5
9454 93
9455 68
9456 95
9457 7
9458 81
9459 5
9460 81
9461 65
9462 105
9463 5
9464 110
9465 26
9466 18
9467 118
9468 109
9469 86
9470 129
9471 2
9472 118
9473 106
9474 110
9475 44
9476 19
9477 51
9478 44
9479 81
9480 23
9481 31
9482 52
9483 47
9484 0
9485 81
9486 29
9487 16
9488 44
9489 18
9490 20
9491 5
9492 61
9493 16
9494 38
9495 97
9496 2
9497 5
9498 52
9499 105
9500 18
9501 33
9502 61
9503 47
9504 93
9505 29
9506 96
9507 79
9508 38
9509 74
9510 60
9511 65
9512 52
9513 5
9514 52
9515 118
9516 69
9517 126
9518 81
9519 55
9520 59
9521 45
9522 79
9523 96
9524 77
9525 2
9526 105
9527 23
9528 29
9529 95
9530 26
9531 53
9532 21
9533 51
9534 40
9535 23
9536 40
9537 118
9538 56
9539 52
9540 95
9541 131
9542 90
9543 94
9544 90
9545 47
9546 34
9547 33
9548 18
9549 2
9550 2
9551 5
9552 52
9553 84
9554 49
9555 17
9556 81
9557 23
9558 37
9559 12
9560 52
9561 51
9562 30
9563 42
9564 58
9565 5
9566 23
9567 62
9568 73
9569 98
9570 59
9571 47
9572 17
9573 59
9574 103
9575 101
9576 81
9577 43
9578 16
9579 79
9580 16
9581 118
9582 101
9583 140
9584 62
9585 49
9586 2
9587 52
9588 118
9589 79
9590 28
9591 44
9592 84
9593 23
9594 47
9595 52
9596 81
9597 86
9598 40
9599 100
9600 23
9601 114
9602 5
9603 79
9604 76
9605 73
9606 108
9607 2
9608 84
9609 2
9610 2
9611 114
9612 5
9613 69
9614 57
9615 38
9616 1
9617 52
9618 74
9619 44
9620 25
9621 89
9622 101
9623 131
9624 101
9625 118
9626 57
9627 86
9628 42
9629 83
9630 38
9631 23
9632 85
9633 18
9634 27
9635 91
9636 19
9637 79
9638 23
9639 92
9640 44
9641 42
9642 69
9643 81
9644 44
9645 0
9646 44
9647 99
9648 23
9649 38
9650 101
9651 2
9652 83
9653 44
9654 89
9655 61
9656 130
9657 52
9658 55
9659 57
9660 5
9661 55
9662 60
9663 118
9664 81
9665 129
9666 60
9667 79
9668 56
9669 72
9670 52
9671 23
9672 23
9673 18
9674 38
9675 81
9676 17
9677 9
9678 27
9679 5
9680 91
9681 2
9682 59
9683 81
9684 47
9685 21
9686 38
9687 79
9688 143
9689 30
9690 42
9691 79
9692 77
9693 69
9694 72
9695 114
9696 73
9697 63
9698 38
9699 69
9700 55
9701 72
9702 64
9703 29
9704 52
9705 31
9706 55
9707 75
9708 41
9709 52
9710 41
9711 44
9712 61
9713 31
9714 38
9715 23
9716 2
9717 55
9718 47
9719 99
9720 57
9721 58
9722 118
9723 93
9724 51
9725 72
9726 5
9727 118
9728 114
9729 55
9730 50
9731 81
9732 44
9733 44
9734 72
9735 2
9736 81
9737 56
9738 52
9739 139
9740 14
9741 44
9742 29
9743 114
9744 73
9745 37
9746 55
9747 29
9748 57
9749 0
9750 37
9751 52
9752 105
9753 31
9754 68
9755 2
9756 8
9757 52
9758 78
9759 72
9760 46
9761 31
9762 68
9763 118
9764 131
9765 8
9766 38
9767 29
9768 99
9769 2
9770 7
9771 30
9772 46
9773 30
9774 52
9775 38
9776 75
9777 53
9778 52
9779 114
9780 52
9781 118
9782 13
9783 38
9784 16
9785 29
9786 14
9787 63
9788 82
9789 16
9790 23
9791 5
9792 118
9793 51
9794 52
9795 0
9796 81
9797 51
9798 118
9799 18
9800 68
9801 113
9802 89
9803 81
9804 118
9805 125
9806 118
9807 103
9808 53
9809 28
9810 118
9811 68
9812 55
9813 127
9814 23
9815 23
9816 44
9817 55
9818 68
9819 53
9820 2
9821 52
9822 2
9823 30
9824 2
9825 34
9826 48
9827 5
9828 52
9829 23
9830 11
9831 53
9832 18
9833 40
9834 69
9835 84
9836 81
9837 8
9838 27
9839 53
9840 4
9841 23
9842 7
9843 23
9844 118
9845 79
9846 48
9847 122
9848 38
9849 71
9850 65
9851 143
9852 5
9853 127
9854 18
9855 115
9856 40
9857 17
9858 118
9859 91
9860 73
9861 118
9862 9
9863 44
9864 93
9865 142
9866 58
9867 84
9868 23
9869 69
9870 2
9871 95
9872 44
9873 23
9874 90
9875 38
9876 79
9877 95
9878 95
9879 13
9880 23
9881 113
9882 52
9883 7
9884 69
9885 18
9886 18
9887 31
9888 8
9889 52
9890 118
9891 55
9892 18
9893 52
9894 18
9895 114
9896 84
9897 44
9898 18
9899 35
9900 52
9901 89
9902 2
9903 81
9904 80
9905 68
9906 23
9907 121
9908 36
9909 52
9910 44
9911 69
9912 0
9913 99
9914 52
9915 124
9916 52
9917 5
9918 38
9919 118
9920 38
9921 47
9922 114
9923 47
9924 97
9925 44
9926 81
9927 9
9928 74
9929 84
9930 23
9931 70
9932 114
9933 23
9934 69
9935 93
9936 15
9937 5
9938 7
9939 57
9940 95
9941 7
9942 15
9943 52
9944 38
9945 38
9946 19
9947 32
9948 23
9949 31
9950 44
9951 54
9952 38
9953 31
9954 23
9955 18
9956 118
9957 57
9958 44
9959 81
9960 55
9961 44
9962 114
9963 68
9964 4
9965 81
9966 45
9967 57
9968 114
9969 56
9970 69
9971 42
9972 123
9973 76
9974 133
9975 51
9976 131
9977 69
9978 52
9979 118
9980 55
9981 57
9982 44
9983 2
9984 52
9985 34
9986 57
9987 21
9988 118
9989 118
9990 47
9991 73
9992 57
9993 83
9994 118
9995 31
9996 96
9997 32
9998 52
9999 97
