0 0
1 1
2 2
3 3
4 4
5 5
6 6
7 7
8 8
9 9
10 10
11 11
12 12
13 13
14 14
15 15
16 16
17 17
18 18
19 10
20 19
21 20
22 21
23 22
24 23
25 24
26 25
27 26
28 27
29 28
30 29
31 11
32 30
33 31
34 31
35 32
36 33
37 18
38 34
39 3
40 35
41 36
42 37
43 38
44 39
45 40
46 41
47 42
48 43
49 44
50 45
51 46
52 47
53 46
54 48
55 49
56 50
57 51
58 52
59 53
60 46
61 54
62 55
63 35
64 24
65 56
66 57
67 58
68 59
69 26
70 24
71 36
72 60
73 32
74 46
75 41
76 61
77 62
78 63
79 14
80 64
81 65
82 54
83 66
84 59
85 4
86 67
87 68
88 27
89 69
90 70
91 71
92 72
93 73
94 74
95 61
96 73
97 54
98 75
99 76
100 77
101 77
102 28
103 78
104 38
105 12
106 54
107 79
108 34
109 59
110 33
111 80
112 57
113 81
114 70
115 26
116 82
117 83
118 84
119 28
120 85
121 86
122 87
123 88
124 25
125 89
126 39
127 19
128 90
129 91
130 92
131 11
132 93
133 59
134 71
135 94
136 95
137 7
138 96
139 27
140 97
141 18
142 98
143 46
144 99
145 100
146 76
147 35
148 101
149 70
150 102
151 29
152 103
153 104
154 26
155 51
156 91
157 105
158 106
159 1
160 2
161 27
162 107
163 101
164 108
165 109
166 110
167 4
168 111
169 112
170 27
171 14
172 8
173 113
174 114
175 115
176 1
177 116
178 113
179 117
180 118
181 111
182 83
183 119
184 120
185 121
186 122
187 123
188 96
189 124
190 81
191 99
192 98
193 125
194 101
195 124
196 76
197 119
198 77
199 106
200 126
201 18
202 127
203 128
204 111
205 129
206 14
207 127
208 72
209 124
210 75
211 80
212 120
213 128
214 39
215 70
216 130
217 103
218 53
219 96
220 131
221 132
222 133
223 86
224 57
225 134
226 41
227 75
228 90
229 37
230 24
231 33
232 45
233 50
234 135
235 136
236 105
237 137
238 97
239 63
240 138
241 139
242 140
243 7
244 27
245 141
246 142
247 71
248 122
249 96
250 143
251 144
252 145
253 131
254 146
255 147
256 148
257 149
258 39
259 27
260 150
261 75
262 80
263 46
264 41
265 35
266 128
267 73
268 41
269 75
270 151
271 104
272 98
273 152
274 27
275 41
276 9
277 79
278 122
279 39
280 50
281 57
282 136
283 128
284 96
285 51
286 5
287 117
288 99
289 153
290 80
291 150
292 99
293 154
294 101
295 147
296 56
297 75
298 67
299 104
300 95
301 18
302 143
303 122
304 120
305 101
306 55
307 105
308 14
309 6
310 155
311 129
312 96
313 93
314 156
315 157
316 75
317 158
318 103
319 51
320 27
321 159
322 27
323 32
324 66
325 74
326 102
327 75
328 34
329 27
330 139
331 100
332 160
333 161
334 94
335 49
336 60
337 129
338 31
339 58
340 63
341 98
342 146
343 133
344 117
345 60
346 150
347 150
348 55
349 151
350 81
351 26
352 158
353 79
354 118
355 72
356 162
357 69
358 66
359 143
360 123
361 80
362 28
363 114
364 159
365 139
366 158
367 163
368 164
369 30
370 0
371 53
372 55
373 165
374 2
375 108
376 26
377 27
378 166
379 91
380 167
381 45
382 168
383 66
384 41
385 50
386 111
387 84
388 134
389 111
390 14
391 48
392 150
393 26
394 169
395 90
396 94
397 72
398 70
399 56
400 152
401 95
402 57
403 169
404 170
405 171
406 36
407 90
408 131
409 59
410 172
411 173
412 44
413 39
414 174
415 161
416 157
417 48
418 175
419 41
420 45
421 115
422 108
423 81
424 130
425 118
426 146
427 32
428 130
429 55
430 148
431 149
432 80
433 111
434 73
435 176
436 32
437 151
438 75
439 128
440 119
441 45
442 177
443 84
444 75
445 170
446 172
447 77
448 127
449 16
450 89
451 178
452 44
453 51
454 39
455 91
456 95
457 42
458 124
459 45
460 167
461 73
462 161
463 55
464 21
465 179
466 65
467 108
468 153
469 175
470 118
471 44
472 49
473 63
474 180
475 37
476 102
477 106
478 122
479 124
480 26
481 59
482 87
483 73
484 55
485 61
486 133
487 132
488 181
489 120
490 71
491 155
492 95
493 153
494 51
495 98
496 111
497 55
498 73
499 98
500 48
501 46
502 182
503 146
504 160
505 98
506 98
507 183
508 14
509 75
510 95
511 147
512 7
513 37
514 183
515 150
516 131
517 160
518 41
519 39
520 28
521 102
522 14
523 184
524 13
525 185
526 8
527 67
528 27
529 27
530 186
531 185
532 88
533 61
534 61
535 153
536 56
537 135
538 124
539 162
540 168
541 148
542 175
543 84
544 110
545 99
546 111
547 100
548 89
549 109
550 25
551 128
552 5
553 106
554 123
555 101
556 187
557 144
558 44
559 68
560 77
561 75
562 45
563 155
564 109
565 43
566 188
567 189
568 5
569 73
570 59
571 111
572 190
573 144
574 191
575 154
576 47
577 7
578 87
579 192
580 129
581 37
582 76
583 145
584 171
585 193
586 102
587 18
588 24
589 117
590 93
591 67
592 41
593 75
594 62
595 135
596 141
597 112
598 36
599 194
600 153
601 29
602 95
603 195
604 170
605 196
606 59
607 66
608 44
609 185
610 124
611 150
612 197
613 68
614 119
615 48
616 118
617 28
618 198
619 170
620 59
621 196
622 145
623 70
624 11
625 96
626 109
627 80
628 122
629 75
630 16
631 37
632 76
633 62
634 59
635 2
636 0
637 116
638 36
639 73
640 91
641 77
642 199
643 37
644 156
645 18
646 144
647 172
648 200
649 104
650 106
651 173
652 125
653 149
654 51
655 201
656 55
657 39
658 141
659 93
660 135
661 21
662 51
663 1
664 27
665 99
666 202
667 117
668 48
669 51
670 160
671 72
672 8
673 203
674 20
675 98
676 38
677 79
678 201
679 201
680 14
681 35
682 26
683 68
684 71
685 109
686 18
687 66
688 149
689 129
690 85
691 28
692 26
693 75
694 14
695 179
696 14
697 204
698 64
699 66
700 205
701 76
702 123
703 121
704 74
705 174
706 148
707 178
708 103
709 119
710 27
711 18
712 171
713 18
714 95
715 81
716 206
717 70
718 111
719 132
720 132
721 41
722 50
723 119
724 84
725 26
726 148
727 175
728 161
729 207
730 51
731 72
732 147
733 111
734 14
735 11
736 119
737 14
738 48
739 208
740 84
741 44
742 209
743 18
744 98
745 2
746 21
747 90
748 210
749 99
750 211
751 172
752 1
753 75
754 173
755 82
756 149
757 62
758 178
759 178
760 26
761 153
762 62
763 140
764 94
765 146
766 147
767 131
768 71
769 186
770 212
771 135
772 149
773 91
774 79
775 161
776 107
777 145
778 26
779 198
780 37
781 139
782 161
783 93
784 170
785 125
786 151
787 44
788 132
789 190
790 120
791 88
792 178
793 102
794 86
795 69
796 56
797 134
798 151
799 173
800 188
801 75
802 21
803 123
804 158
805 171
806 111
807 39
808 149
809 35
810 26
811 103
812 207
813 132
814 102
815 59
816 45
817 25
818 135
819 169
820 104
821 129
822 18
823 59
824 34
825 98
826 158
827 77
828 59
829 54
830 59
831 175
832 153
833 75
834 161
835 122
836 145
837 141
838 55
839 73
840 91
841 213
842 80
843 144
844 158
845 113
846 118
847 128
848 59
849 4
850 214
851 71
852 30
853 118
854 112
855 180
856 151
857 26
858 132
859 95
860 84
861 108
862 91
863 162
864 108
865 122
866 165
867 166
868 117
869 14
870 39
871 183
872 59
873 124
874 199
875 22
876 34
877 104
878 26
879 84
880 141
881 11
882 67
883 71
884 83
885 132
886 128
887 145
888 99
889 30
890 209
891 98
892 101
893 104
894 91
895 70
896 170
897 63
898 99
899 215
900 204
901 170
902 70
903 39
904 84
905 148
906 145
907 21
908 26
909 111
910 142
911 109
912 145
913 117
914 128
915 148
916 95
917 156
918 61
919 104
920 71
921 26
922 150
923 35
924 73
925 128
926 57
927 64
928 122
929 91
930 103
931 164
932 59
933 67
934 194
935 145
936 71
937 170
938 33
939 193
940 150
941 68
942 111
943 48
944 216
945 180
946 70
947 45
948 79
949 177
950 31
951 168
952 144
953 144
954 51
955 75
956 21
957 147
958 35
959 217
960 76
961 124
962 106
963 45
964 124
965 148
966 84
967 45
968 129
969 93
970 44
971 213
972 26
973 26
974 75
975 80
976 76
977 119
978 51
979 78
980 129
981 25
982 83
983 93
984 119
985 45
986 106
987 146
988 25
989 23
990 45
991 45
992 25
993 117
994 99
995 91
996 109
997 65
998 124
999 192
1000 18
1001 91
1002 83
1003 68
1004 176
1005 86
1006 21
1007 28
1008 155
1009 44
1010 73
1011 37
1012 122
1013 72
1014 124
1015 37
1016 59
1017 73
1018 93
1019 26
1020 14
1021 79
1022 18
1023 88
1024 88
1025 62
1026 148
1027 25
1028 35
1029 130
1030 50
1031 173
1032 102
1033 104
1034 160
1035 100
1036 91
1037 46
1038 32
1039 150
1040 208
1041 151
1042 23
1043 4
1044 2
1045 67
1046 148
1047 161
1048 27
1049 138
1050 76
1051 150
1052 88
1053 18
1054 157
1055 161
1056 128
1057 49
1058 159
1059 158
1060 16
1061 59
1062 79
1063 169
1064 150
1065 64
1066 51
1067 59
1068 80
1069 95
1070 86
1071 167
1072 218
1073 171
1074 36
1075 10
1076 77
1077 0
1078 71
1079 18
1080 146
1081 15
1082 118
1083 102
1084 109
1085 46
1086 66
1087 192
1088 15
1089 54
1090 145
1091 39
1092 156
1093 57
1094 39
1095 55
1096 72
1097 37
1098 173
1099 111
1100 122
1101 50
1102 91
1103 118
1104 145
1105 213
1106 100
1107 44
1108 18
1109 129
1110 86
1111 162
1112 206
1113 162
1114 146
1115 62
1116 80
1117 9
1118 25
1119 169
1120 121
1121 110
1122 99
1123 173
1124 48
1125 88
1126 39
1127 0
1128 33
1129 129
1130 171
1131 211
1132 178
1133 129
1134 137
1135 28
1136 119
1137 187
1138 137
1139 105
1140 86
1141 105
1142 201
1143 96
1144 98
1145 129
1146 173
1147 26
1148 144
1149 73
1150 73
1151 146
1152 30
1153 150
1154 139
1155 9
1156 153
1157 83
1158 123
1159 71
1160 119
1161 104
1162 56
1163 10
1164 134
1165 16
1166 131
1167 18
1168 75
1169 146
1170 174
1171 21
1172 15
1173 21
1174 176
1175 18
1176 57
1177 41
1178 26
1179 106
1180 192
1181 151
1182 32
1183 146
1184 23
1185 121
1186 177
1187 171
1188 176
1189 128
1190 176
1191 109
1192 178
1193 160
1194 91
1195 123
1196 36
1197 132
1198 145
1199 157
1200 44
1201 111
1202 173
1203 21
1204 37
1205 113
1206 104
1207 171
1208 21
1209 148
1210 219
1211 99
1212 96
1213 55
1214 205
1215 51
1216 98
1217 166
1218 61
1219 208
1220 122
1221 148
1222 169
1223 208
1224 21
1225 147
1226 75
1227 98
1228 39
1229 157
1230 192
1231 99
1232 93
1233 133
1234 129
1235 141
1236 95
1237 27
1238 176
1239 141
1240 122
1241 87
1242 122
1243 177
1244 100
1245 100
1246 166
1247 130
1248 46
1249 188
1250 216
1251 15
1252 128
1253 56
1254 162
1255 56
1256 175
1257 87
1258 87
1259 79
1260 164
1261 47
1262 84
1263 172
1264 4
1265 160
1266 56
1267 21
1268 23
1269 86
1270 22
1271 149
1272 132
1273 117
1274 122
1275 97
1276 27
1277 173
1278 159
1279 173
1280 2
1281 88
1282 173
1283 172
1284 134
1285 134
1286 220
1287 48
1288 132
1289 172
1290 132
1291 39
1292 147
1293 117
1294 160
1295 104
1296 132
1297 18
1298 150
1299 172
1300 139
1301 146
1302 95
1303 99
1304 160
1305 170
1306 41
1307 25
1308 71
1309 77
1310 57
1311 161
1312 84
1313 206
1314 123
1315 150
1316 125
1317 170
1318 149
1319 35
1320 151
1321 175
1322 95
1323 91
1324 88
1325 175
1326 58
1327 147
1328 73
1329 109
1330 176
1331 95
1332 61
1333 216
1334 76
1335 8
1336 118
1337 130
1338 129
1339 54
1340 81
1341 59
1342 99
1343 137
1344 47
1345 175
1346 127
1347 144
1348 135
1349 166
1350 55
1351 143
1352 41
1353 182
1354 180
1355 99
1356 180
1357 45
1358 56
1359 168
1360 147
1361 91
1362 84
1363 168
1364 113
1365 18
1366 84
1367 172
1368 172
1369 104
1370 84
1371 14
1372 45
1373 149
1374 34
1375 55
1376 14
1377 196
1378 59
1379 75
1380 4
1381 98
1382 214
1383 106
1384 21
1385 55
1386 66
1387 34
1388 105
1389 21
1390 76
1391 27
1392 38
1393 84
1394 151
1395 71
1396 134
1397 61
1398 75
1399 138
1400 150
1401 112
1402 111
1403 27
1404 90
1405 14
1406 91
1407 206
1408 13
1409 95
1410 172
1411 47
1412 58
1413 99
1414 95
1415 172
1416 148
1417 33
1418 5
1419 90
1420 108
1421 151
1422 145
1423 112
1424 122
1425 26
1426 92
1427 161
1428 109
1429 59
1430 151
1431 61
1432 91
1433 111
1434 90
1435 221
1436 95
1437 202
1438 139
1439 137
1440 77
1441 14
1442 220
1443 23
1444 128
1445 176
1446 25
1447 192
1448 51
1449 55
1450 51
1451 202
1452 87
1453 117
1454 100
1455 39
1456 151
1457 102
1458 172
1459 51
1460 23
1461 128
1462 51
1463 222
1464 32
1465 80
1466 147
1467 98
1468 11
1469 59
1470 4
1471 49
1472 147
1473 111
1474 90
1475 178
1476 32
1477 130
1478 73
1479 75
1480 169
1481 14
1482 153
1483 153
1484 150
1485 133
1486 59
1487 1
1488 81
1489 73
1490 120
1491 130
1492 161
1493 71
1494 150
1495 68
1496 23
1497 121
1498 146
1499 188
1500 119
1501 109
1502 150
1503 147
1504 79
1505 51
1506 143
1507 37
1508 223
1509 193
1510 161
1511 95
1512 0
1513 21
1514 46
1515 153
1516 51
1517 25
1518 140
1519 0
1520 106
1521 47
1522 22
1523 146
1524 144
1525 63
1526 160
1527 18
1528 16
1529 50
1530 10
1531 62
1532 102
1533 162
1534 145
1535 75
1536 200
1537 40
1538 162
1539 34
1540 46
1541 160
1542 116
1543 220
1544 23
1545 166
1546 30
1547 39
1548 81
1549 25
1550 41
1551 98
1552 153
1553 129
1554 169
1555 166
1556 60
1557 125
1558 73
1559 30
1560 11
1561 106
1562 54
1563 96
1564 111
1565 187
1566 83
1567 201
1568 86
1569 75
1570 88
1571 188
1572 44
1573 46
1574 119
1575 128
1576 161
1577 73
1578 135
1579 50
1580 88
1581 201
1582 19
1583 124
1584 56
1585 72
1586 100
1587 222
1588 23
1589 178
1590 109
1591 39
1592 7
1593 177
1594 123
1595 56
1596 129
1597 180
1598 149
1599 162
1600 123
1601 172
1602 89
1603 123
1604 150
1605 106
1606 166
1607 213
1608 213
1609 53
1610 100
1611 76
1612 41
1613 203
1614 117
1615 88
1616 83
1617 53
1618 92
1619 59
1620 18
1621 109
1622 89
1623 158
1624 128
1625 205
1626 200
1627 76
1628 99
1629 85
1630 95
1631 149
1632 94
1633 129
1634 153
1635 41
1636 113
1637 145
1638 21
1639 113
1640 37
1641 76
1642 41
1643 98
1644 11
1645 76
1646 129
1647 224
1648 198
1649 44
1650 90
1651 150
1652 137
1653 39
1654 26
1655 143
1656 119
1657 90
1658 113
1659 77
1660 220
1661 156
1662 119
1663 72
1664 99
1665 61
1666 86
1667 186
1668 109
1669 87
1670 131
1671 144
1672 187
1673 101
1674 146
1675 132
1676 92
1677 220
1678 94
1679 182
1680 51
1681 225
1682 130
1683 125
1684 39
1685 29
1686 58
1687 145
1688 208
1689 66
1690 99
1691 213
1692 86
1693 99
1694 172
1695 169
1696 20
1697 116
1698 144
1699 146
1700 128
1701 226
1702 165
1703 80
1704 98
1705 105
1706 205
1707 77
1708 30
1709 124
1710 166
1711 158
1712 145
1713 98
1714 99
1715 98
1716 185
1717 145
1718 151
1719 183
1720 77
1721 128
1722 71
1723 142
1724 124
1725 116
1726 227
1727 105
1728 63
1729 146
1730 120
1731 99
1732 22
1733 56
1734 19
1735 139
1736 95
1737 37
1738 146
1739 10
1740 175
1741 22
1742 12
1743 131
1744 21
1745 22
1746 102
1747 140
1748 228
1749 163
1750 75
1751 44
1752 45
1753 117
1754 142
1755 35
1756 53
1757 25
1758 229
1759 93
1760 153
1761 14
1762 50
1763 45
1764 84
1765 111
1766 44
1767 149
1768 132
1769 214
1770 106
1771 132
1772 27
1773 86
1774 210
1775 50
1776 99
1777 9
1778 75
1779 134
1780 144
1781 73
1782 148
1783 64
1784 56
1785 202
1786 106
1787 229
1788 29
1789 171
1790 66
1791 122
1792 229
1793 22
1794 73
1795 137
1796 44
1797 84
1798 18
1799 146
1800 19
1801 54
1802 45
1803 27
1804 181
1805 151
1806 150
1807 109
1808 230
1809 104
1810 147
1811 208
1812 109
1813 135
1814 59
1815 231
1816 119
1817 41
1818 171
1819 171
1820 223
1821 135
1822 118
1823 147
1824 118
1825 103
1826 1
1827 23
1828 39
1829 6
1830 14
1831 41
1832 160
1833 29
1834 14
1835 59
1836 147
1837 188
1838 55
1839 45
1840 67
1841 118
1842 56
1843 172
1844 175
1845 169
1846 149
1847 122
1848 206
1849 26
1850 231
1851 51
1852 110
1853 47
1854 95
1855 38
1856 62
1857 8
1858 170
1859 128
1860 25
1861 111
1862 83
1863 170
1864 72
1865 17
1866 69
1867 179
1868 73
1869 27
1870 83
1871 162
1872 26
1873 26
1874 111
1875 150
1876 186
1877 146
1878 60
1879 129
1880 86
1881 93
1882 84
1883 145
1884 64
1885 130
1886 51
1887 41
1888 86
1889 45
1890 66
1891 19
1892 37
1893 99
1894 195
1895 192
1896 143
1897 71
1898 5
1899 86
1900 29
1901 75
1902 166
1903 21
1904 51
1905 137
1906 192
1907 59
1908 95
1909 128
1910 150
1911 2
1912 129
1913 129
1914 175
1915 200
1916 75
1917 51
1918 71
1919 34
1920 175
1921 51
1922 75
1923 232
1924 13
1925 9
1926 180
1927 71
1928 75
1929 2
1930 148
1931 175
1932 25
1933 145
1934 147
1935 104
1936 21
1937 113
1938 22
1939 151
1940 55
1941 187
1942 175
1943 104
1944 18
1945 18
1946 119
1947 101
1948 84
1949 72
1950 170
1951 151
1952 68
1953 95
1954 54
1955 23
1956 148
1957 18
1958 123
1959 1
1960 96
1961 181
1962 232
1963 32
1964 148
1965 219
1966 91
1967 91
1968 216
1969 148
1970 172
1971 72
1972 56
1973 2
1974 23
1975 95
1976 63
1977 42
1978 132
1979 233
1980 34
1981 46
1982 37
1983 41
1984 86
1985 37
1986 225
1987 44
1988 14
1989 208
1990 60
1991 137
1992 57
1993 173
1994 95
1995 18
1996 132
1997 132
1998 137
1999 172
2000 177
2001 61
2002 56
2003 106
2004 41
2005 182
2006 59
2007 70
2008 154
2009 139
2010 148
2011 18
2012 45
2013 170
2014 110
2015 147
2016 234
2017 180
2018 23
2019 148
2020 154
2021 128
2022 73
2023 106
2024 61
2025 21
2026 159
2027 104
2028 180
2029 30
2030 61
2031 130
2032 185
2033 106
2034 161
2035 54
2036 106
2037 8
2038 173
2039 143
2040 201
2041 111
2042 66
2043 122
2044 156
2045 144
2046 137
2047 10
2048 171
2049 135
2050 124
2051 199
2052 150
2053 34
2054 174
2055 18
2056 55
2057 98
2058 21
2059 35
2060 7
2061 217
2062 100
2063 83
2064 73
2065 5
2066 108
2067 153
2068 27
2069 153
2070 41
2071 84
2072 75
2073 224
2074 23
2075 25
2076 101
2077 117
2078 24
2079 59
2080 46
2081 100
2082 174
2083 57
2084 98
2085 83
2086 39
2087 198
2088 44
2089 72
2090 84
2091 7
2092 23
2093 176
2094 75
2095 51
2096 57
2097 235
2098 145
2099 149
2100 135
2101 225
2102 44
2103 158
2104 153
2105 146
2106 88
2107 122
2108 192
2109 75
2110 36
2111 44
2112 76
2113 232
2114 149
2115 146
2116 153
2117 95
2118 130
2119 160
2120 23
2121 205
2122 75
2123 74
2124 5
2125 162
2126 76
2127 180
2128 55
2129 81
2130 86
2131 76
2132 23
2133 173
2134 71
2135 155
2136 153
2137 26
2138 41
2139 27
2140 124
2141 47
2142 93
2143 41
2144 72
2145 152
2146 146
2147 98
2148 29
2149 173
2150 55
2151 162
2152 162
2153 173
2154 173
2155 38
2156 122
2157 85
2158 68
2159 146
2160 51
2161 227
2162 223
2163 18
2164 54
2165 113
2166 170
2167 158
2168 44
2169 83
2170 75
2171 83
2172 89
2173 155
2174 9
2175 228
2176 96
2177 19
2178 29
2179 159
2180 75
2181 80
2182 77
2183 219
2184 185
2185 145
2186 160
2187 188
2188 19
2189 114
2190 129
2191 101
2192 32
2193 75
2194 202
2195 148
2196 59
2197 105
2198 175
2199 130
2200 52
2201 199
2202 74
2203 222
2204 21
2205 32
2206 161
2207 59
2208 52
2209 178
2210 217
2211 161
2212 146
2213 98
2214 128
2215 201
2216 190
2217 39
2218 236
2219 39
2220 88
2221 113
2222 169
2223 23
2224 14
2225 124
2226 178
2227 173
2228 58
2229 142
2230 138
2231 217
2232 182
2233 65
2234 58
2235 118
2236 13
2237 75
2238 73
2239 48
2240 14
2241 0
2242 49
2243 69
2244 18
2245 14
2246 124
2247 148
2248 174
2249 97
2250 76
2251 113
2252 229
2253 145
2254 106
2255 93
2256 49
2257 109
2258 23
2259 91
2260 12
2261 75
2262 86
2263 147
2264 145
2265 99
2266 43
2267 236
2268 234
2269 93
2270 55
2271 93
2272 39
2273 34
2274 119
2275 34
2276 44
2277 50
2278 27
2279 4
2280 129
2281 132
2282 194
2283 71
2284 172
2285 171
2286 153
2287 71
2288 227
2289 8
2290 144
2291 24
2292 149
2293 37
2294 84
2295 84
2296 135
2297 173
2298 27
2299 99
2300 151
2301 97
2302 120
2303 166
2304 103
2305 172
2306 93
2307 71
2308 84
2309 53
2310 48
2311 132
2312 204
2313 165
2314 209
2315 14
2316 45
2317 23
2318 26
2319 84
2320 25
2321 71
2322 71
2323 0
2324 100
2325 18
2326 65
2327 207
2328 29
2329 27
2330 93
2331 65
2332 171
2333 29
2334 160
2335 77
2336 119
2337 14
2338 8
2339 161
2340 219
2341 86
2342 41
2343 38
2344 71
2345 109
2346 149
2347 215
2348 120
2349 57
2350 62
2351 57
2352 129
2353 146
2354 96
2355 18
2356 29
2357 55
2358 175
2359 72
2360 44
2361 51
2362 115
2363 129
2364 106
2365 80
2366 132
2367 2
2368 175
2369 192
2370 45
2371 166
2372 161
2373 135
2374 104
2375 81
2376 168
2377 56
2378 59
2379 109
2380 51
2381 69
2382 213
2383 29
2384 146
2385 37
2386 59
2387 59
2388 36
2389 148
2390 96
2391 134
2392 26
2393 98
2394 8
2395 95
2396 122
2397 56
2398 39
2399 108
2400 72
2401 30
2402 30
2403 132
2404 136
2405 175
2406 14
2407 111
2408 34
2409 146
2410 134
2411 57
2412 99
2413 96
2414 112
2415 97
2416 183
2417 29
2418 198
2419 132
2420 37
2421 129
2422 39
2423 61
2424 193
2425 145
2426 179
2427 106
2428 26
2429 199
2430 156
2431 23
2432 145
2433 111
2434 21
2435 104
2436 182
2437 147
2438 169
2439 98
2440 150
2441 186
2442 172
2443 168
2444 172
2445 21
2446 113
2447 14
2448 206
2449 174
2450 104
2451 146
2452 146
2453 45
2454 151
2455 146
2456 129
2457 31
2458 151
2459 155
2460 4
2461 87
2462 72
2463 168
2464 178
2465 25
2466 99
2467 175
2468 91
2469 44
2470 151
2471 23
2472 88
2473 21
2474 122
2475 14
2476 104
2477 98
2478 104
2479 30
2480 175
2481 102
2482 119
2483 96
2484 155
2485 172
2486 88
2487 84
2488 205
2489 41
2490 71
2491 14
2492 151
2493 150
2494 132
2495 80
2496 129
2497 55
2498 188
2499 51
2500 93
2501 198
2502 93
2503 59
2504 104
2505 4
2506 71
2507 132
2508 92
2509 124
2510 117
2511 55
2512 84
2513 214
2514 128
2515 22
2516 146
2517 104
2518 109
2519 86
2520 75
2521 192
2522 26
2523 196
2524 80
2525 56
2526 95
2527 87
2528 56
2529 30
2530 87
2531 93
2532 4
2533 111
2534 128
2535 193
2536 175
2537 111
2538 132
2539 211
2540 111
2541 104
2542 104
2543 134
2544 117
2545 90
2546 105
2547 134
2548 180
2549 61
2550 50
2551 85
2552 60
2553 160
2554 160
2555 71
2556 84
2557 134
2558 37
2559 102
2560 199
2561 37
2562 24
2563 134
2564 160
2565 199
2566 37
2567 84
2568 182
2569 18
2570 27
2571 171
2572 153
2573 18
2574 90
2575 183
2576 192
2577 193
2578 219
2579 113
2580 29
2581 102
2582 152
2583 77
2584 44
2585 119
2586 119
2587 173
2588 147
2589 76
2590 97
2591 171
2592 96
2593 133
2594 206
2595 18
2596 98
2597 170
2598 44
2599 88
2600 36
2601 129
2602 73
2603 160
2604 59
2605 21
2606 110
2607 188
2608 167
2609 180
2610 7
2611 50
2612 72
2613 57
2614 15
2615 41
2616 97
2617 155
2618 47
2619 79
2620 83
2621 150
2622 150
2623 23
2624 42
2625 124
2626 109
2627 98
2628 71
2629 124
2630 228
2631 23
2632 109
2633 113
2634 41
2635 177
2636 0
2637 162
2638 71
2639 234
2640 23
2641 93
2642 108
2643 108
2644 220
2645 71
2646 30
2647 88
2648 79
2649 8
2650 84
2651 226
2652 63
2653 117
2654 44
2655 23
2656 172
2657 197
2658 14
2659 149
2660 151
2661 93
2662 123
2663 114
2664 132
2665 46
2666 10
2667 128
2668 165
2669 41
2670 24
2671 117
2672 34
2673 62
2674 54
2675 22
2676 231
2677 177
2678 141
2679 98
2680 150
2681 19
2682 71
2683 150
2684 203
2685 26
2686 90
2687 178
2688 50
2689 106
2690 30
2691 21
2692 26
2693 77
2694 44
2695 61
2696 132
2697 63
2698 26
2699 130
2700 110
2701 155
2702 98
2703 39
2704 111
2705 83
2706 129
2707 26
2708 87
2709 86
2710 183
2711 70
2712 67
2713 27
2714 66
2715 130
2716 25
2717 66
2718 108
2719 34
2720 30
2721 84
2722 15
2723 168
2724 143
2725 164
2726 122
2727 119
2728 85
2729 185
2730 145
2731 27
2732 157
2733 192
2734 179
2735 147
2736 117
2737 140
2738 173
2739 178
2740 75
2741 217
2742 14
2743 56
2744 64
2745 26
2746 227
2747 1
2748 29
2749 124
2750 86
2751 77
2752 15
2753 229
2754 129
2755 148
2756 193
2757 52
2758 147
2759 187
2760 122
2761 124
2762 75
2763 78
2764 112
2765 118
2766 37
2767 82
2768 71
2769 229
2770 25
2771 50
2772 159
2773 95
2774 144
2775 96
2776 71
2777 234
2778 43
2779 157
2780 109
2781 69
2782 124
2783 177
2784 54
2785 148
2786 171
2787 120
2788 100
2789 165
2790 18
2791 122
2792 98
2793 141
2794 2
2795 145
2796 134
2797 64
2798 106
2799 25
2800 202
2801 172
2802 22
2803 220
2804 50
2805 139
2806 14
2807 147
2808 45
2809 75
2810 39
2811 66
2812 14
2813 135
2814 98
2815 120
2816 96
2817 133
2818 173
2819 217
2820 99
2821 151
2822 148
2823 102
2824 122
2825 8
2826 135
2827 64
2828 30
2829 75
2830 237
2831 97
2832 73
2833 153
2834 44
2835 34
2836 111
2837 122
2838 104
2839 151
2840 77
2841 97
2842 188
2843 157
2844 111
2845 144
2846 117
2847 149
2848 230
2849 172
2850 150
2851 144
2852 99
2853 29
2854 150
2855 99
2856 180
2857 26
2858 11
2859 45
2860 75
2861 87
2862 162
2863 34
2864 50
2865 41
2866 171
2867 148
2868 171
2869 146
2870 173
2871 146
2872 1
2873 50
2874 172
2875 129
2876 87
2877 86
2878 59
2879 156
2880 172
2881 117
2882 122
2883 64
2884 2
2885 20
2886 144
2887 14
2888 129
2889 192
2890 124
2891 18
2892 91
2893 147
2894 10
2895 71
2896 71
2897 81
2898 86
2899 123
2900 117
2901 50
2902 81
2903 95
2904 25
2905 21
2906 24
2907 192
2908 170
2909 224
2910 151
2911 51
2912 62
2913 104
2914 41
2915 115
2916 111
2917 98
2918 16
2919 51
2920 37
2921 168
2922 178
2923 223
2924 132
2925 62
2926 4
2927 145
2928 151
2929 178
2930 75
2931 68
2932 173
2933 136
2934 54
2935 14
2936 63
2937 144
2938 94
2939 7
2940 105
2941 25
2942 59
2943 188
2944 80
2945 85
2946 88
2947 66
2948 36
2949 11
2950 145
2951 122
2952 134
2953 51
2954 51
2955 81
2956 111
2957 99
2958 117
2959 80
2960 61
2961 151
2962 109
2963 84
2964 176
2965 180
2966 61
2967 158
2968 26
2969 48
2970 18
2971 160
2972 103
2973 42
2974 42
2975 51
2976 100
2977 147
2978 145
2979 64
2980 18
2981 23
2982 197
2983 226
2984 202
2985 75
2986 132
2987 14
2988 26
2989 18
2990 139
2991 123
2992 122
2993 14
2994 180
2995 146
2996 122
2997 132
2998 175
2999 49
3000 117
3001 141
3002 153
3003 21
3004 192
3005 106
3006 95
3007 124
3008 151
3009 37
3010 19
3011 106
3012 37
3013 229
3014 128
3015 25
3016 219
3017 80
3018 160
3019 37
3020 109
3021 196
3022 25
3023 91
3024 59
3025 175
3026 72
3027 14
3028 151
3029 44
3030 104
3031 132
3032 45
3033 99
3034 213
3035 132
3036 124
3037 59
3038 119
3039 124
3040 106
3041 134
3042 25
3043 172
3044 106
3045 85
3046 140
3047 213
3048 87
3049 56
3050 145
3051 122
3052 144
3053 67
3054 60
3055 67
3056 111
3057 124
3058 150
3059 170
3060 175
3061 12
3062 144
3063 234
3064 175
3065 84
3066 155
3067 59
3068 61
3069 8
3070 144
3071 151
3072 210
3073 108
3074 111
3075 194
3076 150
3077 73
3078 27
3079 44
3080 144
3081 151
3082 151
3083 24
3084 130
3085 39
3086 137
3087 18
3088 129
3089 7
3090 104
3091 219
3092 58
3093 18
3094 185
3095 56
3096 129
3097 150
3098 7
3099 110
3100 91
3101 120
3102 68
3103 95
3104 171
3105 67
3106 161
3107 198
3108 100
3109 23
3110 23
3111 159
3112 169
3113 195
3114 102
3115 109
3116 180
3117 29
3118 79
3119 34
3120 44
3121 161
3122 194
3123 163
3124 24
3125 75
3126 150
3127 73
3128 34
3129 50
3130 72
3131 75
3132 66
3133 150
3134 203
3135 23
3136 146
3137 216
3138 75
3139 109
3140 66
3141 129
3142 164
3143 29
3144 33
3145 57
3146 153
3147 124
3148 168
3149 145
3150 76
3151 55
3152 57
3153 4
3154 225
3155 151
3156 180
3157 67
3158 98
3159 44
3160 131
3161 41
3162 57
3163 146
3164 109
3165 50
3166 170
3167 37
3168 66
3169 45
3170 168
3171 122
3172 129
3173 149
3174 29
3175 90
3176 95
3177 98
3178 100
3179 161
3180 230
3181 145
3182 144
3183 83
3184 102
3185 73
3186 109
3187 86
3188 66
3189 51
3190 83
3191 59
3192 28
3193 90
3194 132
3195 85
3196 99
3197 39
3198 75
3199 71
3200 72
3201 105
3202 83
3203 11
3204 146
3205 14
3206 95
3207 52
3208 154
3209 155
3210 34
3211 105
3212 170
3213 57
3214 149
3215 98
3216 174
3217 190
3218 30
3219 21
3220 19
3221 216
3222 130
3223 105
3224 34
3225 60
3226 21
3227 101
3228 229
3229 129
3230 34
3231 122
3232 124
3233 111
3234 122
3235 80
3236 84
3237 25
3238 174
3239 219
3240 123
3241 145
3242 50
3243 133
3244 124
3245 205
3246 185
3247 128
3248 118
3249 3
3250 132
3251 75
3252 215
3253 6
3254 222
3255 228
3256 66
3257 194
3258 122
3259 96
3260 99
3261 66
3262 122
3263 66
3264 137
3265 73
3266 27
3267 0
3268 18
3269 18
3270 102
3271 110
3272 78
3273 193
3274 162
3275 145
3276 157
3277 65
3278 41
3279 54
3280 73
3281 132
3282 131
3283 98
3284 75
3285 177
3286 146
3287 36
3288 172
3289 99
3290 129
3291 128
3292 30
3293 107
3294 134
3295 122
3296 118
3297 92
3298 156
3299 73
3300 40
3301 130
3302 158
3303 144
3304 48
3305 37
3306 158
3307 91
3308 192
3309 160
3310 39
3311 144
3312 61
3313 135
3314 21
3315 9
3316 14
3317 25
3318 27
3319 207
3320 37
3321 148
3322 70
3323 177
3324 37
3325 2
3326 21
3327 87
3328 30
3329 172
3330 194
3331 109
3332 210
3333 132
3334 100
3335 220
3336 170
3337 99
3338 147
3339 124
3340 79
3341 41
3342 169
3343 84
3344 132
3345 95
3346 88
3347 128
3348 100
3349 119
3350 201
3351 104
3352 21
3353 102
3354 70
3355 102
3356 5
3357 144
3358 148
3359 79
3360 223
3361 197
3362 144
3363 21
3364 153
3365 87
3366 37
3367 57
3368 77
3369 25
3370 85
3371 100
3372 104
3373 41
3374 95
3375 87
3376 59
3377 95
3378 18
3379 88
3380 162
3381 66
3382 45
3383 66
3384 18
3385 36
3386 27
3387 194
3388 171
3389 73
3390 48
3391 128
3392 84
3393 181
3394 14
3395 151
3396 146
3397 69
3398 33
3399 103
3400 70
3401 29
3402 66
3403 59
3404 170
3405 99
3406 26
3407 150
3408 160
3409 172
3410 84
3411 18
3412 39
3413 131
3414 229
3415 48
3416 80
3417 124
3418 170
3419 18
3420 95
3421 185
3422 7
3423 84
3424 80
3425 173
3426 175
3427 98
3428 59
3429 104
3430 213
3431 128
3432 145
3433 26
3434 18
3435 118
3436 98
3437 22
3438 63
3439 14
3440 209
3441 84
3442 25
3443 86
3444 170
3445 73
3446 102
3447 147
3448 110
3449 230
3450 181
3451 75
3452 80
3453 84
3454 11
3455 96
3456 109
3457 104
3458 104
3459 17
3460 146
3461 66
3462 151
3463 40
3464 151
3465 75
3466 108
3467 29
3468 14
3469 38
3470 75
3471 91
3472 146
3473 83
3474 98
3475 117
3476 25
3477 145
3478 71
3479 26
3480 111
3481 95
3482 110
3483 192
3484 160
3485 85
3486 145
3487 168
3488 125
3489 180
3490 173
3491 145
3492 80
3493 45
3494 103
3495 151
3496 91
3497 1
3498 59
3499 25
3500 95
3501 106
3502 18
3503 122
3504 104
3505 128
3506 25
3507 114
3508 153
3509 143
3510 158
3511 47
3512 99
3513 129
3514 59
3515 23
3516 91
3517 117
3518 71
3519 192
3520 146
3521 170
3522 150
3523 227
3524 136
3525 80
3526 172
3527 192
3528 86
3529 75
3530 170
3531 71
3532 209
3533 25
3534 18
3535 155
3536 129
3537 168
3538 149
3539 164
3540 117
3541 66
3542 21
3543 21
3544 203
3545 21
3546 43
3547 64
3548 104
3549 41
3550 56
3551 59
3552 111
3553 193
3554 25
3555 37
3556 123
3557 48
3558 195
3559 170
3560 199
3561 87
3562 23
3563 106
3564 85
3565 99
3566 173
3567 71
3568 73
3569 24
3570 95
3571 99
3572 51
3573 106
3574 8
3575 130
3576 180
3577 162
3578 160
3579 25
3580 18
3581 180
3582 124
3583 150
3584 144
3585 22
3586 25
3587 148
3588 44
3589 4
3590 124
3591 66
3592 9
3593 22
3594 196
3595 102
3596 156
3597 27
3598 131
3599 96
3600 16
3601 137
3602 173
3603 124
3604 180
3605 54
3606 117
3607 73
3608 158
3609 86
3610 175
3611 201
3612 96
3613 50
3614 159
3615 65
3616 49
3617 197
3618 39
3619 84
3620 234
3621 65
3622 106
3623 51
3624 5
3625 42
3626 148
3627 171
3628 109
3629 9
3630 75
3631 77
3632 44
3633 153
3634 44
3635 234
3636 87
3637 214
3638 151
3639 14
3640 29
3641 96
3642 53
3643 149
3644 145
3645 26
3646 123
3647 66
3648 106
3649 109
3650 2
3651 161
3652 60
3653 119
3654 175
3655 62
3656 109
3657 35
3658 180
3659 55
3660 169
3661 194
3662 119
3663 160
3664 19
3665 149
3666 141
3667 170
3668 155
3669 123
3670 160
3671 28
3672 145
3673 158
3674 54
3675 95
3676 77
3677 54
3678 170
3679 22
3680 202
3681 46
3682 180
3683 105
3684 69
3685 86
3686 86
3687 37
3688 88
3689 122
3690 123
3691 41
3692 33
3693 39
3694 119
3695 84
3696 51
3697 84
3698 109
3699 88
3700 122
3701 104
3702 96
3703 149
3704 238
3705 113
3706 94
3707 59
3708 59
3709 3
3710 174
3711 169
3712 99
3713 57
3714 142
3715 71
3716 187
3717 154
3718 71
3719 41
3720 21
3721 21
3722 129
3723 131
3724 173
3725 145
3726 109
3727 56
3728 129
3729 111
3730 150
3731 145
3732 32
3733 94
3734 150
3735 125
3736 67
3737 149
3738 53
3739 88
3740 59
3741 146
3742 223
3743 130
3744 17
3745 7
3746 148
3747 161
3748 145
3749 57
3750 8
3751 132
3752 169
3753 72
3754 234
3755 73
3756 124
3757 157
3758 51
3759 4
3760 149
3761 98
3762 145
3763 138
3764 60
3765 159
3766 195
3767 80
3768 239
3769 88
3770 14
3771 80
3772 123
3773 220
3774 146
3775 135
3776 205
3777 140
3778 200
3779 2
3780 129
3781 125
3782 41
3783 193
3784 204
3785 117
3786 71
3787 106
3788 177
3789 139
3790 36
3791 130
3792 173
3793 146
3794 138
3795 217
3796 14
3797 202
3798 58
3799 111
3800 109
3801 232
3802 87
3803 111
3804 132
3805 111
3806 99
3807 50
3808 135
3809 193
3810 145
3811 111
3812 10
3813 87
3814 94
3815 71
3816 31
3817 10
3818 37
3819 108
3820 153
3821 185
3822 109
3823 123
3824 148
3825 147
3826 2
3827 149
3828 21
3829 8
3830 193
3831 147
3832 223
3833 128
3834 25
3835 23
3836 53
3837 19
3838 190
3839 56
3840 79
3841 76
3842 12
3843 175
3844 180
3845 87
3846 122
3847 144
3848 132
3849 161
3850 225
3851 45
3852 91
3853 180
3854 166
3855 153
3856 73
3857 27
3858 145
3859 87
3860 39
3861 39
3862 80
3863 95
3864 80
3865 21
3866 158
3867 180
3868 37
3869 62
3870 144
3871 151
3872 151
3873 202
3874 180
3875 153
3876 153
3877 35
3878 122
3879 71
3880 111
3881 91
3882 104
3883 26
3884 175
3885 215
3886 25
3887 91
3888 111
3889 50
3890 5
3891 91
3892 128
3893 8
3894 63
3895 205
3896 132
3897 56
3898 47
3899 25
3900 128
3901 91
3902 63
3903 211
3904 84
3905 100
3906 86
3907 46
3908 45
3909 95
3910 172
3911 158
3912 36
3913 150
3914 73
3915 102
3916 193
3917 201
3918 80
3919 59
3920 42
3921 138
3922 95
3923 111
3924 91
3925 129
3926 26
3927 14
3928 95
3929 171
3930 122
3931 51
3932 91
3933 51
3934 59
3935 45
3936 168
3937 150
3938 223
3939 104
3940 43
3941 104
3942 129
3943 124
3944 109
3945 104
3946 160
3947 59
3948 55
3949 51
3950 25
3951 45
3952 82
3953 18
3954 192
3955 96
3956 122
3957 117
3958 90
3959 192
3960 55
3961 91
3962 24
3963 122
3964 95
3965 91
3966 66
3967 169
3968 14
3969 128
3970 154
3971 51
3972 210
3973 19
3974 75
3975 80
3976 75
3977 108
3978 150
3979 132
3980 27
3981 95
3982 39
3983 91
3984 59
3985 14
3986 144
3987 170
3988 80
3989 95
3990 149
3991 175
3992 71
3993 175
3994 126
3995 84
3996 143
3997 145
3998 104
3999 160
4000 129
4001 124
4002 146
4003 39
4004 61
4005 101
4006 124
4007 32
4008 95
4009 59
4010 109
4011 148
4012 77
4013 51
4014 91
4015 175
4016 75
4017 180
4018 91
4019 150
4020 113
4021 155
4022 45
4023 59
4024 25
4025 117
4026 111
4027 3
4028 55
4029 106
4030 175
4031 175
4032 144
4033 174
4034 148
4035 109
4036 1
4037 180
4038 124
4039 117
4040 61
4041 91
4042 106
4043 128
4044 61
4045 49
4046 147
4047 7
4048 111
4049 10
4050 22
4051 21
4052 84
4053 165
4054 26
4055 183
4056 99
4057 63
4058 71
4059 162
4060 211
4061 147
4062 146
4063 154
4064 132
4065 131
4066 21
4067 107
4068 148
4069 95
4070 79
4071 150
4072 8
4073 144
4074 154
4075 106
4076 201
4077 71
4078 170
4079 46
4080 123
4081 95
4082 138
4083 117
4084 150
4085 44
4086 180
4087 37
4088 44
4089 37
4090 100
4091 136
4092 44
4093 51
4094 141
4095 150
4096 59
4097 48
4098 131
4099 196
4100 39
4101 189
4102 144
4103 185
4104 87
4105 192
4106 93
4107 28
4108 155
4109 41
4110 220
4111 39
4112 134
4113 88
4114 175
4115 66
4116 88
4117 27
4118 98
4119 178
4120 160
4121 231
4122 39
4123 192
4124 18
4125 172
4126 89
4127 21
4128 34
4129 100
4130 52
4131 18
4132 39
4133 8
4134 93
4135 102
4136 137
4137 176
4138 171
4139 129
4140 100
4141 18
4142 201
4143 145
4144 153
4145 34
4146 109
4147 145
4148 105
4149 87
4150 50
4151 96
4152 3
4153 47
4154 71
4155 150
4156 88
4157 21
4158 118
4159 29
4160 0
4161 113
4162 88
4163 50
4164 77
4165 110
4166 177
4167 95
4168 193
4169 104
4170 75
4171 113
4172 67
4173 83
4174 146
4175 214
4176 116
4177 41
4178 77
4179 98
4180 37
4181 51
4182 19
4183 23
4184 173
4185 229
4186 39
4187 102
4188 66
4189 177
4190 41
4191 14
4192 117
4193 150
4194 123
4195 7
4196 150
4197 64
4198 109
4199 177
4200 55
4201 98
4202 91
4203 86
4204 75
4205 39
4206 111
4207 57
4208 209
4209 230
4210 106
4211 228
4212 90
4213 145
4214 122
4215 104
4216 27
4217 240
4218 33
4219 132
4220 70
4221 155
4222 21
4223 37
4224 98
4225 130
4226 102
4227 155
4228 73
4229 39
4230 12
4231 223
4232 93
4233 108
4234 193
4235 34
4236 183
4237 173
4238 162
4239 29
4240 111
4241 129
4242 160
4243 173
4244 166
4245 201
4246 202
4247 240
4248 152
4249 146
4250 148
4251 111
4252 12
4253 127
4254 100
4255 55
4256 103
4257 59
4258 61
4259 108
4260 76
4261 27
4262 148
4263 155
4264 34
4265 132
4266 132
4267 128
4268 30
4269 176
4270 132
4271 32
4272 147
4273 117
4274 15
4275 48
4276 14
4277 62
4278 146
4279 162
4280 90
4281 14
4282 123
4283 108
4284 83
4285 163
4286 150
4287 124
4288 61
4289 37
4290 102
4291 116
4292 129
4293 124
4294 99
4295 222
4296 123
4297 137
4298 122
4299 145
4300 148
4301 123
4302 109
4303 73
4304 104
4305 62
4306 105
4307 201
4308 14
4309 188
4310 147
4311 166
4312 18
4313 192
4314 207
4315 119
4316 4
4317 45
4318 100
4319 98
4320 10
4321 100
4322 146
4323 84
4324 114
4325 99
4326 84
4327 84
4328 45
4329 167
4330 27
4331 14
4332 21
4333 102
4334 116
4335 225
4336 48
4337 99
4338 117
4339 95
4340 148
4341 93
4342 124
4343 124
4344 24
4345 25
4346 76
4347 88
4348 88
4349 93
4350 66
4351 70
4352 76
4353 98
4354 84
4355 173
4356 111
4357 18
4358 91
4359 34
4360 8
4361 222
4362 161
4363 124
4364 111
4365 95
4366 111
4367 170
4368 25
4369 66
4370 162
4371 25
4372 169
4373 55
4374 175
4375 42
4376 55
4377 118
4378 80
4379 14
4380 77
4381 75
4382 8
4383 87
4384 93
4385 122
4386 153
4387 129
4388 21
4389 172
4390 104
4391 21
4392 14
4393 111
4394 145
4395 198
4396 27
4397 145
4398 84
4399 71
4400 145
4401 140
4402 21
4403 216
4404 129
4405 180
4406 109
4407 67
4408 59
4409 59
4410 59
4411 45
4412 147
4413 122
4414 106
4415 84
4416 5
4417 34
4418 59
4419 26
4420 34
4421 81
4422 193
4423 89
4424 25
4425 147
4426 214
4427 175
4428 30
4429 109
4430 104
4431 4
4432 131
4433 99
4434 161
4435 192
4436 151
4437 91
4438 154
4439 153
4440 95
4441 39
4442 151
4443 14
4444 162
4445 106
4446 241
4447 173
4448 162
4449 193
4450 158
4451 148
4452 172
4453 7
4454 148
4455 26
4456 95
4457 26
4458 23
4459 177
4460 161
4461 75
4462 91
4463 122
4464 214
4465 167
4466 83
4467 150
4468 162
4469 173
4470 18
4471 139
4472 165
4473 14
4474 2
4475 51
4476 80
4477 71
4478 151
4479 91
4480 173
4481 172
4482 129
4483 183
4484 122
4485 26
4486 84
4487 89
4488 98
4489 117
4490 151
4491 119
4492 209
4493 150
4494 99
4495 45
4496 158
4497 47
4498 180
4499 217
4500 121
4501 113
4502 88
4503 95
4504 111
4505 175
4506 132
4507 150
4508 130
4509 51
4510 176
4511 51
4512 73
4513 147
4514 149
4515 30
4516 95
4517 119
4518 59
4519 75
4520 170
4521 47
4522 18
4523 173
4524 47
4525 72
4526 132
4527 133
4528 80
4529 43
4530 155
4531 75
4532 153
4533 161
4534 147
4535 84
4536 217
4537 2
4538 118
4539 41
4540 51
4541 111
4542 180
4543 173
4544 164
4545 34
4546 119
4547 174
4548 146
4549 45
4550 73
4551 62
4552 183
4553 59
4554 170
4555 119
4556 59
4557 61
4558 128
4559 37
4560 134
4561 214
4562 146
4563 10
4564 146
4565 150
4566 53
4567 58
4568 148
4569 220
4570 150
4571 23
4572 100
4573 75
4574 55
4575 145
4576 122
4577 18
4578 100
4579 188
4580 83
4581 44
4582 102
4583 240
4584 152
4585 97
4586 16
4587 135
4588 120
4589 130
4590 56
4591 79
4592 98
4593 117
4594 96
4595 27
4596 27
4597 73
4598 118
4599 119
4600 50
4601 44
4602 91
4603 146
4604 71
4605 24
4606 117
4607 66
4608 159
4609 170
4610 49
4611 150
4612 28
4613 208
4614 73
4615 75
4616 61
4617 141
4618 41
4619 10
4620 22
4621 216
4622 31
4623 119
4624 150
4625 176
4626 153
4627 144
4628 79
4629 155
4630 83
4631 7
4632 161
4633 154
4634 57
4635 154
4636 62
4637 38
4638 54
4639 54
4640 171
4641 181
4642 45
4643 144
4644 80
4645 86
4646 109
4647 118
4648 79
4649 56
4650 26
4651 114
4652 55
4653 149
4654 24
4655 109
4656 232
4657 8
4658 136
4659 88
4660 8
4661 135
4662 51
4663 162
4664 209
4665 146
4666 114
4667 39
4668 59
4669 145
4670 122
4671 75
4672 77
4673 162
4674 204
4675 59
4676 122
4677 201
4678 26
4679 51
4680 5
4681 62
4682 144
4683 116
4684 220
4685 145
4686 27
4687 166
4688 166
4689 135
4690 70
4691 98
4692 150
4693 206
4694 81
4695 69
4696 190
4697 129
4698 26
4699 44
4700 71
4701 115
4702 55
4703 48
4704 46
4705 99
4706 109
4707 41
4708 162
4709 123
4710 198
4711 109
4712 121
4713 65
4714 102
4715 122
4716 98
4717 161
4718 75
4719 11
4720 169
4721 145
4722 71
4723 84
4724 18
4725 161
4726 75
4727 70
4728 72
4729 63
4730 91
4731 36
4732 19
4733 42
4734 193
4735 84
4736 149
4737 33
4738 78
4739 21
4740 33
4741 28
4742 20
4743 159
4744 236
4745 42
4746 173
4747 91
4748 43
4749 100
4750 157
4751 160
4752 47
4753 111
4754 106
4755 224
4756 36
4757 56
4758 107
4759 56
4760 32
4761 145
4762 36
4763 124
4764 34
4765 180
4766 21
4767 111
4768 37
4769 109
4770 132
4771 99
4772 98
4773 170
4774 160
4775 88
4776 28
4777 96
4778 124
4779 150
4780 99
4781 102
4782 62
4783 40
4784 176
4785 124
4786 134
4787 32
4788 79
4789 102
4790 145
4791 120
4792 148
4793 144
4794 157
4795 26
4796 168
4797 119
4798 15
4799 56
4800 66
4801 14
4802 110
4803 120
4804 51
4805 106
4806 37
4807 111
4808 133
4809 147
4810 111
4811 193
4812 105
4813 122
4814 148
4815 25
4816 71
4817 117
4818 50
4819 124
4820 173
4821 93
4822 21
4823 37
4824 87
4825 220
4826 59
4827 134
4828 122
4829 89
4830 46
4831 94
4832 217
4833 110
4834 37
4835 169
4836 96
4837 162
4838 199
4839 79
4840 24
4841 123
4842 91
4843 172
4844 135
4845 173
4846 83
4847 159
4848 171
4849 122
4850 95
4851 111
4852 21
4853 65
4854 180
4855 162
4856 82
4857 85
4858 145
4859 193
4860 83
4861 45
4862 175
4863 109
4864 83
4865 175
4866 21
4867 85
4868 16
4869 18
4870 188
4871 111
4872 207
4873 86
4874 54
4875 100
4876 111
4877 9
4878 162
4879 99
4880 73
4881 29
4882 67
4883 203
4884 62
4885 132
4886 129
4887 175
4888 45
4889 8
4890 225
4891 32
4892 106
4893 170
4894 180
4895 160
4896 147
4897 98
4898 66
4899 190
4900 24
4901 161
4902 26
4903 80
4904 138
4905 171
4906 147
4907 101
4908 129
4909 74
4910 80
4911 170
4912 88
4913 99
4914 26
4915 119
4916 86
4917 175
4918 172
4919 14
4920 21
4921 87
4922 175
4923 225
4924 129
4925 129
4926 145
4927 161
4928 242
4929 110
4930 69
4931 158
4932 128
4933 72
4934 59
4935 122
4936 99
4937 128
4938 122
4939 23
4940 27
4941 85
4942 129
4943 234
4944 51
4945 100
4946 111
4947 84
4948 26
4949 57
4950 185
4951 132
4952 55
4953 180
4954 14
4955 63
4956 115
4957 46
4958 5
4959 25
4960 117
4961 9
4962 98
4963 128
4964 147
4965 124
4966 93
4967 21
4968 47
4969 26
4970 159
4971 83
4972 42
4973 118
4974 51
4975 7
4976 220
4977 213
4978 95
4979 243
4980 95
4981 59
4982 132
4983 75
4984 95
4985 109
4986 21
4987 232
4988 148
4989 172
4990 81
4991 159
4992 95
4993 99
4994 96
4995 0
4996 21
4997 90
4998 4
4999 92
5000 99
5001 117
5002 147
5003 11
5004 151
5005 91
5006 148
5007 146
5008 80
5009 151
5010 82
5011 55
5012 17
5013 59
5014 166
5015 7
5016 122
5017 98
5018 161
5019 96
5020 7
5021 55
5022 18
5023 147
5024 83
5025 25
5026 166
5027 117
5028 173
5029 59
5030 155
5031 44
5032 164
5033 169
5034 104
5035 68
5036 109
5037 64
5038 21
5039 40
5040 23
5041 21
5042 80
5043 71
5044 148
5045 99
5046 225
5047 71
5048 81
5049 122
5050 200
5051 109
5052 52
5053 145
5054 55
5055 111
5056 180
5057 102
5058 105
5059 135
5060 180
5061 145
5062 148
5063 153
5064 109
5065 159
5066 70
5067 80
5068 75
5069 73
5070 104
5071 22
5072 80
5073 128
5074 129
5075 183
5076 93
5077 205
5078 80
5079 85
5080 128
5081 169
5082 180
5083 173
5084 106
5085 51
5086 91
5087 190
5088 147
5089 46
5090 149
5091 61
5092 59
5093 25
5094 144
5095 170
5096 87
5097 100
5098 172
5099 119
5100 170
5101 122
5102 14
5103 23
5104 151
5105 56
5106 180
5107 137
5108 39
5109 128
5110 7
5111 117
5112 41
5113 47
5114 86
5115 171
5116 33
5117 106
5118 111
5119 113
5120 16
5121 136
5122 180
5123 212
5124 18
5125 98
5126 51
5127 153
5128 103
5129 54
5130 155
5131 73
5132 75
5133 170
5134 178
5135 11
5136 168
5137 51
5138 225
5139 79
5140 24
5141 28
5142 44
5143 65
5144 169
5145 86
5146 21
5147 88
5148 64
5149 132
5150 102
5151 50
5152 148
5153 87
5154 98
5155 4
5156 73
5157 51
5158 230
5159 36
5160 117
5161 84
5162 168
5163 64
5164 160
5165 133
5166 138
5167 229
5168 96
5169 61
5170 41
5171 71
5172 129
5173 134
5174 98
5175 76
5176 224
5177 151
5178 95
5179 33
5180 129
5181 34
5182 24
5183 129
5184 118
5185 127
5186 69
5187 71
5188 36
5189 19
5190 87
5191 173
5192 26
5193 36
5194 71
5195 180
5196 119
5197 62
5198 60
5199 135
5200 63
5201 24
5202 44
5203 5
5204 166
5205 177
5206 168
5207 70
5208 54
5209 76
5210 29
5211 81
5212 30
5213 34
5214 215
5215 126
5216 122
5217 161
5218 131
5219 122
5220 62
5221 18
5222 43
5223 139
5224 124
5225 167
5226 129
5227 179
5228 25
5229 46
5230 161
5231 168
5232 159
5233 97
5234 134
5235 85
5236 4
5237 98
5238 24
5239 70
5240 128
5241 173
5242 24
5243 122
5244 86
5245 19
5246 81
5247 84
5248 173
5249 155
5250 98
5251 189
5252 145
5253 145
5254 24
5255 142
5256 86
5257 143
5258 183
5259 199
5260 125
5261 185
5262 34
5263 53
5264 99
5265 75
5266 244
5267 109
5268 26
5269 32
5270 161
5271 8
5272 36
5273 22
5274 14
5275 118
5276 26
5277 65
5278 51
5279 99
5280 157
5281 21
5282 44
5283 35
5284 41
5285 132
5286 98
5287 230
5288 146
5289 24
5290 150
5291 108
5292 41
5293 150
5294 149
5295 134
5296 44
5297 71
5298 192
5299 215
5300 122
5301 132
5302 4
5303 99
5304 173
5305 106
5306 192
5307 73
5308 26
5309 127
5310 162
5311 146
5312 81
5313 64
5314 120
5315 85
5316 80
5317 109
5318 18
5319 126
5320 18
5321 129
5322 150
5323 205
5324 168
5325 161
5326 71
5327 95
5328 21
5329 27
5330 14
5331 98
5332 228
5333 14
5334 129
5335 133
5336 30
5337 89
5338 69
5339 147
5340 14
5341 83
5342 125
5343 168
5344 122
5345 40
5346 44
5347 165
5348 199
5349 117
5350 71
5351 84
5352 71
5353 8
5354 175
5355 148
5356 122
5357 44
5358 41
5359 148
5360 117
5361 79
5362 62
5363 175
5364 188
5365 7
5366 192
5367 19
5368 68
5369 18
5370 123
5371 93
5372 173
5373 168
5374 151
5375 183
5376 192
5377 134
5378 147
5379 168
5380 173
5381 71
5382 80
5383 129
5384 163
5385 87
5386 76
5387 98
5388 101
5389 132
5390 78
5391 111
5392 153
5393 115
5394 176
5395 93
5396 175
5397 128
5398 82
5399 148
5400 162
5401 197
5402 121
5403 95
5404 86
5405 88
5406 26
5407 104
5408 5
5409 180
5410 170
5411 134
5412 55
5413 99
5414 27
5415 102
5416 26
5417 102
5418 132
5419 77
5420 150
5421 51
5422 42
5423 45
5424 83
5425 113
5426 39
5427 148
5428 150
5429 47
5430 96
5431 151
5432 68
5433 72
5434 123
5435 163
5436 179
5437 75
5438 59
5439 128
5440 217
5441 41
5442 95
5443 172
5444 51
5445 68
5446 121
5447 9
5448 72
5449 99
5450 245
5451 27
5452 18
5453 167
5454 21
5455 229
5456 70
5457 39
5458 111
5459 21
5460 170
5461 4
5462 84
5463 129
5464 154
5465 26
5466 132
5467 4
5468 213
5469 25
5470 211
5471 170
5472 18
5473 99
5474 111
5475 102
5476 104
5477 164
5478 19
5479 14
5480 86
5481 220
5482 70
5483 72
5484 91
5485 91
5486 111
5487 47
5488 22
5489 29
5490 72
5491 145
5492 148
5493 111
5494 118
5495 61
5496 97
5497 85
5498 109
5499 150
5500 196
5501 18
5502 161
5503 8
5504 205
5505 128
5506 36
5507 188
5508 71
5509 128
5510 71
5511 132
5512 148
5513 129
5514 50
5515 129
5516 128
5517 25
5518 128
5519 36
5520 175
5521 59
5522 14
5523 150
5524 156
5525 55
5526 21
5527 21
5528 122
5529 95
5530 61
5531 64
5532 171
5533 4
5534 59
5535 26
5536 59
5537 162
5538 109
5539 18
5540 117
5541 46
5542 113
5543 138
5544 14
5545 234
5546 99
5547 71
5548 125
5549 128
5550 26
5551 187
5552 226
5553 132
5554 124
5555 117
5556 173
5557 59
5558 147
5559 17
5560 122
5561 29
5562 117
5563 121
5564 34
5565 99
5566 178
5567 91
5568 69
5569 95
5570 104
5571 80
5572 109
5573 120
5574 56
5575 147
5576 41
5577 119
5578 23
5579 18
5580 51
5581 50
5582 21
5583 180
5584 177
5585 61
5586 71
5587 226
5588 18
5589 172
5590 119
5591 73
5592 146
5593 46
5594 60
5595 110
5596 180
5597 181
5598 124
5599 55
5600 178
5601 34
5602 79
5603 91
5604 111
5605 231
5606 100
5607 30
5608 39
5609 111
5610 87
5611 21
5612 175
5613 149
5614 18
5615 59
5616 132
5617 183
5618 71
5619 39
5620 155
5621 84
5622 25
5623 77
5624 35
5625 21
5626 26
5627 81
5628 106
5629 180
5630 102
5631 162
5632 95
5633 29
5634 155
5635 14
5636 75
5637 95
5638 39
5639 134
5640 60
5641 11
5642 100
5643 66
5644 5
5645 15
5646 55
5647 186
5648 6
5649 80
5650 91
5651 141
5652 153
5653 41
5654 5
5655 85
5656 135
5657 106
5658 161
5659 87
5660 65
5661 217
5662 172
5663 18
5664 109
5665 169
5666 115
5667 149
5668 80
5669 144
5670 54
5671 34
5672 94
5673 128
5674 206
5675 94
5676 206
5677 203
5678 41
5679 106
5680 171
5681 100
5682 62
5683 27
5684 47
5685 46
5686 118
5687 161
5688 39
5689 46
5690 81
5691 144
5692 150
5693 127
5694 53
5695 83
5696 129
5697 141
5698 57
5699 60
5700 161
5701 36
5702 25
5703 168
5704 3
5705 44
5706 83
5707 80
5708 23
5709 87
5710 171
5711 56
5712 41
5713 95
5714 69
5715 49
5716 172
5717 150
5718 53
5719 168
5720 102
5721 24
5722 124
5723 99
5724 97
5725 145
5726 116
5727 37
5728 18
5729 172
5730 61
5731 59
5732 18
5733 98
5734 41
5735 23
5736 122
5737 207
5738 196
5739 54
5740 70
5741 183
5742 40
5743 115
5744 56
5745 24
5746 73
5747 105
5748 19
5749 55
5750 8
5751 101
5752 145
5753 75
5754 171
5755 162
5756 39
5757 171
5758 122
5759 26
5760 33
5761 83
5762 109
5763 77
5764 165
5765 56
5766 144
5767 72
5768 204
5769 101
5770 75
5771 173
5772 21
5773 98
5774 128
5775 111
5776 76
5777 158
5778 167
5779 185
5780 54
5781 108
5782 21
5783 71
5784 122
5785 147
5786 104
5787 129
5788 225
5789 129
5790 164
5791 111
5792 38
5793 105
5794 138
5795 49
5796 217
5797 75
5798 36
5799 98
5800 111
5801 124
5802 15
5803 111
5804 37
5805 246
5806 51
5807 186
5808 11
5809 2
5810 129
5811 145
5812 111
5813 9
5814 161
5815 60
5816 125
5817 2
5818 118
5819 86
5820 14
5821 207
5822 14
5823 166
5824 65
5825 4
5826 14
5827 90
5828 75
5829 11
5830 99
5831 23
5832 56
5833 151
5834 71
5835 195
5836 108
5837 146
5838 124
5839 44
5840 34
5841 147
5842 5
5843 99
5844 195
5845 55
5846 74
5847 91
5848 37
5849 149
5850 14
5851 132
5852 86
5853 240
5854 50
5855 148
5856 25
5857 24
5858 108
5859 153
5860 50
5861 96
5862 153
5863 135
5864 37
5865 47
5866 100
5867 14
5868 95
5869 95
5870 25
5871 105
5872 130
5873 121
5874 62
5875 219
5876 30
5877 45
5878 88
5879 27
5880 105
5881 161
5882 160
5883 103
5884 56
5885 189
5886 133
5887 128
5888 8
5889 148
5890 148
5891 45
5892 139
5893 14
5894 145
5895 80
5896 172
5897 171
5898 62
5899 162
5900 145
5901 147
5902 79
5903 84
5904 128
5905 84
5906 25
5907 73
5908 124
5909 148
5910 45
5911 173
5912 21
5913 21
5914 37
5915 180
5916 98
5917 170
5918 22
5919 38
5920 5
5921 160
5922 62
5923 66
5924 25
5925 226
5926 128
5927 139
5928 84
5929 146
5930 54
5931 26
5932 230
5933 164
5934 161
5935 176
5936 190
5937 18
5938 92
5939 222
5940 129
5941 117
5942 59
5943 51
5944 71
5945 170
5946 155
5947 29
5948 2
5949 102
5950 117
5951 189
5952 26
5953 47
5954 180
5955 128
5956 59
5957 27
5958 132
5959 123
5960 88
5961 59
5962 88
5963 57
5964 104
5965 37
5966 161
5967 212
5968 2
5969 66
5970 39
5971 113
5972 99
5973 102
5974 117
5975 71
5976 162
5977 196
5978 59
5979 149
5980 107
5981 151
5982 149
5983 145
5984 147
5985 147
5986 93
5987 91
5988 76
5989 153
5990 86
5991 86
5992 100
5993 139
5994 173
5995 209
5996 25
5997 98
5998 59
5999 39
6000 102
6001 150
6002 76
6003 97
6004 30
6005 150
6006 84
6007 129
6008 85
6009 192
6010 117
6011 156
6012 51
6013 171
6014 168
6015 168
6016 78
6017 87
6018 167
6019 157
6020 170
6021 71
6022 89
6023 47
6024 111
6025 172
6026 70
6027 75
6028 190
6029 51
6030 90
6031 83
6032 124
6033 150
6034 21
6035 25
6036 219
6037 175
6038 61
6039 101
6040 160
6041 21
6042 128
6043 64
6044 169
6045 169
6046 119
6047 203
6048 130
6049 84
6050 141
6051 71
6052 71
6053 227
6054 220
6055 20
6056 150
6057 183
6058 146
6059 192
6060 64
6061 23
6062 122
6063 207
6064 25
6065 75
6066 109
6067 155
6068 170
6069 124
6070 111
6071 65
6072 61
6073 95
6074 151
6075 29
6076 145
6077 45
6078 117
6079 119
6080 119
6081 26
6082 173
6083 71
6084 150
6085 106
6086 148
6087 129
6088 24
6089 84
6090 111
6091 64
6092 175
6093 5
6094 129
6095 51
6096 50
6097 30
6098 124
6099 56
6100 124
6101 73
6102 55
6103 109
6104 117
6105 44
6106 102
6107 70
6108 44
6109 202
6110 176
6111 51
6112 45
6113 1
6114 106
6115 73
6116 117
6117 151
6118 196
6119 44
6120 193
6121 97
6122 36
6123 107
6124 134
6125 93
6126 87
6127 145
6128 138
6129 73
6130 138
6131 55
6132 128
6133 60
6134 80
6135 77
6136 11
6137 163
6138 51
6139 145
6140 148
6141 84
6142 160
6143 21
6144 155
6145 91
6146 44
6147 126
6148 90
6149 96
6150 155
6151 91
6152 87
6153 18
6154 134
6155 119
6156 14
6157 171
6158 201
6159 124
6160 2
6161 148
6162 26
6163 82
6164 73
6165 8
6166 12
6167 157
6168 18
6169 149
6170 1
6171 144
6172 56
6173 75
6174 134
6175 87
6176 164
6177 161
6178 25
6179 16
6180 83
6181 66
6182 150
6183 96
6184 108
6185 171
6186 212
6187 55
6188 83
6189 160
6190 14
6191 58
6192 36
6193 111
6194 147
6195 39
6196 81
6197 81
6198 8
6199 47
6200 34
6201 129
6202 88
6203 63
6204 162
6205 34
6206 98
6207 180
6208 144
6209 27
6210 0
6211 98
6212 91
6213 80
6214 87
6215 145
6216 75
6217 22
6218 171
6219 163
6220 80
6221 4
6222 87
6223 57
6224 95
6225 120
6226 219
6227 80
6228 22
6229 117
6230 66
6231 171
6232 30
6233 10
6234 202
6235 33
6236 77
6237 98
6238 2
6239 51
6240 109
6241 166
6242 66
6243 37
6244 36
6245 95
6246 72
6247 155
6248 34
6249 173
6250 133
6251 107
6252 8
6253 36
6254 176
6255 27
6256 73
6257 171
6258 160
6259 96
6260 95
6261 19
6262 192
6263 117
6264 69
6265 19
6266 97
6267 88
6268 173
6269 170
6270 102
6271 16
6272 39
6273 108
6274 71
6275 39
6276 146
6277 81
6278 95
6279 227
6280 33
6281 156
6282 229
6283 247
6284 135
6285 155
6286 129
6287 23
6288 70
6289 129
6290 97
6291 157
6292 229
6293 75
6294 71
6295 248
6296 51
6297 151
6298 122
6299 176
6300 18
6301 145
6302 54
6303 111
6304 181
6305 98
6306 37
6307 106
6308 108
6309 111
6310 141
6311 211
6312 209
6313 124
6314 45
6315 146
6316 130
6317 109
6318 83
6319 37
6320 18
6321 105
6322 99
6323 24
6324 198
6325 111
6326 236
6327 108
6328 161
6329 47
6330 4
6331 132
6332 135
6333 18
6334 35
6335 77
6336 11
6337 123
6338 139
6339 149
6340 99
6341 53
6342 132
6343 234
6344 83
6345 177
6346 86
6347 80
6348 37
6349 44
6350 111
6351 147
6352 37
6353 32
6354 25
6355 93
6356 165
6357 61
6358 132
6359 144
6360 44
6361 155
6362 29
6363 146
6364 147
6365 117
6366 176
6367 36
6368 153
6369 19
6370 123
6371 51
6372 69
6373 101
6374 173
6375 132
6376 79
6377 80
6378 21
6379 135
6380 155
6381 112
6382 198
6383 14
6384 69
6385 18
6386 106
6387 84
6388 56
6389 87
6390 81
6391 171
6392 165
6393 95
6394 99
6395 142
6396 71
6397 87
6398 147
6399 91
6400 59
6401 178
6402 165
6403 175
6404 94
6405 95
6406 128
6407 124
6408 88
6409 148
6410 111
6411 175
6412 75
6413 147
6414 117
6415 193
6416 210
6417 98
6418 150
6419 193
6420 14
6421 158
6422 146
6423 121
6424 161
6425 128
6426 110
6427 70
6428 170
6429 126
6430 211
6431 111
6432 28
6433 132
6434 160
6435 87
6436 28
6437 26
6438 102
6439 25
6440 170
6441 6
6442 111
6443 37
6444 80
6445 129
6446 161
6447 130
6448 201
6449 25
6450 132
6451 151
6452 124
6453 2
6454 21
6455 228
6456 59
6457 180
6458 180
6459 39
6460 27
6461 23
6462 21
6463 111
6464 147
6465 175
6466 147
6467 174
6468 14
6469 77
6470 129
6471 117
6472 80
6473 21
6474 113
6475 26
6476 192
6477 101
6478 135
6479 146
6480 73
6481 192
6482 4
6483 59
6484 98
6485 199
6486 19
6487 148
6488 18
6489 17
6490 111
6491 144
6492 41
6493 172
6494 168
6495 57
6496 161
6497 26
6498 4
6499 132
6500 85
6501 75
6502 139
6503 37
6504 27
6505 109
6506 183
6507 80
6508 128
6509 16
6510 21
6511 44
6512 132
6513 149
6514 113
6515 14
6516 149
6517 14
6518 95
6519 79
6520 47
6521 179
6522 151
6523 51
6524 59
6525 26
6526 215
6527 21
6528 117
6529 19
6530 99
6531 6
6532 83
6533 100
6534 150
6535 71
6536 117
6537 146
6538 14
6539 3
6540 179
6541 84
6542 51
6543 132
6544 25
6545 156
6546 28
6547 119
6548 18
6549 99
6550 143
6551 9
6552 141
6553 145
6554 2
6555 152
6556 119
6557 236
6558 119
6559 230
6560 118
6561 41
6562 201
6563 24
6564 70
6565 124
6566 180
6567 162
6568 151
6569 174
6570 179
6571 190
6572 132
6573 18
6574 131
6575 128
6576 55
6577 199
6578 86
6579 52
6580 124
6581 145
6582 18
6583 58
6584 151
6585 91
6586 19
6587 168
6588 34
6589 61
6590 42
6591 169
6592 124
6593 151
6594 25
6595 61
6596 146
6597 93
6598 193
6599 75
6600 37
6601 84
6602 75
6603 132
6604 15
6605 86
6606 34
6607 149
6608 53
6609 18
6610 75
6611 84
6612 99
6613 146
6614 145
6615 37
6616 95
6617 147
6618 151
6619 55
6620 37
6621 151
6622 44
6623 75
6624 168
6625 44
6626 42
6627 114
6628 173
6629 180
6630 155
6631 93
6632 71
6633 73
6634 51
6635 132
6636 80
6637 97
6638 95
6639 95
6640 34
6641 99
6642 25
6643 222
6644 163
6645 109
6646 62
6647 96
6648 87
6649 188
6650 170
6651 155
6652 39
6653 63
6654 56
6655 102
6656 61
6657 39
6658 93
6659 32
6660 217
6661 141
6662 39
6663 161
6664 150
6665 25
6666 80
6667 51
6668 104
6669 66
6670 73
6671 54
6672 25
6673 170
6674 172
6675 108
6676 39
6677 214
6678 206
6679 118
6680 193
6681 180
6682 117
6683 169
6684 73
6685 105
6686 51
6687 41
6688 129
6689 57
6690 149
6691 156
6692 213
6693 155
6694 93
6695 44
6696 7
6697 192
6698 131
6699 86
6700 156
6701 61
6702 87
6703 41
6704 77
6705 192
6706 87
6707 26
6708 151
6709 8
6710 28
6711 214
6712 23
6713 153
6714 41
6715 149
6716 179
6717 122
6718 36
6719 3
6720 57
6721 122
6722 71
6723 109
6724 9
6725 158
6726 80
6727 24
6728 145
6729 118
6730 162
6731 116
6732 40
6733 199
6734 18
6735 91
6736 22
6737 109
6738 66
6739 150
6740 63
6741 173
6742 36
6743 0
6744 152
6745 15
6746 34
6747 56
6748 7
6749 8
6750 59
6751 71
6752 128
6753 5
6754 47
6755 134
6756 69
6757 151
6758 32
6759 95
6760 59
6761 126
6762 56
6763 151
6764 46
6765 128
6766 183
6767 102
6768 21
6769 113
6770 98
6771 99
6772 106
6773 23
6774 190
6775 41
6776 193
6777 53
6778 98
6779 53
6780 2
6781 87
6782 23
6783 48
6784 59
6785 108
6786 75
6787 18
6788 169
6789 41
6790 69
6791 101
6792 146
6793 33
6794 173
6795 45
6796 145
6797 72
6798 71
6799 81
6800 173
6801 75
6802 101
6803 72
6804 51
6805 70
6806 8
6807 21
6808 99
6809 171
6810 173
6811 21
6812 146
6813 75
6814 30
6815 2
6816 183
6817 112
6818 29
6819 30
6820 134
6821 23
6822 98
6823 67
6824 88
6825 60
6826 14
6827 14
6828 224
6829 71
6830 45
6831 37
6832 178
6833 81
6834 37
6835 171
6836 161
6837 145
6838 96
6839 119
6840 44
6841 18
6842 160
6843 51
6844 205
6845 70
6846 72
6847 141
6848 176
6849 45
6850 193
6851 146
6852 216
6853 111
6854 23
6855 60
6856 150
6857 146
6858 22
6859 22
6860 44
6861 65
6862 173
6863 150
6864 74
6865 67
6866 50
6867 115
6868 96
6869 124
6870 29
6871 201
6872 14
6873 19
6874 75
6875 51
6876 25
6877 44
6878 13
6879 175
6880 173
6881 78
6882 71
6883 48
6884 84
6885 44
6886 2
6887 163
6888 24
6889 96
6890 240
6891 116
6892 84
6893 24
6894 122
6895 198
6896 157
6897 175
6898 160
6899 119
6900 84
6901 91
6902 46
6903 175
6904 42
6905 85
6906 172
6907 105
6908 188
6909 144
6910 36
6911 37
6912 161
6913 59
6914 147
6915 71
6916 120
6917 71
6918 144
6919 84
6920 111
6921 180
6922 170
6923 45
6924 7
6925 25
6926 97
6927 188
6928 109
6929 42
6930 55
6931 98
6932 174
6933 224
6934 174
6935 106
6936 26
6937 199
6938 14
6939 174
6940 180
6941 162
6942 176
6943 80
6944 109
6945 66
6946 55
6947 8
6948 59
6949 62
6950 118
6951 39
6952 173
6953 151
6954 95
6955 170
6956 176
6957 59
6958 25
6959 95
6960 25
6961 101
6962 34
6963 129
6964 122
6965 21
6966 234
6967 203
6968 95
6969 122
6970 173
6971 149
6972 123
6973 41
6974 26
6975 42
6976 47
6977 25
6978 151
6979 59
6980 81
6981 56
6982 129
6983 95
6984 145
6985 56
6986 19
6987 26
6988 21
6989 111
6990 76
6991 194
6992 25
6993 129
6994 81
6995 59
6996 59
6997 51
6998 147
6999 104
7000 70
7001 132
7002 119
7003 34
7004 173
7005 99
7006 132
7007 173
7008 148
7009 111
7010 147
7011 148
7012 176
7013 172
7014 51
7015 180
7016 181
7017 185
7018 153
7019 150
7020 27
7021 76
7022 146
7023 172
7024 41
7025 104
7026 170
7027 14
7028 150
7029 73
7030 180
7031 21
7032 91
7033 47
7034 28
7035 180
7036 71
7037 180
7038 24
7039 37
7040 145
7041 145
7042 84
7043 167
7044 96
7045 111
7046 59
7047 99
7048 173
7049 54
7050 180
7051 170
7052 10
7053 104
7054 31
7055 16
7056 21
7057 148
7058 180
7059 185
7060 105
7061 205
7062 230
7063 162
7064 42
7065 146
7066 80
7067 249
7068 132
7069 23
7070 151
7071 192
7072 113
7073 45
7074 57
7075 99
7076 71
7077 59
7078 28
7079 145
7080 109
7081 14
7082 71
7083 21
7084 32
7085 240
7086 122
7087 125
7088 23
7089 84
7090 98
7091 95
7092 42
7093 84
7094 23
7095 147
7096 128
7097 84
7098 155
7099 23
7100 151
7101 45
7102 117
7103 26
7104 105
7105 141
7106 205
7107 1
7108 61
7109 180
7110 105
7111 139
7112 59
7113 41
7114 193
7115 129
7116 37
7117 150
7118 18
7119 119
7120 111
7121 186
7122 30
7123 61
7124 250
7125 97
7126 81
7127 176
7128 73
7129 186
7130 188
7131 72
7132 148
7133 172
7134 73
7135 21
7136 128
7137 132
7138 99
7139 95
7140 23
7141 132
7142 55
7143 73
7144 95
7145 117
7146 46
7147 25
7148 119
7149 135
7150 146
7151 172
7152 141
7153 156
7154 14
7155 93
7156 36
7157 22
7158 161
7159 66
7160 151
7161 102
7162 39
7163 172
7164 132
7165 60
7166 22
7167 91
7168 111
7169 39
7170 154
7171 106
7172 236
7173 137
7174 103
7175 17
7176 160
7177 54
7178 121
7179 39
7180 52
7181 76
7182 7
7183 101
7184 178
7185 42
7186 155
7187 66
7188 75
7189 139
7190 25
7191 150
7192 147
7193 161
7194 46
7195 16
7196 162
7197 206
7198 5
7199 118
7200 109
7201 23
7202 50
7203 90
7204 29
7205 75
7206 70
7207 86
7208 18
7209 65
7210 57
7211 192
7212 175
7213 36
7214 5
7215 35
7216 172
7217 27
7218 87
7219 18
7220 189
7221 124
7222 19
7223 7
7224 29
7225 44
7226 118
7227 67
7228 153
7229 111
7230 129
7231 20
7232 128
7233 56
7234 135
7235 150
7236 171
7237 161
7238 158
7239 50
7240 158
7241 140
7242 177
7243 167
7244 71
7245 56
7246 132
7247 120
7248 161
7249 67
7250 114
7251 131
7252 129
7253 26
7254 4
7255 0
7256 98
7257 146
7258 169
7259 146
7260 47
7261 31
7262 173
7263 75
7264 168
7265 34
7266 153
7267 185
7268 60
7269 8
7270 25
7271 98
7272 106
7273 204
7274 28
7275 150
7276 53
7277 142
7278 173
7279 192
7280 213
7281 144
7282 42
7283 79
7284 70
7285 26
7286 4
7287 21
7288 160
7289 78
7290 160
7291 70
7292 73
7293 212
7294 41
7295 42
7296 146
7297 72
7298 166
7299 170
7300 21
7301 145
7302 166
7303 173
7304 99
7305 96
7306 71
7307 2
7308 75
7309 75
7310 146
7311 28
7312 73
7313 45
7314 45
7315 50
7316 145
7317 105
7318 185
7319 33
7320 83
7321 171
7322 173
7323 156
7324 51
7325 108
7326 122
7327 55
7328 133
7329 96
7330 122
7331 83
7332 41
7333 158
7334 44
7335 197
7336 21
7337 123
7338 160
7339 35
7340 11
7341 75
7342 97
7343 128
7344 35
7345 41
7346 71
7347 173
7348 90
7349 128
7350 21
7351 210
7352 22
7353 136
7354 124
7355 155
7356 85
7357 71
7358 61
7359 83
7360 93
7361 37
7362 84
7363 14
7364 40
7365 110
7366 47
7367 153
7368 19
7369 117
7370 118
7371 25
7372 25
7373 188
7374 95
7375 53
7376 81
7377 175
7378 50
7379 93
7380 20
7381 177
7382 41
7383 160
7384 87
7385 25
7386 93
7387 65
7388 200
7389 124
7390 167
7391 86
7392 99
7393 124
7394 45
7395 188
7396 83
7397 59
7398 147
7399 26
7400 232
7401 166
7402 45
7403 240
7404 166
7405 231
7406 97
7407 27
7408 95
7409 24
7410 95
7411 20
7412 151
7413 119
7414 180
7415 99
7416 126
7417 76
7418 173
7419 159
7420 188
7421 18
7422 50
7423 111
7424 14
7425 175
7426 2
7427 21
7428 45
7429 8
7430 185
7431 95
7432 21
7433 27
7434 99
7435 25
7436 146
7437 18
7438 175
7439 122
7440 30
7441 73
7442 98
7443 111
7444 210
7445 120
7446 193
7447 50
7448 147
7449 122
7450 148
7451 129
7452 195
7453 8
7454 109
7455 71
7456 134
7457 65
7458 111
7459 74
7460 172
7461 7
7462 217
7463 157
7464 59
7465 109
7466 25
7467 129
7468 111
7469 118
7470 179
7471 21
7472 98
7473 14
7474 45
7475 72
7476 91
7477 55
7478 25
7479 128
7480 26
7481 7
7482 45
7483 7
7484 104
7485 122
7486 62
7487 79
7488 71
7489 93
7490 200
7491 68
7492 149
7493 21
7494 151
7495 56
7496 213
7497 170
7498 26
7499 146
7500 132
7501 162
7502 170
7503 36
7504 128
7505 34
7506 111
7507 172
7508 113
7509 170
7510 122
7511 59
7512 80
7513 147
7514 61
7515 123
7516 47
7517 49
7518 118
7519 7
7520 70
7521 180
7522 154
7523 104
7524 149
7525 29
7526 72
7527 44
7528 155
7529 132
7530 98
7531 192
7532 80
7533 86
7534 9
7535 45
7536 222
7537 97
7538 173
7539 169
7540 148
7541 95
7542 61
7543 104
7544 142
7545 71
7546 129
7547 21
7548 165
7549 101
7550 122
7551 180
7552 45
7553 84
7554 109
7555 59
7556 122
7557 55
7558 91
7559 104
7560 170
7561 104
7562 14
7563 180
7564 59
7565 71
7566 51
7567 98
7568 125
7569 95
7570 80
7571 14
7572 75
7573 51
7574 173
7575 175
7576 145
7577 109
7578 215
7579 162
7580 19
7581 146
7582 206
7583 45
7584 132
7585 150
7586 119
7587 170
7588 130
7589 91
7590 99
7591 109
7592 4
7593 160
7594 99
7595 132
7596 151
7597 23
7598 133
7599 172
7600 96
7601 106
7602 71
7603 150
7604 129
7605 61
7606 51
7607 23
7608 44
7609 109
7610 34
7611 31
7612 66
7613 51
7614 4
7615 86
7616 37
7617 140
7618 76
7619 106
7620 148
7621 61
7622 155
7623 86
7624 122
7625 55
7626 25
7627 146
7628 146
7629 84
7630 148
7631 156
7632 146
7633 172
7634 37
7635 173
7636 128
7637 160
7638 153
7639 37
7640 173
7641 106
7642 59
7643 72
7644 56
7645 44
7646 109
7647 117
7648 167
7649 41
7650 109
7651 93
7652 37
7653 147
7654 26
7655 138
7656 84
7657 137
7658 73
7659 134
7660 59
7661 75
7662 129
7663 34
7664 41
7665 155
7666 21
7667 147
7668 111
7669 104
7670 92
7671 146
7672 106
7673 117
7674 98
7675 56
7676 14
7677 7
7678 45
7679 95
7680 200
7681 167
7682 162
7683 59
7684 51
7685 20
7686 23
7687 2
7688 99
7689 50
7690 41
7691 84
7692 228
7693 44
7694 88
7695 153
7696 228
7697 149
7698 25
7699 160
7700 178
7701 168
7702 147
7703 183
7704 171
7705 50
7706 231
7707 7
7708 66
7709 77
7710 91
7711 68
7712 57
7713 98
7714 183
7715 66
7716 34
7717 157
7718 26
7719 251
7720 88
7721 93
7722 109
7723 170
7724 26
7725 80
7726 171
7727 59
7728 39
7729 153
7730 161
7731 109
7732 45
7733 164
7734 117
7735 79
7736 90
7737 174
7738 29
7739 4
7740 73
7741 21
7742 220
7743 109
7744 231
7745 161
7746 82
7747 110
7748 14
7749 137
7750 76
7751 150
7752 113
7753 118
7754 66
7755 121
7756 87
7757 168
7758 116
7759 150
7760 53
7761 151
7762 102
7763 153
7764 2
7765 145
7766 124
7767 183
7768 161
7769 155
7770 30
7771 48
7772 149
7773 19
7774 61
7775 155
7776 144
7777 168
7778 129
7779 102
7780 25
7781 32
7782 34
7783 210
7784 26
7785 90
7786 51
7787 231
7788 54
7789 5
7790 123
7791 75
7792 98
7793 123
7794 51
7795 120
7796 87
7797 133
7798 188
7799 30
7800 61
7801 16
7802 32
7803 26
7804 61
7805 97
7806 68
7807 80
7808 45
7809 118
7810 177
7811 91
7812 66
7813 61
7814 62
7815 74
7816 139
7817 159
7818 137
7819 122
7820 55
7821 13
7822 47
7823 211
7824 162
7825 75
7826 146
7827 71
7828 14
7829 41
7830 18
7831 75
7832 132
7833 171
7834 180
7835 68
7836 56
7837 126
7838 108
7839 126
7840 187
7841 98
7842 43
7843 49
7844 157
7845 23
7846 80
7847 99
7848 151
7849 178
7850 117
7851 111
7852 56
7853 2
7854 155
7855 98
7856 99
7857 111
7858 169
7859 147
7860 128
7861 96
7862 107
7863 109
7864 146
7865 14
7866 113
7867 130
7868 53
7869 109
7870 145
7871 120
7872 130
7873 189
7874 147
7875 119
7876 37
7877 147
7878 168
7879 129
7880 84
7881 126
7882 40
7883 128
7884 236
7885 37
7886 173
7887 23
7888 132
7889 132
7890 145
7891 214
7892 55
7893 96
7894 173
7895 226
7896 146
7897 232
7898 51
7899 230
7900 91
7901 2
7902 127
7903 46
7904 70
7905 117
7906 175
7907 152
7908 25
7909 46
7910 77
7911 185
7912 70
7913 148
7914 46
7915 93
7916 199
7917 145
7918 103
7919 174
7920 40
7921 63
7922 42
7923 132
7924 100
7925 27
7926 215
7927 75
7928 59
7929 71
7930 50
7931 134
7932 51
7933 95
7934 178
7935 137
7936 135
7937 208
7938 25
7939 173
7940 132
7941 63
7942 27
7943 106
7944 144
7945 185
7946 204
7947 71
7948 70
7949 99
7950 121
7951 145
7952 161
7953 155
7954 124
7955 180
7956 129
7957 158
7958 100
7959 147
7960 44
7961 104
7962 57
7963 96
7964 5
7965 87
7966 96
7967 100
7968 111
7969 151
7970 14
7971 56
7972 161
7973 200
7974 193
7975 113
7976 173
7977 132
7978 208
7979 54
7980 41
7981 150
7982 190
7983 84
7984 137
7985 175
7986 42
7987 37
7988 56
7989 32
7990 112
7991 149
7992 175
7993 180
7994 104
7995 24
7996 129
7997 41
7998 4
7999 109
8000 144
8001 5
8002 79
8003 73
8004 66
8005 99
8006 26
8007 91
8008 70
8009 145
8010 20
8011 196
8012 26
8013 148
8014 146
8015 172
8016 108
8017 170
8018 21
8019 193
8020 54
8021 109
8022 122
8023 170
8024 147
8025 123
8026 151
8027 84
8028 70
8029 104
8030 120
8031 150
8032 151
8033 29
8034 122
8035 108
8036 108
8037 180
8038 33
8039 25
8040 105
8041 122
8042 132
8043 201
8044 26
8045 91
8046 138
8047 181
8048 231
8049 37
8050 82
8051 80
8052 147
8053 146
8054 180
8055 25
8056 159
8057 103
8058 13
8059 137
8060 98
8061 75
8062 188
8063 131
8064 95
8065 99
8066 170
8067 98
8068 109
8069 84
8070 84
8071 25
8072 40
8073 87
8074 80
8075 172
8076 203
8077 14
8078 46
8079 84
8080 173
8081 51
8082 104
8083 56
8084 168
8085 105
8086 176
8087 59
8088 47
8089 240
8090 151
8091 95
8092 103
8093 64
8094 61
8095 67
8096 162
8097 9
8098 32
8099 160
8100 170
8101 37
8102 80
8103 99
8104 25
8105 14
8106 129
8107 59
8108 25
8109 119
8110 136
8111 121
8112 85
8113 149
8114 111
8115 150
8116 157
8117 75
8118 118
8119 153
8120 116
8121 45
8122 109
8123 173
8124 200
8125 104
8126 14
8127 51
8128 175
8129 139
8130 78
8131 109
8132 23
8133 59
8134 189
8135 163
8136 71
8137 155
8138 116
8139 26
8140 45
8141 98
8142 150
8143 19
8144 132
8145 151
8146 224
8147 117
8148 21
8149 154
8150 51
8151 122
8152 131
8153 57
8154 25
8155 132
8156 180
8157 26
8158 122
8159 118
8160 60
8161 79
8162 26
8163 23
8164 99
8165 80
8166 46
8167 26
8168 32
8169 99
8170 21
8171 100
8172 148
8173 37
8174 148
8175 214
8176 26
8177 71
8178 73
8179 79
8180 109
8181 198
8182 21
8183 82
8184 109
8185 171
8186 73
8187 144
8188 109
8189 55
8190 150
8191 97
8192 98
8193 45
8194 133
8195 144
8196 96
8197 87
8198 133
8199 25
8200 18
8201 44
8202 216
8203 123
8204 88
8205 150
8206 172
8207 88
8208 73
8209 150
8210 139
8211 117
8212 162
8213 40
8214 5
8215 159
8216 39
8217 1
8218 24
8219 172
8220 118
8221 39
8222 130
8223 50
8224 234
8225 100
8226 152
8227 51
8228 57
8229 133
8230 29
8231 226
8232 101
8233 62
8234 61
8235 59
8236 150
8237 153
8238 15
8239 169
8240 160
8241 149
8242 4
8243 59
8244 98
8245 158
8246 26
8247 169
8248 72
8249 34
8250 175
8251 135
8252 155
8253 171
8254 102
8255 188
8256 166
8257 8
8258 111
8259 172
8260 151
8261 150
8262 177
8263 196
8264 71
8265 79
8266 60
8267 234
8268 47
8269 123
8270 46
8271 109
8272 166
8273 51
8274 149
8275 145
8276 22
8277 44
8278 142
8279 18
8280 24
8281 37
8282 37
8283 51
8284 39
8285 37
8286 169
8287 158
8288 19
8289 102
8290 24
8291 132
8292 117
8293 34
8294 160
8295 145
8296 185
8297 154
8298 160
8299 172
8300 42
8301 148
8302 169
8303 97
8304 129
8305 60
8306 70
8307 137
8308 236
8309 129
8310 16
8311 143
8312 122
8313 39
8314 36
8315 5
8316 150
8317 10
8318 166
8319 98
8320 151
8321 71
8322 61
8323 98
8324 214
8325 47
8326 146
8327 87
8328 146
8329 130
8330 145
8331 37
8332 113
8333 4
8334 89
8335 45
8336 134
8337 129
8338 71
8339 81
8340 78
8341 146
8342 219
8343 196
8344 28
8345 96
8346 51
8347 97
8348 25
8349 159
8350 88
8351 91
8352 14
8353 50
8354 71
8355 160
8356 166
8357 105
8358 99
8359 162
8360 81
8361 146
8362 26
8363 36
8364 173
8365 95
8366 88
8367 106
8368 86
8369 149
8370 39
8371 62
8372 126
8373 18
8374 21
8375 173
8376 27
8377 107
8378 164
8379 91
8380 138
8381 42
8382 123
8383 149
8384 150
8385 0
8386 110
8387 121
8388 132
8389 87
8390 4
8391 124
8392 222
8393 99
8394 47
8395 91
8396 136
8397 140
8398 169
8399 36
8400 110
8401 203
8402 138
8403 111
8404 21
8405 35
8406 36
8407 146
8408 93
8409 23
8410 98
8411 188
8412 153
8413 91
8414 143
8415 148
8416 9
8417 197
8418 180
8419 134
8420 124
8421 151
8422 44
8423 37
8424 39
8425 144
8426 27
8427 90
8428 84
8429 93
8430 73
8431 39
8432 172
8433 122
8434 50
8435 148
8436 44
8437 198
8438 112
8439 22
8440 183
8441 8
8442 126
8443 79
8444 179
8445 122
8446 124
8447 98
8448 172
8449 50
8450 25
8451 145
8452 102
8453 99
8454 99
8455 59
8456 122
8457 18
8458 84
8459 111
8460 162
8461 100
8462 62
8463 180
8464 98
8465 173
8466 66
8467 21
8468 86
8469 146
8470 79
8471 61
8472 148
8473 172
8474 157
8475 149
8476 75
8477 5
8478 44
8479 158
8480 14
8481 109
8482 10
8483 122
8484 118
8485 98
8486 173
8487 36
8488 71
8489 73
8490 98
8491 211
8492 113
8493 71
8494 158
8495 150
8496 84
8497 73
8498 157
8499 123
8500 105
8501 80
8502 59
8503 15
8504 54
8505 37
8506 153
8507 55
8508 45
8509 25
8510 145
8511 123
8512 34
8513 236
8514 45
8515 135
8516 148
8517 26
8518 17
8519 122
8520 91
8521 146
8522 55
8523 111
8524 175
8525 109
8526 17
8527 98
8528 98
8529 70
8530 150
8531 76
8532 122
8533 175
8534 109
8535 45
8536 7
8537 14
8538 150
8539 150
8540 168
8541 108
8542 175
8543 192
8544 149
8545 185
8546 21
8547 21
8548 153
8549 59
8550 8
8551 86
8552 180
8553 54
8554 16
8555 140
8556 41
8557 26
8558 122
8559 45
8560 113
8561 47
8562 109
8563 80
8564 92
8565 104
8566 4
8567 185
8568 213
8569 36
8570 197
8571 36
8572 14
8573 104
8574 33
8575 84
8576 51
8577 93
8578 35
8579 39
8580 37
8581 101
8582 101
8583 39
8584 25
8585 145
8586 14
8587 129
8588 8
8589 45
8590 95
8591 18
8592 146
8593 147
8594 149
8595 71
8596 21
8597 117
8598 73
8599 180
8600 91
8601 150
8602 45
8603 51
8604 10
8605 150
8606 125
8607 109
8608 14
8609 180
8610 132
8611 150
8612 55
8613 45
8614 132
8615 14
8616 129
8617 14
8618 201
8619 23
8620 109
8621 89
8622 45
8623 59
8624 146
8625 80
8626 120
8627 23
8628 99
8629 104
8630 210
8631 117
8632 146
8633 80
8634 104
8635 37
8636 99
8637 14
8638 179
8639 21
8640 147
8641 148
8642 55
8643 59
8644 111
8645 173
8646 150
8647 37
8648 153
8649 47
8650 87
8651 75
8652 106
8653 122
8654 51
8655 73
8656 105
8657 175
8658 151
8659 91
8660 44
8661 236
8662 95
8663 109
8664 145
8665 213
8666 73
8667 96
8668 73
8669 59
8670 73
8671 164
8672 197
8673 75
8674 99
8675 175
8676 85
8677 73
8678 169
8679 99
8680 193
8681 1
8682 193
8683 95
8684 132
8685 144
8686 159
8687 48
8688 95
8689 24
8690 57
8691 3
8692 88
8693 24
8694 44
8695 199
8696 44
8697 75
8698 180
8699 81
8700 45
8701 188
8702 80
8703 55
8704 172
8705 185
8706 23
8707 150
8708 104
8709 87
8710 41
8711 190
8712 75
8713 37
8714 121
8715 142
8716 165
8717 39
8718 203
8719 134
8720 41
8721 104
8722 119
8723 3
8724 75
8725 124
8726 224
8727 150
8728 73
8729 128
8730 111
8731 38
8732 22
8733 75
8734 125
8735 161
8736 42
8737 22
8738 7
8739 124
8740 113
8741 100
8742 234
8743 72
8744 61
8745 116
8746 1
8747 9
8748 44
8749 34
8750 29
8751 34
8752 113
8753 150
8754 117
8755 119
8756 149
8757 68
8758 144
8759 46
8760 7
8761 18
8762 102
8763 122
8764 65
8765 129
8766 109
8767 18
8768 71
8769 134
8770 129
8771 173
8772 197
8773 129
8774 129
8775 1
8776 161
8777 110
8778 65
8779 134
8780 141
8781 187
8782 18
8783 213
8784 122
8785 34
8786 105
8787 0
8788 88
8789 84
8790 134
8791 76
8792 146
8793 81
8794 86
8795 174
8796 109
8797 27
8798 190
8799 43
8800 26
8801 55
8802 76
8803 81
8804 172
8805 149
8806 43
8807 240
8808 129
8809 21
8810 118
8811 180
8812 41
8813 118
8814 98
8815 106
8816 222
8817 122
8818 7
8819 109
8820 167
8821 16
8822 219
8823 80
8824 173
8825 185
8826 146
8827 36
8828 109
8829 57
8830 166
8831 55
8832 90
8833 30
8834 166
8835 77
8836 10
8837 4
8838 173
8839 217
8840 158
8841 73
8842 186
8843 168
8844 85
8845 87
8846 71
8847 154
8848 166
8849 111
8850 225
8851 173
8852 59
8853 173
8854 87
8855 137
8856 66
8857 173
8858 2
8859 45
8860 193
8861 99
8862 37
8863 7
8864 148
8865 24
8866 111
8867 173
8868 164
8869 146
8870 35
8871 41
8872 21
8873 148
8874 129
8875 128
8876 64
8877 176
8878 170
8879 168
8880 240
8881 161
8882 170
8883 170
8884 173
8885 2
8886 7
8887 228
8888 99
8889 169
8890 220
8891 63
8892 129
8893 147
8894 14
8895 123
8896 27
8897 148
8898 111
8899 71
8900 140
8901 132
8902 139
8903 88
8904 157
8905 101
8906 122
8907 111
8908 171
8909 132
8910 148
8911 109
8912 87
8913 144
8914 153
8915 178
8916 80
8917 168
8918 220
8919 25
8920 49
8921 129
8922 215
8923 77
8924 172
8925 103
8926 36
8927 73
8928 84
8929 81
8930 154
8931 37
8932 60
8933 128
8934 67
8935 100
8936 147
8937 86
8938 144
8939 201
8940 120
8941 84
8942 175
8943 178
8944 71
8945 132
8946 168
8947 105
8948 114
8949 163
8950 70
8951 70
8952 180
8953 87
8954 150
8955 1
8956 50
8957 21
8958 134
8959 54
8960 25
8961 192
8962 132
8963 147
8964 39
8965 29
8966 8
8967 85
8968 153
8969 150
8970 8
8971 130
8972 21
8973 80
8974 172
8975 170
8976 39
8977 5
8978 39
8979 197
8980 14
8981 95
8982 18
8983 109
8984 147
8985 64
8986 28
8987 2
8988 176
8989 149
8990 73
8991 104
8992 53
8993 120
8994 175
8995 145
8996 57
8997 234
8998 180
8999 162
9000 118
9001 93
9002 162
9003 122
9004 62
9005 59
9006 59
9007 171
9008 10
9009 117
9010 149
9011 109
9012 146
9013 109
9014 196
9015 157
9016 180
9017 123
9018 71
9019 80
9020 50
9021 169
9022 81
9023 171
9024 172
9025 80
9026 25
9027 104
9028 175
9029 122
9030 57
9031 77
9032 128
9033 110
9034 76
9035 21
9036 80
9037 109
9038 106
9039 146
9040 99
9041 180
9042 57
9043 122
9044 19
9045 59
9046 41
9047 93
9048 71
9049 46
9050 192
9051 111
9052 151
9053 148
9054 21
9055 122
9056 84
9057 21
9058 85
9059 104
9060 37
9061 9
9062 100
9063 7
9064 160
9065 19
9066 47
9067 178
9068 26
9069 148
9070 56
9071 147
9072 149
9073 84
9074 166
9075 41
9076 148
9077 69
9078 122
9079 51
9080 39
9081 62
9082 41
9083 72
9084 45
9085 128
9086 104
9087 129
9088 109
9089 178
9090 75
9091 59
9092 175
9093 170
9094 173
9095 182
9096 189
9097 172
9098 129
9099 34
9100 55
9101 34
9102 76
9103 51
9104 104
9105 252
9106 172
9107 99
9108 80
9109 41
9110 174
9111 80
9112 27
9113 43
9114 150
9115 64
9116 175
9117 129
9118 95
9119 23
9120 91
9121 18
9122 167
9123 84
9124 173
9125 146
9126 129
9127 172
9128 99
9129 71
9130 110
9131 64
9132 98
9133 173
9134 128
9135 124
9136 18
9137 150
9138 2
9139 155
9140 91
9141 62
9142 136
9143 119
9144 189
9145 19
9146 11
9147 23
9148 104
9149 98
9150 18
9151 99
9152 104
9153 84
9154 188
9155 25
9156 151
9157 44
9158 44
9159 132
9160 101
9161 99
9162 55
9163 153
9164 37
9165 105
9166 117
9167 180
9168 128
9169 111
9170 89
9171 87
9172 14
9173 25
9174 102
9175 173
9176 61
9177 192
9178 25
9179 75
9180 14
9181 120
9182 177
9183 138
9184 41
9185 59
9186 226
9187 46
9188 147
9189 21
9190 124
9191 68
9192 173
9193 84
9194 111
9195 63
9196 153
9197 150
9198 129
9199 137
9200 128
9201 53
9202 44
9203 46
9204 180
9205 145
9206 6
9207 62
9208 75
9209 71
9210 75
9211 163
9212 27
9213 33
9214 75
9215 45
9216 100
9217 46
9218 116
9219 50
9220 98
9221 27
9222 83
9223 14
9224 213
9225 105
9226 100
9227 18
9228 5
9229 28
9230 153
9231 18
9232 14
9233 129
9234 106
9235 193
9236 90
9237 5
9238 56
9239 46
9240 41
9241 75
9242 253
9243 123
9244 66
9245 44
9246 129
9247 115
9248 172
9249 28
9250 175
9251 66
9252 101
9253 111
9254 118
9255 157
9256 79
9257 146
9258 75
9259 168
9260 240
9261 98
9262 154
9263 145
9264 155
9265 102
9266 36
9267 118
9268 109
9269 39
9270 65
9271 57
9272 41
9273 158
9274 114
9275 29
9276 158
9277 109
9278 58
9279 77
9280 57
9281 80
9282 166
9283 150
9284 23
9285 26
9286 180
9287 118
9288 146
9289 168
9290 29
9291 141
9292 173
9293 54
9294 81
9295 106
9296 98
9297 93
9298 227
9299 30
9300 98
9301 39
9302 106
9303 129
9304 190
9305 27
9306 62
9307 26
9308 109
9309 118
9310 71
9311 182
9312 163
9313 154
9314 78
9315 189
9316 146
9317 46
9318 81
9319 39
9320 30
9321 48
9322 150
9323 39
9324 122
9325 86
9326 129
9327 171
9328 146
9329 34
9330 108
9331 178
9332 73
9333 7
9334 225
9335 85
9336 23
9337 129
9338 2
9339 136
9340 18
9341 2
9342 192
9343 227
9344 42
9345 77
9346 208
9347 50
9348 173
9349 98
9350 113
9351 34
9352 197
9353 44
9354 155
9355 86
9356 99
9357 41
9358 71
9359 122
9360 5
9361 105
9362 111
9363 210
9364 180
9365 178
9366 57
9367 136
9368 149
9369 157
9370 55
9371 153
9372 148
9373 150
9374 83
9375 88
9376 69
9377 122
9378 148
9379 155
9380 14
9381 134
9382 128
9383 71
9384 173
9385 130
9386 108
9387 95
9388 149
9389 128
9390 128
9391 130
9392 219
9393 1
9394 117
9395 162
9396 149
9397 98
9398 22
9399 227
9400 168
9401 87
9402 69
9403 33
9404 39
9405 234
9406 13
9407 168
9408 37
9409 148
9410 73
9411 60
9412 107
9413 60
9414 124
9415 129
9416 192
9417 14
9418 147
9419 109
9420 96
9421 44
9422 150
9423 56
9424 76
9425 75
9426 124
9427 124
9428 124
9429 173
9430 129
9431 99
9432 37
9433 106
9434 2
9435 27
9436 117
9437 67
9438 21
9439 178
9440 43
9441 75
9442 129
9443 230
9444 173
9445 132
9446 139
9447 129
9448 71
9449 150
9450 134
9451 143
9452 172
9453 93
9454 68
9455 122
9456 128
9457 46
9458 120
9459 151
9460 155
9461 162
9462 151
9463 39
9464 195
9465 92
9466 147
9467 84
9468 28
9469 76
9470 39
9471 156
9472 155
9473 175
9474 111
9475 111
9476 39
9477 109
9478 62
9479 109
9480 79
9481 147
9482 145
9483 18
9484 145
9485 196
9486 150
9487 62
9488 79
9489 83
9490 109
9491 59
9492 100
9493 151
9494 111
9495 24
9496 151
9497 8
9498 21
9499 59
9500 52
9501 64
9502 84
9503 170
9504 59
9505 180
9506 45
9507 59
9508 173
9509 59
9510 79
9511 113
9512 41
9513 214
9514 59
9515 84
9516 106
9517 21
9518 47
9519 156
9520 95
9521 56
9522 254
9523 99
9524 4
9525 134
9526 57
9527 73
9528 122
9529 88
9530 161
9531 21
9532 155
9533 24
9534 17
9535 95
9536 170
9537 148
9538 25
9539 122
9540 180
9541 122
9542 59
9543 54
9544 16
9545 14
9546 59
9547 21
9548 25
9549 14
9550 175
9551 14
9552 18
9553 134
9554 62
9555 73
9556 227
9557 81
9558 192
9559 172
9560 61
9561 117
9562 172
9563 55
9564 36
9565 91
9566 45
9567 192
9568 22
9569 84
9570 59
9571 84
9572 170
9573 61
9574 26
9575 128
9576 26
9577 70
9578 145
9579 84
9580 24
9581 124
9582 170
9583 61
9584 61
9585 91
9586 19
9587 76
9588 150
9589 57
9590 172
9591 95
9592 99
9593 166
9594 7
9595 84
9596 173
9597 84
9598 170
9599 83
9600 91
9601 128
9602 204
9603 29
9604 128
9605 151
9606 18
9607 77
9608 153
9609 111
9610 35
9611 111
9612 127
9613 104
9614 151
9615 158
9616 61
9617 6
9618 55
9619 173
9620 129
9621 109
9622 95
9623 105
9624 117
9625 149
9626 91
9627 87
9628 125
9629 33
9630 255
9631 19
9632 122
9633 59
9634 25
9635 125
9636 180
9637 150
9638 195
9639 14
9640 71
9641 71
9642 119
9643 91
9644 72
9645 219
9646 117
9647 26
9648 65
9649 150
9650 65
9651 25
9652 70
9653 61
9654 132
9655 149
9656 130
9657 17
9658 41
9659 90
9660 150
9661 87
9662 61
9663 129
9664 45
9665 126
9666 119
9667 173
9668 34
9669 14
9670 170
9671 19
9672 161
9673 105
9674 106
9675 147
9676 256
9677 73
9678 65
9679 192
9680 102
9681 21
9682 219
9683 51
9684 41
9685 61
9686 146
9687 104
9688 188
9689 117
9690 124
9691 75
9692 21
9693 51
9694 37
9695 50
9696 111
9697 214
9698 145
9699 165
9700 80
9701 155
9702 104
9703 36
9704 172
9705 26
9706 45
9707 99
9708 170
9709 134
9710 54
9711 10
9712 18
9713 18
9714 71
9715 80
9716 51
9717 7
9718 111
9719 39
9720 25
9721 222
9722 87
9723 170
9724 123
9725 132
9726 80
9727 24
9728 46
9729 154
9730 91
9731 84
9732 61
9733 102
9734 134
9735 45
9736 208
9737 87
9738 22
9739 59
9740 34
9741 183
9742 138
9743 155
9744 87
9745 181
9746 178
9747 80
9748 98
9749 112
9750 35
9751 108
9752 80
9753 204
9754 62
9755 37
9756 150
9757 91
9758 155
9759 100
9760 134
9761 45
9762 164
9763 33
9764 145
9765 130
9766 188
9767 208
9768 192
9769 150
9770 87
9771 207
9772 223
9773 37
9774 64
9775 55
9776 28
9777 157
9778 36
9779 7
9780 27
9781 57
9782 18
9783 205
9784 26
9785 66
9786 34
9787 62
9788 93
9789 36
9790 135
9791 236
9792 228
9793 155
9794 45
9795 117
9796 47
9797 73
9798 123
9799 59
9800 102
9801 124
9802 92
9803 146
9804 57
9805 26
9806 153
9807 169
9808 224
9809 164
9810 134
9811 7
9812 8
9813 100
9814 155
9815 29
9816 196
9817 5
9818 36
9819 99
9820 41
9821 8
9822 132
9823 22
9824 113
9825 86
9826 160
9827 119
9828 24
9829 170
9830 129
9831 119
9832 86
9833 138
9834 27
9835 14
9836 84
9837 166
9838 190
9839 46
9840 98
9841 36
9842 30
9843 37
9844 9
9845 26
9846 109
9847 10
9848 57
9849 205
9850 122
9851 90
9852 27
9853 196
9854 41
9855 151
9856 40
9857 129
9858 155
9859 96
9860 183
9861 21
9862 12
9863 73
9864 36
9865 55
9866 75
9867 36
9868 155
9869 81
9870 144
9871 175
9872 196
9873 180
9874 6
9875 26
9876 202
9877 25
9878 219
9879 24
9880 126
9881 164
9882 34
9883 183
9884 117
9885 5
9886 36
9887 29
9888 153
9889 173
9890 106
9891 125
9892 123
9893 103
9894 86
9895 18
9896 122
9897 14
9898 124
9899 86
9900 71
9901 86
9902 99
9903 19
9904 145
9905 111
9906 153
9907 21
9908 80
9909 199
9910 146
9911 18
9912 176
9913 106
9914 150
9915 122
9916 120
9917 124
9918 5
9919 124
9920 160
9921 37
9922 146
9923 124
9924 109
9925 63
9926 5
9927 51
9928 42
9929 18
9930 72
9931 75
9932 73
9933 103
9934 151
9935 137
9936 12
9937 22
9938 71
9939 95
9940 14
9941 35
9942 86
9943 87
9944 124
9945 114
9946 129
9947 174
9948 42
9949 178
9950 72
9951 10
9952 104
9953 226
9954 83
9955 100
9956 60
9957 69
9958 124
9959 51
9960 223
9961 27
9962 177
9963 84
9964 169
9965 56
9966 161
9967 19
9968 44
9969 18
9970 151
9971 106
9972 62
9973 174
9974 153
9975 172
9976 44
9977 27
9978 203
9979 132
9980 120
9981 113
9982 24
9983 8
9984 122
9985 159
9986 56
9987 162
9988 95
9989 5
9990 79
9991 90
9992 175
9993 203
9994 117
9995 236
9996 87
9997 39
9998 42
9999 145
