0 0
1 1
2 2
3 3
4 4
5 5
6 6
7 7
8 8
9 9
10 10
11 11
12 12
13 13
14 14
15 15
16 16
17 17
18 8
19 18
20 19
21 20
22 21
23 22
24 23
25 24
26 25
27 20
28 23
29 13
30 23
31 26
32 6
33 27
34 8
35 16
36 28
37 29
38 30
39 31
40 32
41 33
42 34
43 23
44 35
45 36
46 6
47 37
48 29
49 23
50 38
51 0
52 39
53 22
54 40
55 18
56 24
57 30
58 37
59 20
60 41
61 37
62 1
63 21
64 28
65 42
66 7
67 43
68 39
69 34
70 24
71 44
72 22
73 45
74 41
75 5
76 46
77 3
78 16
79 7
80 47
81 5
82 48
83 19
84 45
85 49
86 5
87 28
88 50
89 14
90 41
91 3
92 16
93 3
94 41
95 29
96 51
97 34
98 25
99 51
100 42
101 52
102 53
103 25
104 6
105 5
106 26
107 5
108 15
109 54
110 13
111 6
112 5
113 30
114 26
115 30
116 0
117 32
118 19
119 23
120 25
121 3
122 43
123 42
124 50
125 51
126 42
127 53
128 46
129 15
130 22
131 29
132 37
133 8
134 5
135 27
136 30
137 55
138 54
139 18
140 16
141 12
142 12
143 34
144 15
145 14
146 47
147 44
148 13
149 6
150 54
151 25
152 24
153 13
154 24
155 32
156 30
157 15
158 56
159 13
160 8
161 30
162 51
163 22
164 41
165 45
166 22
167 13
168 15
169 44
170 26
171 51
172 57
173 58
174 15
175 29
176 6
177 30
178 53
179 59
180 54
181 25
182 24
183 25
184 8
185 6
186 46
187 23
188 41
189 46
190 53
191 31
192 22
193 23
194 19
195 57
196 25
197 24
198 29
199 6
200 28
201 18
202 6
203 30
204 5
205 11
206 51
207 24
208 25
209 26
210 15
211 41
212 24
213 58
214 25
215 26
216 19
217 31
218 22
219 4
220 8
221 22
222 5
223 51
224 15
225 8
226 45
227 34
228 15
229 0
230 22
231 60
232 45
233 58
234 44
235 23
236 13
237 41
238 34
239 46
240 6
241 5
242 46
243 6
244 35
245 23
246 22
247 35
248 58
249 3
250 28
251 46
252 58
253 51
254 58
255 16
256 41
257 19
258 61
259 24
260 12
261 62
262 8
263 8
264 13
265 18
266 47
267 3
268 54
269 8
270 8
271 8
272 46
273 6
274 42
275 36
276 34
277 10
278 44
279 54
280 34
281 63
282 58
283 32
284 64
285 41
286 34
287 22
288 65
289 21
290 25
291 22
292 25
293 39
294 57
295 14
296 35
297 41
298 46
299 23
300 42
301 46
302 6
303 25
304 8
305 41
306 25
307 15
308 42
309 58
310 16
311 5
312 55
313 5
314 5
315 5
316 26
317 13
318 10
319 4
320 5
321 58
322 33
323 25
324 23
325 25
326 58
327 25
328 16
329 66
330 44
331 3
332 26
333 3
334 1
335 51
336 3
337 42
338 3
339 19
340 3
341 46
342 23
343 8
344 58
345 51
346 3
347 51
348 51
349 46
350 1
351 67
352 34
353 23
354 23
355 22
356 25
357 41
358 16
359 50
360 16
361 13
362 25
363 24
364 15
365 23
366 25
367 20
368 8
369 14
370 21
371 58
372 1
373 25
374 34
375 41
376 68
377 1
378 26
379 46
380 1
381 15
382 34
383 1
384 38
385 3
386 56
387 46
388 3
389 36
390 47
391 25
392 51
393 29
394 3
395 5
396 3
397 6
398 28
399 34
400 31
401 8
402 24
403 24
404 34
405 28
406 16
407 5
408 22
409 28
410 34
411 15
412 23
413 54
414 22
415 25
416 3
417 3
418 45
419 58
420 46
421 51
422 25
423 24
424 54
425 58
426 46
427 46
428 14
429 5
430 24
431 16
432 19
433 1
434 41
435 21
436 1
437 25
438 58
439 3
440 13
441 25
442 28
443 51
444 41
445 46
446 57
447 55
448 46
449 1
450 23
451 19
452 6
453 56
454 1
455 1
456 21
457 28
458 19
459 1
460 58
461 23
462 29
463 34
464 15
465 69
466 58
467 15
468 16
469 6
470 46
471 28
472 44
473 3
474 1
475 58
476 42
477 25
478 5
479 46
480 34
481 22
482 19
483 45
484 46
485 23
486 5
487 41
488 44
489 46
490 30
491 1
492 28
493 56
494 25
495 44
496 36
497 16
498 1
499 26
500 42
501 41
502 25
503 0
504 44
505 25
506 16
507 34
508 30
509 3
510 30
511 46
512 14
513 19
514 26
515 23
516 25
517 19
518 26
519 3
520 46
521 19
522 33
523 28
524 68
525 22
526 19
527 44
528 5
529 5
530 1
531 16
532 25
533 26
534 32
535 0
536 22
537 5
538 1
539 16
540 30
541 30
542 46
543 19
544 26
545 3
546 22
547 22
548 26
549 34
550 41
551 16
552 23
553 23
554 6
555 1
556 25
557 30
558 22
559 19
560 3
561 29
562 25
563 29
564 3
565 5
566 19
567 37
568 16
569 63
570 37
571 30
572 1
573 1
574 51
575 58
576 30
577 55
578 34
579 16
580 46
581 8
582 23
583 9
584 25
585 30
586 3
587 3
588 34
589 46
590 8
591 6
592 23
593 8
594 54
595 16
596 44
597 39
598 34
599 1
600 23
601 34
602 25
603 22
604 34
605 46
606 1
607 5
608 25
609 25
610 30
611 22
612 52
613 15
614 8
615 25
616 0
617 19
618 23
619 25
620 19
621 1
622 44
623 22
624 23
625 34
626 5
627 29
628 47
629 8
630 44
631 57
632 63
633 49
634 67
635 8
636 44
637 3
638 30
639 22
640 16
641 41
642 54
643 30
644 18
645 4
646 19
647 46
648 26
649 66
650 9
651 28
652 1
653 3
654 30
655 59
656 27
657 22
658 22
659 1
660 59
661 33
662 60
663 22
664 1
665 38
666 3
667 46
668 26
669 8
670 45
671 1
672 27
673 44
674 22
675 13
676 18
677 5
678 29
679 37
680 63
681 46
682 52
683 23
684 19
685 47
686 22
687 11
688 42
689 70
690 19
691 16
692 3
693 15
694 28
695 41
696 22
697 32
698 16
699 32
700 0
701 28
702 36
703 22
704 3
705 18
706 51
707 1
708 13
709 51
710 44
711 44
712 16
713 41
714 25
715 29
716 60
717 13
718 8
719 34
720 1
721 3
722 70
723 1
724 30
725 22
726 30
727 71
728 41
729 30
730 23
731 22
732 34
733 15
734 68
735 44
736 1
737 44
738 3
739 5
740 1
741 12
742 13
743 34
744 41
745 51
746 19
747 3
748 51
749 58
750 30
751 56
752 13
753 30
754 34
755 21
756 15
757 30
758 23
759 51
760 51
761 34
762 8
763 38
764 50
765 18
766 34
767 22
768 28
769 35
770 6
771 3
772 25
773 15
774 15
775 34
776 1
777 30
778 15
779 26
780 1
781 51
782 3
783 22
784 19
785 44
786 8
787 34
788 30
789 69
790 44
791 7
792 30
793 3
794 8
795 51
796 54
797 22
798 1
799 71
800 28
801 23
802 51
803 44
804 34
805 44
806 8
807 64
808 34
809 34
810 1
811 41
812 11
813 26
814 15
815 29
816 4
817 1
818 3
819 19
820 13
821 51
822 11
823 22
824 16
825 3
826 12
827 27
828 23
829 51
830 3
831 51
832 4
833 46
834 15
835 41
836 24
837 50
838 15
839 24
840 22
841 15
842 3
843 24
844 24
845 15
846 32
847 15
848 13
849 51
850 51
851 24
852 15
853 22
854 16
855 51
856 44
857 43
858 3
859 30
860 44
861 19
862 8
863 1
864 28
865 45
866 41
867 34
868 46
869 15
870 18
871 8
872 30
873 51
874 46
875 1
876 8
877 42
878 28
879 3
880 34
881 17
882 1
883 12
884 15
885 23
886 6
887 65
888 34
889 25
890 44
891 4
892 18
893 12
894 34
895 51
896 12
897 15
898 28
899 30
900 47
901 46
902 5
903 1
904 25
905 3
906 30
907 46
908 66
909 42
910 23
911 46
912 12
913 26
914 24
915 24
916 42
917 51
918 42
919 34
920 42
921 34
922 63
923 1
924 62
925 56
926 34
927 51
928 22
929 3
930 15
931 46
932 23
933 32
934 8
935 22
936 44
937 5
938 3
939 30
940 72
941 38
942 34
943 44
944 14
945 30
946 24
947 51
948 44
949 41
950 3
951 42
952 54
953 42
954 34
955 6
956 1
957 3
958 7
959 42
960 1
961 1
962 46
963 51
964 54
965 50
966 51
967 0
968 47
969 25
970 24
971 25
972 6
973 17
974 34
975 6
976 23
977 6
978 64
979 3
980 14
981 24
982 51
983 63
984 6
985 1
986 22
987 1
988 1
989 22
990 44
991 22
992 15
993 8
994 15
995 12
996 22
997 8
998 44
999 34
1000 3
1001 51
1002 7
1003 1
1004 51
1005 34
1006 23
1007 42
1008 44
1009 12
1010 15
1011 33
1012 44
1013 9
1014 24
1015 24
1016 34
1017 30
1018 26
1019 42
1020 34
1021 13
1022 22
1023 41
1024 19
1025 34
1026 15
1027 41
1028 12
1029 3
1030 26
1031 34
1032 13
1033 51
1034 15
1035 51
1036 15
1037 60
1038 64
1039 8
1040 51
1041 6
1042 22
1043 42
1044 51
1045 44
1046 34
1047 25
1048 6
1049 42
1050 8
1051 7
1052 22
1053 26
1054 15
1055 23
1056 26
1057 0
1058 22
1059 3
1060 51
1061 38
1062 42
1063 15
1064 42
1065 34
1066 24
1067 3
1068 46
1069 51
1070 29
1071 30
1072 24
1073 4
1074 3
1075 8
1076 6
1077 1
1078 43
1079 15
1080 26
1081 28
1082 67
1083 10
1084 29
1085 3
1086 3
1087 4
1088 30
1089 45
1090 44
1091 9
1092 53
1093 6
1094 42
1095 3
1096 5
1097 47
1098 26
1099 7
1100 22
1101 51
1102 29
1103 34
1104 19
1105 41
1106 44
1107 24
1108 34
1109 3
1110 24
1111 42
1112 15
1113 16
1114 3
1115 44
1116 39
1117 22
1118 51
1119 34
1120 45
1121 51
1122 24
1123 5
1124 1
1125 1
1126 3
1127 3
1128 3
1129 5
1130 35
1131 6
1132 42
1133 24
1134 22
1135 15
1136 5
1137 44
1138 34
1139 22
1140 41
1141 34
1142 45
1143 21
1144 7
1145 26
1146 5
1147 35
1148 24
1149 5
1150 60
1151 24
1152 51
1153 44
1154 22
1155 21
1156 1
1157 54
1158 15
1159 13
1160 34
1161 25
1162 51
1163 49
1164 3
1165 41
1166 1
1167 44
1168 56
1169 51
1170 39
1171 32
1172 34
1173 24
1174 1
1175 34
1176 3
1177 16
1178 5
1179 41
1180 16
1181 22
1182 23
1183 22
1184 52
1185 44
1186 26
1187 47
1188 44
1189 41
1190 56
1191 16
1192 13
1193 13
1194 15
1195 8
1196 24
1197 1
1198 5
1199 38
1200 22
1201 51
1202 5
1203 51
1204 44
1205 44
1206 3
1207 24
1208 3
1209 41
1210 22
1211 41
1212 70
1213 22
1214 41
1215 6
1216 3
1217 8
1218 19
1219 44
1220 3
1221 13
1222 19
1223 6
1224 55
1225 46
1226 7
1227 13
1228 34
1229 5
1230 13
1231 41
1232 22
1233 1
1234 45
1235 3
1236 23
1237 63
1238 34
1239 41
1240 34
1241 49
1242 6
1243 24
1244 13
1245 7
1246 4
1247 0
1248 41
1249 24
1250 22
1251 41
1252 22
1253 41
1254 44
1255 28
1256 44
1257 22
1258 23
1259 67
1260 51
1261 58
1262 4
1263 46
1264 12
1265 34
1266 61
1267 58
1268 22
1269 1
1270 3
1271 1
1272 18
1273 19
1274 1
1275 51
1276 22
1277 58
1278 18
1279 42
1280 22
1281 64
1282 42
1283 42
1284 8
1285 15
1286 51
1287 19
1288 44
1289 42
1290 39
1291 54
1292 25
1293 44
1294 32
1295 4
1296 22
1297 41
1298 44
1299 32
1300 25
1301 32
1302 18
1303 41
1304 25
1305 39
1306 41
1307 29
1308 33
1309 19
1310 29
1311 51
1312 5
1313 3
1314 34
1315 51
1316 54
1317 22
1318 1
1319 58
1320 41
1321 3
1322 41
1323 5
1324 58
1325 51
1326 58
1327 5
1328 51
1329 34
1330 22
1331 6
1332 22
1333 51
1334 41
1335 29
1336 1
1337 37
1338 51
1339 41
1340 51
1341 25
1342 35
1343 19
1344 44
1345 41
1346 44
1347 29
1348 22
1349 25
1350 33
1351 6
1352 58
1353 39
1354 58
1355 44
1356 1
1357 34
1358 41
1359 22
1360 5
1361 22
1362 25
1363 44
1364 22
1365 44
1366 51
1367 29
1368 6
1369 34
1370 0
1371 41
1372 55
1373 44
1374 44
1375 64
1376 1
1377 24
1378 16
1379 6
1380 25
1381 1
1382 41
1383 40
1384 25
1385 51
1386 34
1387 5
1388 41
1389 22
1390 4
1391 44
1392 70
1393 22
1394 4
1395 16
1396 25
1397 34
1398 22
1399 22
1400 41
1401 41
1402 0
1403 15
1404 39
1405 15
1406 22
1407 3
1408 13
1409 1
1410 6
1411 6
1412 41
1413 6
1414 11
1415 24
1416 5
1417 6
1418 15
1419 24
1420 51
1421 22
1422 14
1423 51
1424 34
1425 22
1426 41
1427 29
1428 3
1429 3
1430 38
1431 35
1432 34
1433 38
1434 45
1435 6
1436 3
1437 36
1438 44
1439 3
1440 25
1441 21
1442 51
1443 34
1444 7
1445 22
1446 34
1447 51
1448 24
1449 22
1450 3
1451 28
1452 25
1453 71
1454 25
1455 22
1456 16
1457 47
1458 41
1459 34
1460 42
1461 51
1462 72
1463 37
1464 25
1465 27
1466 34
1467 25
1468 7
1469 41
1470 51
1471 41
1472 34
1473 58
1474 32
1475 34
1476 20
1477 6
1478 34
1479 25
1480 73
1481 34
1482 30
1483 38
1484 41
1485 28
1486 22
1487 19
1488 22
1489 3
1490 48
1491 49
1492 6
1493 64
1494 25
1495 51
1496 63
1497 41
1498 7
1499 22
1500 3
1501 16
1502 44
1503 41
1504 51
1505 20
1506 23
1507 46
1508 13
1509 23
1510 23
1511 41
1512 56
1513 3
1514 34
1515 3
1516 51
1517 23
1518 25
1519 23
1520 3
1521 51
1522 5
1523 46
1524 51
1525 29
1526 22
1527 1
1528 23
1529 41
1530 23
1531 41
1532 22
1533 34
1534 24
1535 3
1536 22
1537 44
1538 16
1539 16
1540 34
1541 51
1542 51
1543 44
1544 46
1545 25
1546 44
1547 9
1548 38
1549 28
1550 23
1551 22
1552 51
1553 3
1554 3
1555 24
1556 19
1557 41
1558 46
1559 44
1560 3
1561 41
1562 28
1563 8
1564 3
1565 23
1566 22
1567 41
1568 30
1569 34
1570 7
1571 37
1572 1
1573 25
1574 41
1575 46
1576 30
1577 34
1578 30
1579 51
1580 1
1581 51
1582 34
1583 46
1584 30
1585 34
1586 1
1587 44
1588 23
1589 28
1590 23
1591 41
1592 3
1593 44
1594 23
1595 26
1596 41
1597 25
1598 19
1599 25
1600 42
1601 41
1602 25
1603 53
1604 46
1605 34
1606 5
1607 37
1608 0
1609 30
1610 44
1611 46
1612 46
1613 23
1614 3
1615 34
1616 16
1617 23
1618 51
1619 54
1620 23
1621 41
1622 25
1623 51
1624 41
1625 1
1626 51
1627 3
1628 34
1629 22
1630 43
1631 22
1632 71
1633 41
1634 42
1635 25
1636 23
1637 11
1638 44
1639 23
1640 46
1641 12
1642 25
1643 51
1644 16
1645 25
1646 23
1647 72
1648 28
1649 22
1650 30
1651 45
1652 34
1653 47
1654 52
1655 3
1656 29
1657 72
1658 44
1659 43
1660 34
1661 41
1662 22
1663 44
1664 1
1665 22
1666 22
1667 51
1668 3
1669 46
1670 41
1671 25
1672 25
1673 44
1674 3
1675 46
1676 34
1677 58
1678 51
1679 18
1680 51
1681 5
1682 22
1683 44
1684 23
1685 46
1686 25
1687 34
1688 25
1689 3
1690 34
1691 22
1692 69
1693 2
1694 22
1695 23
1696 25
1697 23
1698 46
1699 56
1700 36
1701 69
1702 46
1703 34
1704 14
1705 30
1706 41
1707 23
1708 58
1709 23
1710 30
1711 25
1712 44
1713 22
1714 43
1715 51
1716 30
1717 25
1718 1
1719 16
1720 22
1721 14
1722 25
1723 23
1724 19
1725 10
1726 63
1727 34
1728 19
1729 28
1730 44
1731 34
1732 44
1733 10
1734 47
1735 7
1736 25
1737 15
1738 23
1739 68
1740 1
1741 12
1742 34
1743 23
1744 19
1745 25
1746 3
1747 51
1748 3
1749 1
1750 34
1751 34
1752 41
1753 30
1754 16
1755 4
1756 55
1757 34
1758 10
1759 29
1760 34
1761 21
1762 28
1763 44
1764 22
1765 41
1766 25
1767 35
1768 44
1769 16
1770 22
1771 3
1772 46
1773 65
1774 46
1775 51
1776 26
1777 35
1778 34
1779 25
1780 4
1781 41
1782 51
1783 3
1784 15
1785 41
1786 8
1787 8
1788 51
1789 51
1790 35
1791 22
1792 1
1793 1
1794 51
1795 4
1796 22
1797 41
1798 46
1799 15
1800 51
1801 41
1802 44
1803 34
1804 3
1805 8
1806 30
1807 30
1808 16
1809 40
1810 44
1811 46
1812 26
1813 44
1814 22
1815 23
1816 16
1817 22
1818 58
1819 25
1820 46
1821 15
1822 8
1823 23
1824 25
1825 44
1826 25
1827 51
1828 22
1829 22
1830 51
1831 51
1832 34
1833 22
1834 23
1835 3
1836 41
1837 34
1838 44
1839 26
1840 0
1841 51
1842 3
1843 15
1844 22
1845 56
1846 46
1847 51
1848 41
1849 23
1850 23
1851 46
1852 66
1853 19
1854 23
1855 19
1856 23
1857 22
1858 25
1859 51
1860 51
1861 73
1862 8
1863 51
1864 28
1865 22
1866 57
1867 22
1868 8
1869 14
1870 25
1871 34
1872 3
1873 46
1874 23
1875 1
1876 2
1877 44
1878 22
1879 51
1880 44
1881 34
1882 51
1883 16
1884 34
1885 22
1886 46
1887 23
1888 8
1889 15
1890 51
1891 34
1892 22
1893 23
1894 46
1895 3
1896 8
1897 22
1898 13
1899 51
1900 23
1901 1
1902 44
1903 28
1904 51
1905 51
1906 68
1907 41
1908 7
1909 25
1910 44
1911 58
1912 25
1913 34
1914 8
1915 51
1916 34
1917 25
1918 41
1919 15
1920 22
1921 46
1922 8
1923 25
1924 3
1925 42
1926 23
1927 13
1928 34
1929 15
1930 8
1931 23
1932 22
1933 41
1934 8
1935 8
1936 24
1937 22
1938 18
1939 41
1940 46
1941 3
1942 22
1943 44
1944 34
1945 15
1946 25
1947 22
1948 22
1949 22
1950 13
1951 34
1952 22
1953 8
1954 25
1955 25
1956 34
1957 44
1958 46
1959 1
1960 51
1961 23
1962 51
1963 41
1964 5
1965 44
1966 4
1967 30
1968 25
1969 34
1970 44
1971 25
1972 15
1973 51
1974 25
1975 41
1976 30
1977 44
1978 22
1979 18
1980 41
1981 46
1982 41
1983 41
1984 8
1985 23
1986 46
1987 23
1988 25
1989 28
1990 51
1991 46
1992 41
1993 8
1994 8
1995 3
1996 34
1997 3
1998 22
1999 51
2000 22
2001 22
2002 19
2003 1
2004 55
2005 6
2006 23
2007 3
2008 22
2009 13
2010 28
2011 34
2012 42
2013 8
2014 3
2015 3
2016 44
2017 3
2018 44
2019 3
2020 51
2021 46
2022 21
2023 15
2024 25
2025 8
2026 46
2027 3
2028 8
2029 34
2030 41
2031 3
2032 15
2033 41
2034 15
2035 8
2036 51
2037 3
2038 44
2039 34
2040 15
2041 15
2042 51
2043 8
2044 51
2045 51
2046 44
2047 25
2048 44
2049 26
2050 19
2051 15
2052 17
2053 23
2054 23
2055 0
2056 44
2057 25
2058 0
2059 26
2060 3
2061 6
2062 42
2063 46
2064 46
2065 33
2066 39
2067 8
2068 29
2069 6
2070 51
2071 46
2072 34
2073 25
2074 34
2075 34
2076 51
2077 24
2078 23
2079 39
2080 8
2081 34
2082 25
2083 3
2084 42
2085 34
2086 41
2087 41
2088 46
2089 25
2090 44
2091 3
2092 51
2093 25
2094 28
2095 23
2096 1
2097 8
2098 8
2099 41
2100 28
2101 15
2102 16
2103 0
2104 64
2105 22
2106 41
2107 18
2108 7
2109 15
2110 25
2111 23
2112 46
2113 3
2114 41
2115 28
2116 46
2117 46
2118 45
2119 32
2120 22
2121 41
2122 5
2123 37
2124 5
2125 8
2126 24
2127 0
2128 5
2129 3
2130 23
2131 25
2132 51
2133 34
2134 34
2135 34
2136 34
2137 51
2138 25
2139 23
2140 0
2141 5
2142 41
2143 14
2144 24
2145 55
2146 23
2147 35
2148 8
2149 23
2150 15
2151 5
2152 23
2153 34
2154 44
2155 30
2156 25
2157 44
2158 3
2159 51
2160 1
2161 16
2162 8
2163 51
2164 44
2165 46
2166 23
2167 34
2168 42
2169 56
2170 46
2171 23
2172 24
2173 30
2174 34
2175 4
2176 15
2177 54
2178 8
2179 22
2180 29
2181 25
2182 0
2183 41
2184 27
2185 23
2186 8
2187 39
2188 47
2189 34
2190 8
2191 25
2192 12
2193 29
2194 12
2195 34
2196 69
2197 16
2198 15
2199 41
2200 8
2201 25
2202 3
2203 8
2204 59
2205 12
2206 0
2207 41
2208 22
2209 41
2210 51
2211 22
2212 15
2213 46
2214 46
2215 42
2216 6
2217 15
2218 0
2219 42
2220 23
2221 25
2222 24
2223 8
2224 6
2225 12
2226 2
2227 29
2228 38
2229 23
2230 23
2231 42
2232 15
2233 46
2234 8
2235 25
2236 19
2237 18
2238 55
2239 13
2240 51
2241 0
2242 45
2243 6
2244 19
2245 23
2246 18
2247 16
2248 34
2249 21
2250 3
2251 23
2252 4
2253 5
2254 23
2255 13
2256 5
2257 7
2258 63
2259 15
2260 51
2261 21
2262 12
2263 41
2264 29
2265 56
2266 42
2267 23
2268 29
2269 15
2270 19
2271 5
2272 13
2273 25
2274 7
2275 8
2276 5
2277 51
2278 24
2279 23
2280 26
2281 67
2282 4
2283 39
2284 8
2285 58
2286 13
2287 46
2288 42
2289 41
2290 34
2291 5
2292 33
2293 60
2294 3
2295 34
2296 60
2297 30
2298 23
2299 18
2300 7
2301 61
2302 13
2303 8
2304 34
2305 8
2306 61
2307 59
2308 46
2309 65
2310 46
2311 65
2312 26
2313 4
2314 32
2315 5
2316 70
2317 23
2318 8
2319 22
2320 25
2321 29
2322 32
2323 15
2324 41
2325 15
2326 13
2327 13
2328 25
2329 23
2330 47
2331 24
2332 23
2333 23
2334 22
2335 30
2336 10
2337 25
2338 46
2339 34
2340 32
2341 13
2342 6
2343 3
2344 32
2345 23
2346 5
2347 23
2348 46
2349 9
2350 69
2351 56
2352 25
2353 8
2354 52
2355 14
2356 29
2357 64
2358 6
2359 32
2360 24
2361 15
2362 55
2363 13
2364 34
2365 8
2366 46
2367 29
2368 67
2369 12
2370 54
2371 31
2372 7
2373 29
2374 3
2375 17
2376 8
2377 23
2378 3
2379 24
2380 19
2381 15
2382 3
2383 3
2384 30
2385 34
2386 7
2387 16
2388 50
2389 74
2390 41
2391 51
2392 1
2393 32
2394 12
2395 16
2396 58
2397 34
2398 58
2399 41
2400 15
2401 1
2402 44
2403 58
2404 34
2405 18
2406 34
2407 34
2408 3
2409 42
2410 8
2411 5
2412 24
2413 6
2414 14
2415 8
2416 24
2417 41
2418 3
2419 72
2420 32
2421 1
2422 41
2423 58
2424 23
2425 4
2426 34
2427 3
2428 58
2429 58
2430 15
2431 10
2432 30
2433 8
2434 16
2435 3
2436 25
2437 21
2438 1
2439 24
2440 3
2441 34
2442 43
2443 46
2444 34
2445 42
2446 65
2447 34
2448 34
2449 14
2450 10
2451 34
2452 16
2453 3
2454 51
2455 73
2456 25
2457 6
2458 51
2459 58
2460 34
2461 8
2462 74
2463 11
2464 13
2465 74
2466 16
2467 16
2468 29
2469 3
2470 34
2471 59
2472 3
2473 58
2474 46
2475 3
2476 21
2477 8
2478 5
2479 12
2480 23
2481 5
2482 19
2483 25
2484 3
2485 74
2486 38
2487 7
2488 5
2489 28
2490 41
2491 3
2492 57
2493 38
2494 10
2495 1
2496 8
2497 15
2498 6
2499 62
2500 34
2501 45
2502 8
2503 21
2504 53
2505 56
2506 8
2507 6
2508 67
2509 18
2510 3
2511 36
2512 9
2513 44
2514 1
2515 44
2516 58
2517 0
2518 50
2519 54
2520 41
2521 18
2522 3
2523 25
2524 51
2525 41
2526 39
2527 26
2528 25
2529 19
2530 54
2531 46
2532 24
2533 3
2534 51
2535 44
2536 74
2537 41
2538 37
2539 14
2540 11
2541 34
2542 40
2543 30
2544 44
2545 53
2546 13
2547 34
2548 25
2549 3
2550 8
2551 13
2552 44
2553 29
2554 3
2555 10
2556 46
2557 28
2558 44
2559 9
2560 21
2561 46
2562 26
2563 1
2564 51
2565 47
2566 3
2567 34
2568 46
2569 19
2570 6
2571 34
2572 30
2573 30
2574 34
2575 3
2576 6
2577 24
2578 29
2579 34
2580 23
2581 8
2582 44
2583 38
2584 44
2585 44
2586 22
2587 44
2588 3
2589 34
2590 57
2591 44
2592 8
2593 0
2594 44
2595 34
2596 44
2597 22
2598 44
2599 25
2600 8
2601 55
2602 44
2603 23
2604 34
2605 44
2606 15
2607 37
2608 1
2609 22
2610 46
2611 44
2612 3
2613 6
2614 3
2615 56
2616 28
2617 46
2618 61
2619 22
2620 38
2621 3
2622 44
2623 25
2624 29
2625 44
2626 57
2627 3
2628 63
2629 22
2630 35
2631 14
2632 26
2633 34
2634 38
2635 30
2636 5
2637 3
2638 42
2639 44
2640 22
2641 19
2642 32
2643 28
2644 22
2645 26
2646 3
2647 3
2648 22
2649 22
2650 29
2651 1
2652 34
2653 26
2654 3
2655 23
2656 42
2657 29
2658 23
2659 26
2660 46
2661 34
2662 44
2663 22
2664 35
2665 22
2666 16
2667 29
2668 22
2669 34
2670 19
2671 3
2672 44
2673 4
2674 47
2675 38
2676 46
2677 44
2678 54
2679 30
2680 46
2681 44
2682 34
2683 34
2684 8
2685 3
2686 16
2687 44
2688 44
2689 28
2690 28
2691 29
2692 34
2693 1
2694 1
2695 41
2696 44
2697 7
2698 25
2699 51
2700 18
2701 30
2702 3
2703 22
2704 34
2705 34
2706 47
2707 44
2708 12
2709 54
2710 25
2711 58
2712 55
2713 41
2714 44
2715 16
2716 44
2717 44
2718 8
2719 30
2720 58
2721 46
2722 22
2723 23
2724 34
2725 25
2726 22
2727 0
2728 41
2729 22
2730 11
2731 16
2732 1
2733 44
2734 34
2735 3
2736 44
2737 28
2738 74
2739 8
2740 8
2741 1
2742 44
2743 44
2744 19
2745 1
2746 3
2747 13
2748 29
2749 22
2750 51
2751 3
2752 54
2753 36
2754 1
2755 37
2756 1
2757 71
2758 19
2759 51
2760 18
2761 67
2762 44
2763 46
2764 34
2765 41
2766 46
2767 34
2768 3
2769 7
2770 72
2771 1
2772 51
2773 34
2774 44
2775 8
2776 3
2777 51
2778 23
2779 8
2780 34
2781 30
2782 29
2783 4
2784 3
2785 3
2786 29
2787 8
2788 44
2789 1
2790 46
2791 56
2792 22
2793 1
2794 44
2795 30
2796 23
2797 22
2798 61
2799 51
2800 44
2801 39
2802 25
2803 51
2804 30
2805 8
2806 44
2807 3
2808 22
2809 29
2810 15
2811 22
2812 38
2813 3
2814 39
2815 3
2816 44
2817 44
2818 51
2819 59
2820 22
2821 1
2822 13
2823 41
2824 34
2825 16
2826 15
2827 8
2828 16
2829 59
2830 41
2831 44
2832 27
2833 3
2834 67
2835 53
2836 3
2837 1
2838 23
2839 44
2840 14
2841 28
2842 16
2843 24
2844 26
2845 3
2846 3
2847 34
2848 22
2849 41
2850 3
2851 34
2852 22
2853 22
2854 3
2855 8
2856 34
2857 19
2858 41
2859 44
2860 34
2861 3
2862 15
2863 65
2864 44
2865 16
2866 71
2867 51
2868 44
2869 1
2870 46
2871 1
2872 51
2873 1
2874 32
2875 51
2876 34
2877 55
2878 62
2879 15
2880 7
2881 22
2882 3
2883 27
2884 28
2885 26
2886 34
2887 15
2888 19
2889 15
2890 51
2891 22
2892 34
2893 30
2894 30
2895 73
2896 24
2897 29
2898 19
2899 1
2900 51
2901 44
2902 56
2903 16
2904 23
2905 51
2906 26
2907 24
2908 22
2909 3
2910 19
2911 23
2912 51
2913 35
2914 46
2915 24
2916 22
2917 34
2918 54
2919 1
2920 28
2921 51
2922 1
2923 35
2924 24
2925 34
2926 52
2927 44
2928 42
2929 34
2930 13
2931 1
2932 42
2933 70
2934 51
2935 45
2936 22
2937 8
2938 5
2939 37
2940 44
2941 3
2942 22
2943 24
2944 44
2945 8
2946 45
2947 13
2948 3
2949 23
2950 11
2951 30
2952 15
2953 39
2954 51
2955 15
2956 14
2957 46
2958 8
2959 30
2960 30
2961 34
2962 3
2963 28
2964 22
2965 22
2966 9
2967 38
2968 46
2969 44
2970 24
2971 9
2972 44
2973 34
2974 51
2975 46
2976 51
2977 30
2978 3
2979 3
2980 44
2981 42
2982 22
2983 3
2984 64
2985 3
2986 44
2987 3
2988 33
2989 34
2990 60
2991 38
2992 34
2993 64
2994 38
2995 22
2996 13
2997 1
2998 43
2999 58
3000 13
3001 16
3002 23
3003 74
3004 46
3005 34
3006 42
3007 23
3008 34
3009 34
3010 24
3011 22
3012 50
3013 34
3014 22
3015 3
3016 30
3017 4
3018 1
3019 63
3020 15
3021 34
3022 44
3023 30
3024 1
3025 1
3026 3
3027 22
3028 44
3029 42
3030 2
3031 19
3032 34
3033 34
3034 34
3035 19
3036 3
3037 6
3038 13
3039 74
3040 43
3041 21
3042 3
3043 42
3044 23
3045 3
3046 4
3047 22
3048 51
3049 1
3050 42
3051 0
3052 6
3053 22
3054 34
3055 46
3056 3
3057 51
3058 52
3059 56
3060 3
3061 24
3062 6
3063 3
3064 24
3065 16
3066 23
3067 44
3068 1
3069 1
3070 56
3071 44
3072 3
3073 30
3074 59
3075 1
3076 34
3077 51
3078 0
3079 28
3080 51
3081 8
3082 3
3083 34
3084 3
3085 3
3086 51
3087 22
3088 34
3089 34
3090 34
3091 16
3092 3
3093 32
3094 38
3095 46
3096 51
3097 14
3098 34
3099 8
3100 22
3101 23
3102 19
3103 51
3104 20
3105 29
3106 34
3107 44
3108 46
3109 8
3110 46
3111 46
3112 1
3113 42
3114 16
3115 29
3116 44
3117 51
3118 51
3119 46
3120 3
3121 30
3122 26
3123 22
3124 1
3125 34
3126 30
3127 1
3128 24
3129 39
3130 51
3131 3
3132 0
3133 8
3134 52
3135 3
3136 22
3137 69
3138 3
3139 34
3140 51
3141 3
3142 64
3143 34
3144 34
3145 16
3146 22
3147 41
3148 8
3149 41
3150 34
3151 1
3152 1
3153 3
3154 51
3155 37
3156 38
3157 44
3158 19
3159 30
3160 34
3161 41
3162 6
3163 25
3164 3
3165 28
3166 44
3167 22
3168 25
3169 51
3170 22
3171 22
3172 3
3173 45
3174 42
3175 24
3176 24
3177 51
3178 34
3179 8
3180 34
3181 15
3182 3
3183 3
3184 3
3185 23
3186 6
3187 46
3188 3
3189 28
3190 1
3191 7
3192 54
3193 22
3194 10
3195 41
3196 10
3197 22
3198 44
3199 34
3200 41
3201 22
3202 1
3203 5
3204 26
3205 15
3206 5
3207 8
3208 1
3209 8
3210 44
3211 51
3212 6
3213 42
3214 24
3215 41
3216 51
3217 34
3218 44
3219 22
3220 41
3221 3
3222 41
3223 69
3224 3
3225 51
3226 22
3227 51
3228 24
3229 8
3230 13
3231 56
3232 13
3233 21
3234 42
3235 40
3236 44
3237 46
3238 1
3239 3
3240 55
3241 34
3242 3
3243 41
3244 22
3245 5
3246 32
3247 4
3248 44
3249 3
3250 36
3251 42
3252 21
3253 28
3254 17
3255 14
3256 6
3257 51
3258 22
3259 24
3260 41
3261 70
3262 51
3263 30
3264 67
3265 54
3266 12
3267 16
3268 24
3269 30
3270 72
3271 22
3272 6
3273 46
3274 6
3275 29
3276 25
3277 24
3278 13
3279 51
3280 37
3281 8
3282 34
3283 34
3284 34
3285 44
3286 44
3287 38
3288 0
3289 3
3290 39
3291 24
3292 1
3293 34
3294 0
3295 4
3296 34
3297 44
3298 22
3299 3
3300 30
3301 22
3302 46
3303 3
3304 3
3305 50
3306 41
3307 3
3308 34
3309 0
3310 36
3311 41
3312 39
3313 51
3314 24
3315 23
3316 46
3317 6
3318 5
3319 13
3320 54
3321 51
3322 44
3323 22
3324 22
3325 18
3326 6
3327 26
3328 51
3329 51
3330 3
3331 3
3332 42
3333 6
3334 34
3335 44
3336 51
3337 3
3338 45
3339 22
3340 25
3341 3
3342 45
3343 24
3344 34
3345 25
3346 0
3347 67
3348 51
3349 3
3350 51
3351 3
3352 41
3353 25
3354 4
3355 25
3356 34
3357 41
3358 22
3359 64
3360 6
3361 44
3362 3
3363 34
3364 41
3365 44
3366 44
3367 26
3368 41
3369 44
3370 1
3371 3
3372 8
3373 18
3374 34
3375 22
3376 44
3377 51
3378 22
3379 3
3380 22
3381 34
3382 15
3383 41
3384 63
3385 3
3386 10
3387 41
3388 41
3389 51
3390 22
3391 51
3392 51
3393 25
3394 51
3395 44
3396 41
3397 70
3398 25
3399 70
3400 61
3401 34
3402 3
3403 41
3404 5
3405 34
3406 15
3407 41
3408 25
3409 41
3410 42
3411 25
3412 25
3413 58
3414 22
3415 41
3416 14
3417 54
3418 3
3419 51
3420 44
3421 34
3422 22
3423 8
3424 34
3425 14
3426 23
3427 22
3428 5
3429 50
3430 34
3431 16
3432 3
3433 51
3434 3
3435 6
3436 58
3437 25
3438 51
3439 8
3440 51
3441 36
3442 25
3443 44
3444 22
3445 44
3446 44
3447 4
3448 42
3449 51
3450 5
3451 51
3452 24
3453 22
3454 50
3455 25
3456 3
3457 16
3458 56
3459 3
3460 3
3461 51
3462 23
3463 34
3464 18
3465 25
3466 24
3467 34
3468 51
3469 25
3470 10
3471 28
3472 3
3473 51
3474 25
3475 22
3476 3
3477 28
3478 71
3479 3
3480 25
3481 62
3482 51
3483 44
3484 14
3485 22
3486 41
3487 16
3488 51
3489 22
3490 67
3491 34
3492 37
3493 51
3494 44
3495 44
3496 60
3497 32
3498 22
3499 25
3500 25
3501 51
3502 3
3503 51
3504 5
3505 41
3506 34
3507 51
3508 44
3509 25
3510 5
3511 25
3512 41
3513 22
3514 34
3515 22
3516 44
3517 41
3518 14
3519 3
3520 65
3521 19
3522 51
3523 3
3524 13
3525 21
3526 44
3527 44
3528 25
3529 67
3530 24
3531 41
3532 44
3533 34
3534 15
3535 70
3536 44
3537 63
3538 32
3539 8
3540 3
3541 41
3542 51
3543 35
3544 22
3545 18
3546 17
3547 23
3548 41
3549 41
3550 63
3551 22
3552 25
3553 34
3554 51
3555 16
3556 46
3557 22
3558 46
3559 52
3560 41
3561 44
3562 41
3563 25
3564 34
3565 22
3566 34
3567 18
3568 6
3569 29
3570 51
3571 5
3572 22
3573 58
3574 23
3575 41
3576 34
3577 44
3578 30
3579 51
3580 28
3581 6
3582 23
3583 22
3584 51
3585 51
3586 44
3587 23
3588 26
3589 16
3590 25
3591 44
3592 25
3593 23
3594 46
3595 44
3596 28
3597 46
3598 22
3599 3
3600 73
3601 46
3602 19
3603 22
3604 23
3605 41
3606 44
3607 51
3608 55
3609 2
3610 22
3611 51
3612 34
3613 3
3614 44
3615 34
3616 39
3617 3
3618 41
3619 41
3620 22
3621 3
3622 23
3623 25
3624 44
3625 46
3626 51
3627 22
3628 3
3629 25
3630 25
3631 25
3632 24
3633 46
3634 34
3635 29
3636 46
3637 3
3638 69
3639 19
3640 28
3641 41
3642 23
3643 51
3644 3
3645 46
3646 3
3647 22
3648 34
3649 46
3650 23
3651 23
3652 22
3653 61
3654 24
3655 6
3656 41
3657 23
3658 44
3659 22
3660 44
3661 41
3662 45
3663 22
3664 23
3665 54
3666 41
3667 3
3668 34
3669 5
3670 34
3671 30
3672 23
3673 3
3674 44
3675 44
3676 30
3677 41
3678 15
3679 44
3680 46
3681 54
3682 45
3683 22
3684 34
3685 44
3686 41
3687 41
3688 70
3689 22
3690 46
3691 46
3692 54
3693 16
3694 25
3695 3
3696 41
3697 3
3698 51
3699 46
3700 29
3701 23
3702 54
3703 34
3704 0
3705 19
3706 23
3707 25
3708 34
3709 51
3710 25
3711 3
3712 34
3713 51
3714 46
3715 34
3716 41
3717 44
3718 46
3719 28
3720 34
3721 29
3722 41
3723 34
3724 46
3725 34
3726 3
3727 25
3728 44
3729 34
3730 41
3731 23
3732 59
3733 3
3734 0
3735 28
3736 13
3737 44
3738 23
3739 44
3740 22
3741 34
3742 46
3743 23
3744 58
3745 30
3746 29
3747 67
3748 30
3749 41
3750 25
3751 58
3752 41
3753 23
3754 51
3755 19
3756 57
3757 29
3758 22
3759 23
3760 24
3761 34
3762 14
3763 22
3764 51
3765 22
3766 46
3767 34
3768 45
3769 34
3770 22
3771 1
3772 44
3773 28
3774 30
3775 46
3776 22
3777 22
3778 25
3779 22
3780 34
3781 22
3782 3
3783 4
3784 25
3785 51
3786 46
3787 30
3788 25
3789 41
3790 25
3791 46
3792 51
3793 51
3794 4
3795 44
3796 23
3797 1
3798 25
3799 64
3800 25
3801 41
3802 44
3803 41
3804 28
3805 22
3806 34
3807 25
3808 5
3809 23
3810 34
3811 46
3812 25
3813 16
3814 41
3815 54
3816 28
3817 34
3818 3
3819 33
3820 0
3821 21
3822 47
3823 44
3824 48
3825 44
3826 46
3827 46
3828 8
3829 23
3830 41
3831 3
3832 51
3833 30
3834 41
3835 22
3836 28
3837 44
3838 34
3839 23
3840 46
3841 23
3842 41
3843 34
3844 22
3845 22
3846 23
3847 23
3848 44
3849 51
3850 46
3851 8
3852 39
3853 46
3854 22
3855 23
3856 62
3857 3
3858 44
3859 51
3860 34
3861 29
3862 41
3863 51
3864 46
3865 41
3866 7
3867 34
3868 22
3869 25
3870 25
3871 21
3872 44
3873 8
3874 34
3875 74
3876 3
3877 34
3878 15
3879 3
3880 25
3881 1
3882 23
3883 8
3884 22
3885 30
3886 34
3887 41
3888 46
3889 44
3890 16
3891 3
3892 3
3893 30
3894 23
3895 46
3896 44
3897 25
3898 25
3899 3
3900 3
3901 44
3902 22
3903 63
3904 23
3905 25
3906 25
3907 15
3908 23
3909 44
3910 8
3911 27
3912 28
3913 50
3914 22
3915 23
3916 46
3917 51
3918 23
3919 57
3920 41
3921 28
3922 3
3923 51
3924 25
3925 22
3926 3
3927 23
3928 44
3929 24
3930 25
3931 46
3932 25
3933 46
3934 18
3935 46
3936 3
3937 42
3938 8
3939 25
3940 46
3941 51
3942 1
3943 44
3944 44
3945 23
3946 34
3947 25
3948 46
3949 41
3950 34
3951 22
3952 46
3953 46
3954 49
3955 12
3956 25
3957 25
3958 30
3959 32
3960 34
3961 46
3962 23
3963 41
3964 23
3965 51
3966 22
3967 54
3968 22
3969 8
3970 41
3971 8
3972 41
3973 44
3974 22
3975 34
3976 25
3977 8
3978 41
3979 70
3980 50
3981 39
3982 51
3983 44
3984 8
3985 34
3986 23
3987 3
3988 44
3989 46
3990 34
3991 25
3992 51
3993 5
3994 39
3995 25
3996 44
3997 22
3998 3
3999 44
4000 56
4001 8
4002 15
4003 44
4004 51
4005 41
4006 23
4007 30
4008 44
4009 37
4010 8
4011 41
4012 8
4013 41
4014 51
4015 23
4016 44
4017 46
4018 23
4019 34
4020 44
4021 22
4022 34
4023 56
4024 8
4025 44
4026 46
4027 44
4028 51
4029 25
4030 34
4031 23
4032 44
4033 46
4034 46
4035 25
4036 23
4037 46
4038 3
4039 22
4040 23
4041 44
4042 24
4043 3
4044 41
4045 23
4046 25
4047 34
4048 34
4049 23
4050 44
4051 34
4052 8
4053 6
4054 44
4055 46
4056 8
4057 63
4058 38
4059 44
4060 51
4061 22
4062 34
4063 3
4064 68
4065 15
4066 15
4067 3
4068 44
4069 30
4070 44
4071 22
4072 44
4073 44
4074 4
4075 1
4076 23
4077 3
4078 22
4079 0
4080 70
4081 46
4082 22
4083 51
4084 22
4085 41
4086 3
4087 8
4088 22
4089 3
4090 24
4091 51
4092 46
4093 23
4094 19
4095 25
4096 8
4097 23
4098 34
4099 23
4100 58
4101 30
4102 15
4103 9
4104 59
4105 23
4106 25
4107 51
4108 34
4109 34
4110 28
4111 34
4112 22
4113 33
4114 26
4115 8
4116 38
4117 46
4118 6
4119 33
4120 34
4121 23
4122 62
4123 8
4124 22
4125 27
4126 26
4127 8
4128 23
4129 38
4130 41
4131 46
4132 30
4133 19
4134 37
4135 44
4136 44
4137 28
4138 22
4139 59
4140 37
4141 51
4142 41
4143 46
4144 19
4145 19
4146 41
4147 8
4148 35
4149 34
4150 24
4151 46
4152 23
4153 23
4154 8
4155 3
4156 4
4157 41
4158 41
4159 11
4160 15
4161 46
4162 28
4163 39
4164 41
4165 5
4166 34
4167 30
4168 30
4169 39
4170 51
4171 6
4172 42
4173 41
4174 46
4175 6
4176 34
4177 34
4178 15
4179 51
4180 54
4181 28
4182 49
4183 8
4184 51
4185 19
4186 24
4187 13
4188 34
4189 8
4190 25
4191 26
4192 41
4193 34
4194 30
4195 44
4196 42
4197 22
4198 15
4199 54
4200 29
4201 51
4202 58
4203 34
4204 34
4205 25
4206 21
4207 23
4208 33
4209 28
4210 15
4211 3
4212 5
4213 52
4214 8
4215 6
4216 35
4217 19
4218 23
4219 44
4220 35
4221 19
4222 56
4223 66
4224 6
4225 0
4226 8
4227 29
4228 44
4229 42
4230 34
4231 54
4232 30
4233 51
4234 3
4235 25
4236 56
4237 15
4238 19
4239 24
4240 9
4241 16
4242 59
4243 34
4244 46
4245 19
4246 41
4247 34
4248 42
4249 15
4250 42
4251 18
4252 44
4253 23
4254 48
4255 24
4256 15
4257 41
4258 8
4259 25
4260 19
4261 29
4262 34
4263 21
4264 6
4265 25
4266 41
4267 27
4268 34
4269 46
4270 3
4271 34
4272 41
4273 3
4274 8
4275 6
4276 8
4277 70
4278 34
4279 23
4280 34
4281 29
4282 34
4283 13
4284 54
4285 54
4286 5
4287 22
4288 30
4289 44
4290 34
4291 12
4292 56
4293 13
4294 34
4295 46
4296 34
4297 46
4298 66
4299 21
4300 6
4301 30
4302 44
4303 22
4304 51
4305 44
4306 13
4307 41
4308 25
4309 54
4310 15
4311 31
4312 58
4313 22
4314 7
4315 29
4316 8
4317 23
4318 15
4319 13
4320 12
4321 54
4322 4
4323 58
4324 47
4325 42
4326 18
4327 42
4328 5
4329 8
4330 44
4331 47
4332 51
4333 46
4334 71
4335 8
4336 58
4337 34
4338 61
4339 13
4340 42
4341 8
4342 24
4343 0
4344 46
4345 34
4346 42
4347 24
4348 23
4349 60
4350 7
4351 5
4352 8
4353 46
4354 7
4355 53
4356 5
4357 46
4358 0
4359 36
4360 13
4361 24
4362 50
4363 4
4364 8
4365 33
4366 44
4367 5
4368 42
4369 34
4370 41
4371 3
4372 61
4373 41
4374 24
4375 46
4376 34
4377 5
4378 34
4379 8
4380 42
4381 46
4382 13
4383 24
4384 12
4385 26
4386 4
4387 4
4388 34
4389 63
4390 33
4391 7
4392 41
4393 0
4394 34
4395 46
4396 6
4397 6
4398 13
4399 46
4400 41
4401 34
4402 70
4403 25
4404 38
4405 23
4406 15
4407 62
4408 67
4409 5
4410 8
4411 34
4412 41
4413 22
4414 22
4415 74
4416 46
4417 28
4418 24
4419 41
4420 58
4421 25
4422 39
4423 42
4424 3
4425 12
4426 3
4427 29
4428 64
4429 34
4430 44
4431 33
4432 3
4433 58
4434 22
4435 1
4436 34
4437 1
4438 7
4439 58
4440 25
4441 3
4442 1
4443 61
4444 7
4445 14
4446 5
4447 3
4448 34
4449 45
4450 16
4451 51
4452 34
4453 3
4454 4
4455 23
4456 6
4457 1
4458 54
4459 3
4460 34
4461 36
4462 4
4463 3
4464 34
4465 61
4466 55
4467 5
4468 58
4469 34
4470 54
4471 3
4472 51
4473 11
4474 36
4475 18
4476 45
4477 4
4478 3
4479 45
4480 23
4481 46
4482 41
4483 41
4484 23
4485 34
4486 23
4487 47
4488 23
4489 18
4490 25
4491 48
4492 1
4493 45
4494 42
4495 46
4496 25
4497 67
4498 34
4499 3
4500 7
4501 48
4502 23
4503 8
4504 42
4505 3
4506 1
4507 41
4508 37
4509 41
4510 1
4511 26
4512 23
4513 41
4514 34
4515 45
4516 41
4517 37
4518 41
4519 69
4520 8
4521 41
4522 46
4523 25
4524 58
4525 46
4526 6
4527 1
4528 57
4529 3
4530 8
4531 16
4532 57
4533 23
4534 3
4535 3
4536 51
4537 20
4538 3
4539 7
4540 30
4541 5
4542 16
4543 6
4544 27
4545 8
4546 24
4547 28
4548 58
4549 19
4550 3
4551 47
4552 24
4553 3
4554 70
4555 12
4556 3
4557 1
4558 1
4559 64
4560 1
4561 3
4562 64
4563 7
4564 49
4565 19
4566 44
4567 54
4568 16
4569 1
4570 39
4571 44
4572 8
4573 18
4574 34
4575 44
4576 34
4577 8
4578 3
4579 36
4580 19
4581 1
4582 44
4583 25
4584 23
4585 3
4586 30
4587 36
4588 7
4589 42
4590 30
4591 23
4592 5
4593 28
4594 3
4595 30
4596 41
4597 50
4598 10
4599 34
4600 1
4601 34
4602 8
4603 21
4604 3
4605 12
4606 28
4607 70
4608 30
4609 25
4610 16
4611 16
4612 34
4613 33
4614 24
4615 58
4616 44
4617 41
4618 28
4619 58
4620 3
4621 15
4622 0
4623 1
4624 6
4625 3
4626 26
4627 24
4628 1
4629 34
4630 4
4631 19
4632 44
4633 8
4634 3
4635 19
4636 3
4637 13
4638 34
4639 34
4640 58
4641 38
4642 34
4643 1
4644 3
4645 41
4646 9
4647 19
4648 3
4649 30
4650 44
4651 22
4652 19
4653 22
4654 44
4655 22
4656 34
4657 34
4658 22
4659 44
4660 3
4661 22
4662 41
4663 44
4664 41
4665 3
4666 3
4667 22
4668 5
4669 45
4670 44
4671 34
4672 3
4673 5
4674 58
4675 22
4676 46
4677 34
4678 8
4679 33
4680 41
4681 3
4682 46
4683 8
4684 41
4685 8
4686 8
4687 8
4688 41
4689 49
4690 8
4691 3
4692 56
4693 22
4694 23
4695 38
4696 1
4697 3
4698 22
4699 73
4700 1
4701 29
4702 19
4703 22
4704 3
4705 16
4706 22
4707 16
4708 11
4709 45
4710 3
4711 44
4712 44
4713 22
4714 35
4715 63
4716 70
4717 36
4718 21
4719 3
4720 67
4721 8
4722 15
4723 19
4724 23
4725 44
4726 1
4727 1
4728 44
4729 1
4730 58
4731 30
4732 25
4733 19
4734 58
4735 34
4736 47
4737 58
4738 30
4739 16
4740 22
4741 28
4742 34
4743 22
4744 1
4745 34
4746 22
4747 46
4748 8
4749 3
4750 8
4751 29
4752 18
4753 30
4754 8
4755 3
4756 28
4757 51
4758 25
4759 34
4760 44
4761 8
4762 3
4763 26
4764 22
4765 3
4766 53
4767 44
4768 44
4769 1
4770 3
4771 3
4772 34
4773 28
4774 44
4775 14
4776 22
4777 25
4778 3
4779 26
4780 16
4781 28
4782 44
4783 8
4784 13
4785 44
4786 8
4787 34
4788 22
4789 18
4790 1
4791 41
4792 14
4793 44
4794 34
4795 3
4796 13
4797 1
4798 34
4799 44
4800 44
4801 46
4802 44
4803 44
4804 12
4805 5
4806 51
4807 0
4808 25
4809 38
4810 13
4811 22
4812 54
4813 8
4814 29
4815 3
4816 22
4817 22
4818 14
4819 51
4820 51
4821 1
4822 51
4823 44
4824 8
4825 13
4826 43
4827 34
4828 34
4829 46
4830 16
4831 51
4832 34
4833 44
4834 31
4835 44
4836 3
4837 16
4838 30
4839 13
4840 52
4841 34
4842 51
4843 16
4844 25
4845 41
4846 3
4847 34
4848 22
4849 41
4850 44
4851 44
4852 8
4853 44
4854 51
4855 54
4856 22
4857 1
4858 22
4859 25
4860 44
4861 3
4862 34
4863 34
4864 1
4865 3
4866 51
4867 51
4868 44
4869 29
4870 58
4871 44
4872 44
4873 44
4874 46
4875 51
4876 44
4877 4
4878 44
4879 15
4880 1
4881 3
4882 22
4883 51
4884 6
4885 12
4886 56
4887 16
4888 34
4889 44
4890 48
4891 18
4892 8
4893 3
4894 44
4895 7
4896 22
4897 22
4898 13
4899 3
4900 3
4901 5
4902 22
4903 13
4904 46
4905 34
4906 62
4907 23
4908 15
4909 22
4910 34
4911 3
4912 3
4913 44
4914 7
4915 30
4916 3
4917 22
4918 44
4919 51
4920 1
4921 4
4922 22
4923 3
4924 25
4925 34
4926 22
4927 59
4928 44
4929 62
4930 16
4931 44
4932 3
4933 15
4934 22
4935 25
4936 44
4937 51
4938 51
4939 30
4940 19
4941 30
4942 3
4943 4
4944 22
4945 24
4946 44
4947 3
4948 3
4949 24
4950 44
4951 44
4952 0
4953 34
4954 22
4955 45
4956 19
4957 22
4958 4
4959 23
4960 51
4961 51
4962 3
4963 3
4964 3
4965 42
4966 15
4967 15
4968 1
4969 34
4970 51
4971 30
4972 15
4973 30
4974 24
4975 18
4976 24
4977 24
4978 49
4979 24
4980 51
4981 34
4982 42
4983 34
4984 21
4985 34
4986 25
4987 42
4988 34
4989 51
4990 29
4991 34
4992 23
4993 44
4994 34
4995 1
4996 24
4997 44
4998 22
4999 22
5000 51
5001 51
5002 34
5003 1
5004 58
5005 69
5006 46
5007 22
5008 56
5009 44
5010 12
5011 23
5012 15
5013 22
5014 1
5015 22
5016 5
5017 30
5018 44
5019 44
5020 14
5021 50
5022 15
5023 3
5024 3
5025 1
5026 44
5027 22
5028 3
5029 51
5030 44
5031 29
5032 1
5033 21
5034 44
5035 34
5036 30
5037 1
5038 38
5039 1
5040 46
5041 3
5042 30
5043 41
5044 69
5045 47
5046 34
5047 58
5048 36
5049 15
5050 23
5051 44
5052 22
5053 34
5054 43
5055 67
5056 44
5057 3
5058 15
5059 51
5060 44
5061 6
5062 3
5063 22
5064 42
5065 46
5066 70
5067 19
5068 3
5069 51
5070 44
5071 19
5072 46
5073 19
5074 3
5075 44
5076 3
5077 8
5078 44
5079 44
5080 19
5081 34
5082 44
5083 28
5084 3
5085 44
5086 44
5087 18
5088 19
5089 41
5090 6
5091 17
5092 22
5093 25
5094 45
5095 71
5096 44
5097 52
5098 22
5099 34
5100 25
5101 51
5102 24
5103 39
5104 6
5105 29
5106 42
5107 50
5108 30
5109 44
5110 29
5111 26
5112 30
5113 6
5114 8
5115 3
5116 8
5117 51
5118 26
5119 28
5120 42
5121 49
5122 51
5123 51
5124 22
5125 30
5126 22
5127 25
5128 24
5129 3
5130 17
5131 50
5132 38
5133 24
5134 8
5135 51
5136 38
5137 56
5138 7
5139 22
5140 15
5141 3
5142 51
5143 8
5144 44
5145 3
5146 1
5147 51
5148 6
5149 46
5150 22
5151 44
5152 15
5153 23
5154 44
5155 3
5156 51
5157 33
5158 16
5159 27
5160 23
5161 44
5162 51
5163 26
5164 44
5165 51
5166 35
5167 4
5168 35
5169 3
5170 51
5171 44
5172 34
5173 34
5174 23
5175 2
5176 39
5177 34
5178 44
5179 3
5180 63
5181 34
5182 6
5183 8
5184 51
5185 0
5186 7
5187 3
5188 34
5189 37
5190 51
5191 34
5192 22
5193 56
5194 22
5195 3
5196 37
5197 6
5198 51
5199 51
5200 22
5201 41
5202 34
5203 26
5204 54
5205 6
5206 6
5207 22
5208 44
5209 51
5210 34
5211 29
5212 24
5213 22
5214 42
5215 44
5216 29
5217 34
5218 8
5219 41
5220 41
5221 51
5222 24
5223 45
5224 41
5225 3
5226 15
5227 26
5228 34
5229 44
5230 54
5231 44
5232 22
5233 34
5234 44
5235 44
5236 3
5237 22
5238 15
5239 15
5240 22
5241 22
5242 1
5243 7
5244 22
5245 44
5246 51
5247 22
5248 51
5249 39
5250 9
5251 41
5252 22
5253 41
5254 34
5255 52
5256 3
5257 23
5258 51
5259 23
5260 16
5261 24
5262 41
5263 44
5264 1
5265 15
5266 3
5267 41
5268 51
5269 24
5270 21
5271 51
5272 13
5273 54
5274 44
5275 5
5276 6
5277 3
5278 24
5279 46
5280 10
5281 44
5282 44
5283 3
5284 34
5285 3
5286 34
5287 19
5288 44
5289 12
5290 34
5291 22
5292 41
5293 7
5294 44
5295 34
5296 16
5297 46
5298 51
5299 43
5300 34
5301 5
5302 19
5303 8
5304 44
5305 29
5306 24
5307 41
5308 1
5309 3
5310 74
5311 41
5312 54
5313 41
5314 51
5315 12
5316 3
5317 13
5318 51
5319 51
5320 1
5321 44
5322 51
5323 8
5324 36
5325 44
5326 3
5327 4
5328 51
5329 22
5330 44
5331 23
5332 51
5333 5
5334 22
5335 15
5336 3
5337 5
5338 22
5339 6
5340 44
5341 51
5342 41
5343 41
5344 41
5345 44
5346 4
5347 51
5348 23
5349 3
5350 4
5351 41
5352 41
5353 4
5354 23
5355 30
5356 34
5357 51
5358 51
5359 8
5360 51
5361 34
5362 36
5363 44
5364 74
5365 58
5366 41
5367 4
5368 44
5369 44
5370 6
5371 41
5372 55
5373 22
5374 55
5375 31
5376 34
5377 29
5378 51
5379 34
5380 32
5381 34
5382 3
5383 51
5384 8
5385 58
5386 23
5387 44
5388 25
5389 25
5390 6
5391 41
5392 44
5393 25
5394 41
5395 71
5396 58
5397 26
5398 34
5399 1
5400 3
5401 41
5402 24
5403 13
5404 42
5405 22
5406 3
5407 1
5408 71
5409 41
5410 41
5411 41
5412 3
5413 24
5414 6
5415 44
5416 68
5417 51
5418 41
5419 6
5420 23
5421 37
5422 38
5423 35
5424 41
5425 29
5426 41
5427 46
5428 44
5429 34
5430 41
5431 44
5432 2
5433 24
5434 41
5435 22
5436 22
5437 44
5438 44
5439 34
5440 15
5441 34
5442 51
5443 51
5444 44
5445 34
5446 41
5447 42
5448 34
5449 25
5450 19
5451 51
5452 22
5453 3
5454 34
5455 51
5456 3
5457 34
5458 34
5459 58
5460 13
5461 61
5462 41
5463 34
5464 34
5465 22
5466 35
5467 12
5468 22
5469 25
5470 22
5471 44
5472 25
5473 22
5474 6
5475 62
5476 44
5477 51
5478 25
5479 34
5480 41
5481 3
5482 51
5483 25
5484 3
5485 41
5486 23
5487 25
5488 34
5489 25
5490 22
5491 58
5492 18
5493 3
5494 64
5495 22
5496 34
5497 34
5498 34
5499 55
5500 3
5501 25
5502 11
5503 34
5504 41
5505 29
5506 25
5507 44
5508 36
5509 3
5510 34
5511 44
5512 22
5513 60
5514 25
5515 5
5516 44
5517 25
5518 41
5519 41
5520 3
5521 37
5522 1
5523 34
5524 3
5525 44
5526 22
5527 61
5528 25
5529 3
5530 58
5531 17
5532 22
5533 44
5534 34
5535 34
5536 67
5537 54
5538 16
5539 38
5540 9
5541 51
5542 51
5543 3
5544 44
5545 34
5546 16
5547 4
5548 8
5549 25
5550 52
5551 51
5552 3
5553 44
5554 25
5555 22
5556 34
5557 25
5558 16
5559 66
5560 74
5561 3
5562 22
5563 22
5564 51
5565 25
5566 24
5567 44
5568 3
5569 51
5570 25
5571 51
5572 19
5573 41
5574 34
5575 3
5576 28
5577 22
5578 41
5579 44
5580 50
5581 44
5582 21
5583 5
5584 41
5585 25
5586 34
5587 19
5588 44
5589 13
5590 37
5591 58
5592 44
5593 51
5594 41
5595 31
5596 22
5597 67
5598 19
5599 44
5600 3
5601 3
5602 28
5603 39
5604 3
5605 46
5606 51
5607 44
5608 25
5609 22
5610 3
5611 23
5612 23
5613 58
5614 23
5615 51
5616 46
5617 35
5618 23
5619 34
5620 51
5621 24
5622 61
5623 51
5624 59
5625 34
5626 22
5627 22
5628 34
5629 46
5630 46
5631 22
5632 25
5633 38
5634 54
5635 25
5636 46
5637 30
5638 34
5639 44
5640 41
5641 21
5642 34
5643 24
5644 34
5645 61
5646 29
5647 51
5648 34
5649 25
5650 22
5651 44
5652 23
5653 6
5654 3
5655 46
5656 34
5657 41
5658 44
5659 51
5660 34
5661 51
5662 23
5663 56
5664 44
5665 23
5666 44
5667 22
5668 41
5669 25
5670 46
5671 3
5672 34
5673 19
5674 32
5675 38
5676 23
5677 44
5678 23
5679 3
5680 51
5681 23
5682 58
5683 46
5684 46
5685 44
5686 25
5687 29
5688 23
5689 28
5690 22
5691 3
5692 25
5693 38
5694 51
5695 46
5696 41
5697 3
5698 25
5699 51
5700 30
5701 46
5702 44
5703 22
5704 16
5705 41
5706 16
5707 22
5708 44
5709 23
5710 19
5711 25
5712 8
5713 1
5714 30
5715 51
5716 34
5717 29
5718 33
5719 1
5720 34
5721 34
5722 23
5723 51
5724 23
5725 44
5726 35
5727 3
5728 41
5729 3
5730 51
5731 41
5732 46
5733 23
5734 22
5735 22
5736 34
5737 23
5738 23
5739 23
5740 25
5741 51
5742 49
5743 22
5744 28
5745 28
5746 28
5747 22
5748 51
5749 24
5750 44
5751 1
5752 46
5753 34
5754 25
5755 44
5756 19
5757 41
5758 51
5759 3
5760 23
5761 22
5762 22
5763 51
5764 41
5765 22
5766 41
5767 41
5768 30
5769 22
5770 56
5771 41
5772 23
5773 22
5774 44
5775 25
5776 23
5777 56
5778 25
5779 22
5780 3
5781 51
5782 41
5783 23
5784 1
5785 44
5786 47
5787 44
5788 23
5789 41
5790 25
5791 34
5792 34
5793 41
5794 51
5795 41
5796 25
5797 3
5798 41
5799 46
5800 41
5801 44
5802 46
5803 46
5804 41
5805 51
5806 23
5807 22
5808 22
5809 3
5810 25
5811 44
5812 24
5813 46
5814 23
5815 25
5816 46
5817 25
5818 3
5819 25
5820 46
5821 44
5822 29
5823 23
5824 46
5825 69
5826 38
5827 44
5828 51
5829 22
5830 46
5831 25
5832 22
5833 3
5834 46
5835 25
5836 3
5837 11
5838 41
5839 28
5840 30
5841 15
5842 19
5843 40
5844 28
5845 44
5846 25
5847 19
5848 51
5849 13
5850 18
5851 19
5852 44
5853 23
5854 34
5855 28
5856 44
5857 22
5858 25
5859 8
5860 41
5861 44
5862 51
5863 8
5864 8
5865 23
5866 51
5867 8
5868 23
5869 8
5870 23
5871 41
5872 3
5873 23
5874 58
5875 25
5876 8
5877 25
5878 15
5879 44
5880 16
5881 41
5882 46
5883 22
5884 8
5885 8
5886 41
5887 54
5888 44
5889 3
5890 63
5891 25
5892 23
5893 39
5894 25
5895 13
5896 51
5897 25
5898 16
5899 36
5900 3
5901 46
5902 22
5903 41
5904 15
5905 23
5906 22
5907 41
5908 41
5909 41
5910 30
5911 23
5912 8
5913 3
5914 22
5915 0
5916 3
5917 8
5918 3
5919 22
5920 44
5921 41
5922 58
5923 25
5924 51
5925 8
5926 51
5927 51
5928 51
5929 22
5930 51
5931 23
5932 19
5933 23
5934 34
5935 44
5936 59
5937 44
5938 34
5939 8
5940 8
5941 3
5942 46
5943 25
5944 8
5945 51
5946 46
5947 13
5948 23
5949 22
5950 23
5951 51
5952 8
5953 41
5954 55
5955 41
5956 34
5957 44
5958 41
5959 8
5960 14
5961 24
5962 51
5963 22
5964 1
5965 8
5966 22
5967 35
5968 3
5969 51
5970 28
5971 8
5972 34
5973 51
5974 51
5975 23
5976 51
5977 3
5978 46
5979 25
5980 71
5981 39
5982 23
5983 25
5984 8
5985 22
5986 4
5987 44
5988 25
5989 15
5990 44
5991 3
5992 23
5993 25
5994 3
5995 34
5996 3
5997 41
5998 42
5999 3
6000 34
6001 25
6002 43
6003 51
6004 23
6005 42
6006 22
6007 51
6008 44
6009 12
6010 9
6011 41
6012 23
6013 22
6014 25
6015 46
6016 38
6017 15
6018 22
6019 25
6020 46
6021 23
6022 51
6023 46
6024 23
6025 46
6026 22
6027 38
6028 46
6029 46
6030 46
6031 46
6032 22
6033 44
6034 44
6035 41
6036 30
6037 3
6038 24
6039 51
6040 41
6041 3
6042 51
6043 34
6044 37
6045 22
6046 42
6047 41
6048 23
6049 44
6050 41
6051 47
6052 13
6053 44
6054 23
6055 1
6056 46
6057 23
6058 8
6059 56
6060 46
6061 16
6062 46
6063 34
6064 8
6065 8
6066 74
6067 44
6068 37
6069 44
6070 41
6071 34
6072 42
6073 3
6074 23
6075 3
6076 22
6077 51
6078 23
6079 51
6080 46
6081 32
6082 44
6083 51
6084 5
6085 41
6086 25
6087 51
6088 22
6089 23
6090 21
6091 16
6092 44
6093 56
6094 44
6095 6
6096 41
6097 51
6098 46
6099 51
6100 44
6101 51
6102 22
6103 68
6104 51
6105 41
6106 41
6107 51
6108 46
6109 23
6110 24
6111 22
6112 41
6113 24
6114 44
6115 8
6116 22
6117 24
6118 51
6119 8
6120 16
6121 0
6122 46
6123 34
6124 34
6125 8
6126 34
6127 51
6128 41
6129 22
6130 23
6131 23
6132 41
6133 46
6134 42
6135 24
6136 51
6137 8
6138 23
6139 41
6140 51
6141 44
6142 23
6143 51
6144 7
6145 6
6146 35
6147 34
6148 51
6149 26
6150 16
6151 6
6152 3
6153 3
6154 25
6155 22
6156 46
6157 25
6158 0
6159 46
6160 24
6161 23
6162 24
6163 28
6164 46
6165 34
6166 46
6167 29
6168 8
6169 24
6170 23
6171 15
6172 26
6173 23
6174 34
6175 34
6176 30
6177 23
6178 38
6179 34
6180 7
6181 51
6182 24
6183 44
6184 38
6185 23
6186 2
6187 46
6188 34
6189 8
6190 3
6191 38
6192 22
6193 41
6194 41
6195 31
6196 34
6197 41
6198 15
6199 70
6200 22
6201 44
6202 34
6203 8
6204 25
6205 39
6206 34
6207 42
6208 46
6209 59
6210 23
6211 45
6212 14
6213 46
6214 67
6215 51
6216 5
6217 23
6218 6
6219 51
6220 24
6221 19
6222 5
6223 2
6224 41
6225 74
6226 46
6227 8
6228 46
6229 41
6230 7
6231 5
6232 41
6233 35
6234 74
6235 8
6236 25
6237 34
6238 24
6239 34
6240 23
6241 41
6242 36
6243 13
6244 42
6245 8
6246 8
6247 23
6248 7
6249 0
6250 26
6251 22
6252 51
6253 41
6254 4
6255 48
6256 6
6257 5
6258 45
6259 29
6260 34
6261 22
6262 24
6263 14
6264 51
6265 25
6266 51
6267 9
6268 41
6269 8
6270 11
6271 15
6272 46
6273 66
6274 29
6275 34
6276 8
6277 15
6278 46
6279 25
6280 10
6281 22
6282 25
6283 23
6284 8
6285 34
6286 8
6287 26
6288 26
6289 34
6290 5
6291 1
6292 46
6293 51
6294 34
6295 5
6296 50
6297 50
6298 26
6299 8
6300 32
6301 54
6302 3
6303 42
6304 34
6305 34
6306 34
6307 47
6308 51
6309 5
6310 23
6311 26
6312 56
6313 23
6314 30
6315 8
6316 46
6317 47
6318 46
6319 13
6320 34
6321 34
6322 46
6323 23
6324 5
6325 6
6326 34
6327 44
6328 46
6329 8
6330 19
6331 41
6332 13
6333 18
6334 15
6335 46
6336 42
6337 8
6338 15
6339 15
6340 23
6341 23
6342 13
6343 5
6344 14
6345 25
6346 42
6347 5
6348 23
6349 0
6350 13
6351 56
6352 46
6353 13
6354 44
6355 23
6356 23
6357 8
6358 23
6359 5
6360 72
6361 46
6362 41
6363 23
6364 8
6365 8
6366 8
6367 25
6368 34
6369 8
6370 6
6371 39
6372 55
6373 6
6374 46
6375 51
6376 52
6377 34
6378 21
6379 15
6380 34
6381 8
6382 5
6383 51
6384 41
6385 41
6386 46
6387 34
6388 11
6389 44
6390 71
6391 6
6392 8
6393 8
6394 26
6395 26
6396 23
6397 51
6398 58
6399 22
6400 6
6401 34
6402 5
6403 69
6404 34
6405 72
6406 32
6407 46
6408 52
6409 24
6410 25
6411 58
6412 18
6413 46
6414 5
6415 34
6416 40
6417 58
6418 51
6419 34
6420 8
6421 34
6422 61
6423 71
6424 69
6425 36
6426 58
6427 5
6428 52
6429 44
6430 34
6431 44
6432 3
6433 34
6434 27
6435 19
6436 13
6437 23
6438 0
6439 25
6440 15
6441 44
6442 57
6443 47
6444 21
6445 63
6446 25
6447 61
6448 41
6449 26
6450 25
6451 63
6452 57
6453 13
6454 8
6455 12
6456 8
6457 34
6458 46
6459 31
6460 42
6461 34
6462 34
6463 58
6464 30
6465 56
6466 48
6467 58
6468 43
6469 12
6470 54
6471 8
6472 46
6473 4
6474 1
6475 23
6476 61
6477 46
6478 3
6479 43
6480 23
6481 14
6482 3
6483 46
6484 8
6485 3
6486 34
6487 16
6488 24
6489 24
6490 25
6491 8
6492 41
6493 46
6494 8
6495 23
6496 34
6497 8
6498 25
6499 58
6500 3
6501 25
6502 22
6503 48
6504 23
6505 34
6506 46
6507 1
6508 44
6509 41
6510 14
6511 73
6512 1
6513 38
6514 40
6515 41
6516 4
6517 3
6518 58
6519 41
6520 66
6521 46
6522 38
6523 8
6524 39
6525 4
6526 3
6527 8
6528 42
6529 69
6530 51
6531 46
6532 34
6533 3
6534 46
6535 25
6536 49
6537 66
6538 68
6539 41
6540 21
6541 41
6542 3
6543 41
6544 4
6545 58
6546 13
6547 55
6548 1
6549 16
6550 3
6551 16
6552 1
6553 46
6554 38
6555 12
6556 31
6557 22
6558 38
6559 12
6560 23
6561 18
6562 1
6563 3
6564 41
6565 5
6566 23
6567 46
6568 28
6569 44
6570 60
6571 8
6572 45
6573 28
6574 34
6575 34
6576 47
6577 51
6578 50
6579 9
6580 5
6581 73
6582 16
6583 34
6584 4
6585 21
6586 46
6587 8
6588 58
6589 69
6590 42
6591 19
6592 74
6593 2
6594 3
6595 10
6596 1
6597 19
6598 38
6599 17
6600 42
6601 3
6602 34
6603 5
6604 46
6605 44
6606 35
6607 8
6608 44
6609 1
6610 3
6611 48
6612 3
6613 1
6614 3
6615 44
6616 3
6617 3
6618 1
6619 3
6620 7
6621 15
6622 32
6623 3
6624 34
6625 55
6626 8
6627 34
6628 46
6629 0
6630 58
6631 48
6632 34
6633 24
6634 42
6635 56
6636 38
6637 3
6638 1
6639 33
6640 44
6641 1
6642 1
6643 30
6644 50
6645 1
6646 47
6647 60
6648 3
6649 47
6650 34
6651 44
6652 3
6653 39
6654 61
6655 34
6656 62
6657 44
6658 5
6659 3
6660 28
6661 3
6662 34
6663 3
6664 65
6665 44
6666 22
6667 29
6668 50
6669 22
6670 61
6671 30
6672 35
6673 67
6674 34
6675 3
6676 22
6677 22
6678 19
6679 16
6680 26
6681 44
6682 1
6683 62
6684 16
6685 32
6686 1
6687 16
6688 46
6689 26
6690 22
6691 28
6692 8
6693 33
6694 3
6695 13
6696 29
6697 3
6698 22
6699 1
6700 25
6701 3
6702 3
6703 46
6704 34
6705 41
6706 22
6707 25
6708 30
6709 34
6710 16
6711 3
6712 44
6713 16
6714 34
6715 35
6716 22
6717 6
6718 46
6719 15
6720 1
6721 45
6722 22
6723 30
6724 3
6725 22
6726 44
6727 15
6728 46
6729 70
6730 3
6731 46
6732 8
6733 44
6734 22
6735 46
6736 46
6737 3
6738 12
6739 28
6740 23
6741 22
6742 34
6743 3
6744 50
6745 30
6746 44
6747 22
6748 1
6749 39
6750 1
6751 34
6752 30
6753 1
6754 46
6755 34
6756 30
6757 1
6758 3
6759 44
6760 51
6761 23
6762 25
6763 30
6764 8
6765 19
6766 44
6767 19
6768 19
6769 14
6770 44
6771 3
6772 58
6773 3
6774 44
6775 8
6776 1
6777 46
6778 44
6779 22
6780 37
6781 9
6782 3
6783 22
6784 30
6785 19
6786 0
6787 34
6788 3
6789 3
6790 34
6791 45
6792 22
6793 44
6794 44
6795 25
6796 46
6797 28
6798 5
6799 26
6800 46
6801 25
6802 34
6803 26
6804 46
6805 39
6806 58
6807 46
6808 26
6809 44
6810 1
6811 22
6812 52
6813 69
6814 30
6815 34
6816 3
6817 44
6818 1
6819 16
6820 30
6821 23
6822 28
6823 22
6824 23
6825 3
6826 23
6827 3
6828 13
6829 44
6830 61
6831 1
6832 25
6833 44
6834 36
6835 3
6836 22
6837 34
6838 1
6839 72
6840 38
6841 3
6842 22
6843 3
6844 7
6845 41
6846 8
6847 13
6848 3
6849 51
6850 3
6851 58
6852 34
6853 3
6854 23
6855 22
6856 30
6857 67
6858 23
6859 46
6860 70
6861 51
6862 1
6863 30
6864 34
6865 22
6866 3
6867 4
6868 3
6869 1
6870 29
6871 65
6872 23
6873 74
6874 34
6875 19
6876 3
6877 31
6878 6
6879 51
6880 51
6881 16
6882 44
6883 22
6884 44
6885 34
6886 44
6887 51
6888 22
6889 25
6890 51
6891 3
6892 34
6893 23
6894 46
6895 1
6896 22
6897 58
6898 22
6899 51
6900 70
6901 3
6902 3
6903 44
6904 44
6905 54
6906 31
6907 3
6908 51
6909 44
6910 51
6911 22
6912 44
6913 8
6914 56
6915 3
6916 51
6917 22
6918 44
6919 34
6920 30
6921 22
6922 51
6923 25
6924 51
6925 44
6926 69
6927 51
6928 28
6929 23
6930 30
6931 22
6932 44
6933 44
6934 34
6935 34
6936 19
6937 44
6938 15
6939 38
6940 3
6941 44
6942 3
6943 32
6944 51
6945 5
6946 51
6947 8
6948 8
6949 19
6950 29
6951 1
6952 34
6953 34
6954 11
6955 22
6956 34
6957 0
6958 12
6959 41
6960 34
6961 44
6962 3
6963 22
6964 51
6965 51
6966 13
6967 44
6968 34
6969 3
6970 15
6971 3
6972 58
6973 69
6974 34
6975 51
6976 8
6977 34
6978 5
6979 15
6980 34
6981 3
6982 51
6983 34
6984 23
6985 30
6986 3
6987 44
6988 44
6989 39
6990 34
6991 3
6992 28
6993 47
6994 13
6995 46
6996 44
6997 3
6998 57
6999 63
7000 8
7001 18
7002 25
7003 3
7004 44
7005 3
7006 1
7007 3
7008 3
7009 22
7010 30
7011 4
7012 46
7013 71
7014 46
7015 3
7016 3
7017 1
7018 1
7019 28
7020 1
7021 34
7022 14
7023 22
7024 44
7025 22
7026 44
7027 34
7028 46
7029 3
7030 34
7031 24
7032 44
7033 15
7034 62
7035 8
7036 3
7037 1
7038 12
7039 15
7040 22
7041 34
7042 51
7043 34
7044 32
7045 62
7046 1
7047 23
7048 4
7049 30
7050 24
7051 13
7052 44
7053 15
7054 51
7055 51
7056 46
7057 22
7058 3
7059 46
7060 51
7061 24
7062 34
7063 21
7064 34
7065 51
7066 3
7067 22
7068 56
7069 51
7070 50
7071 46
7072 51
7073 22
7074 3
7075 51
7076 34
7077 19
7078 34
7079 51
7080 23
7081 3
7082 3
7083 36
7084 3
7085 32
7086 51
7087 39
7088 51
7089 34
7090 67
7091 45
7092 3
7093 5
7094 13
7095 6
7096 15
7097 34
7098 34
7099 52
7100 44
7101 46
7102 13
7103 51
7104 51
7105 15
7106 51
7107 3
7108 12
7109 22
7110 34
7111 34
7112 51
7113 30
7114 22
7115 26
7116 4
7117 3
7118 6
7119 6
7120 3
7121 44
7122 34
7123 51
7124 51
7125 8
7126 22
7127 8
7128 44
7129 46
7130 22
7131 3
7132 42
7133 44
7134 47
7135 30
7136 16
7137 34
7138 16
7139 3
7140 44
7141 22
7142 6
7143 8
7144 22
7145 22
7146 64
7147 2
7148 34
7149 29
7150 44
7151 22
7152 0
7153 3
7154 51
7155 8
7156 25
7157 22
7158 12
7159 34
7160 44
7161 69
7162 42
7163 34
7164 15
7165 44
7166 34
7167 22
7168 34
7169 9
7170 3
7171 34
7172 3
7173 44
7174 22
7175 29
7176 30
7177 22
7178 22
7179 23
7180 51
7181 3
7182 3
7183 24
7184 34
7185 6
7186 22
7187 22
7188 3
7189 22
7190 3
7191 51
7192 34
7193 44
7194 29
7195 22
7196 8
7197 32
7198 44
7199 15
7200 24
7201 22
7202 18
7203 44
7204 26
7205 51
7206 23
7207 51
7208 22
7209 37
7210 22
7211 34
7212 0
7213 22
7214 22
7215 4
7216 3
7217 34
7218 22
7219 22
7220 8
7221 22
7222 3
7223 10
7224 23
7225 15
7226 30
7227 32
7228 3
7229 30
7230 51
7231 44
7232 34
7233 1
7234 25
7235 63
7236 15
7237 67
7238 24
7239 51
7240 8
7241 37
7242 41
7243 46
7244 41
7245 3
7246 30
7247 22
7248 44
7249 8
7250 34
7251 10
7252 44
7253 34
7254 41
7255 22
7256 44
7257 28
7258 34
7259 23
7260 44
7261 51
7262 22
7263 45
7264 22
7265 28
7266 51
7267 44
7268 1
7269 34
7270 8
7271 44
7272 41
7273 51
7274 38
7275 41
7276 51
7277 51
7278 51
7279 34
7280 29
7281 41
7282 34
7283 61
7284 22
7285 19
7286 41
7287 55
7288 34
7289 30
7290 15
7291 50
7292 41
7293 48
7294 44
7295 41
7296 44
7297 8
7298 56
7299 28
7300 7
7301 41
7302 24
7303 22
7304 27
7305 34
7306 61
7307 22
7308 21
7309 46
7310 51
7311 1
7312 3
7313 24
7314 15
7315 4
7316 44
7317 29
7318 55
7319 41
7320 46
7321 3
7322 30
7323 41
7324 47
7325 15
7326 44
7327 21
7328 3
7329 54
7330 3
7331 41
7332 1
7333 54
7334 51
7335 41
7336 34
7337 41
7338 44
7339 52
7340 22
7341 44
7342 51
7343 1
7344 44
7345 46
7346 31
7347 3
7348 34
7349 8
7350 22
7351 3
7352 29
7353 3
7354 29
7355 46
7356 51
7357 34
7358 29
7359 43
7360 31
7361 52
7362 3
7363 24
7364 55
7365 41
7366 34
7367 3
7368 5
7369 22
7370 13
7371 8
7372 38
7373 51
7374 24
7375 22
7376 22
7377 34
7378 8
7379 44
7380 19
7381 3
7382 44
7383 14
7384 3
7385 44
7386 44
7387 44
7388 51
7389 15
7390 9
7391 12
7392 18
7393 12
7394 34
7395 34
7396 53
7397 34
7398 14
7399 34
7400 44
7401 34
7402 5
7403 14
7404 5
7405 41
7406 45
7407 62
7408 61
7409 51
7410 44
7411 54
7412 22
7413 0
7414 44
7415 51
7416 51
7417 66
7418 3
7419 3
7420 44
7421 7
7422 24
7423 3
7424 22
7425 23
7426 58
7427 69
7428 4
7429 41
7430 22
7431 53
7432 5
7433 44
7434 44
7435 41
7436 15
7437 22
7438 8
7439 25
7440 41
7441 41
7442 21
7443 46
7444 22
7445 25
7446 34
7447 44
7448 6
7449 3
7450 0
7451 3
7452 25
7453 41
7454 44
7455 53
7456 25
7457 25
7458 44
7459 18
7460 25
7461 25
7462 22
7463 3
7464 22
7465 41
7466 25
7467 22
7468 22
7469 23
7470 44
7471 25
7472 8
7473 22
7474 25
7475 3
7476 22
7477 51
7478 51
7479 35
7480 73
7481 42
7482 34
7483 24
7484 32
7485 44
7486 46
7487 22
7488 25
7489 25
7490 51
7491 44
7492 58
7493 58
7494 22
7495 51
7496 22
7497 22
7498 54
7499 41
7500 25
7501 44
7502 67
7503 42
7504 3
7505 22
7506 44
7507 3
7508 41
7509 51
7510 34
7511 51
7512 51
7513 8
7514 71
7515 3
7516 44
7517 49
7518 3
7519 58
7520 30
7521 3
7522 3
7523 56
7524 25
7525 51
7526 36
7527 32
7528 25
7529 51
7530 3
7531 25
7532 22
7533 41
7534 36
7535 8
7536 24
7537 41
7538 25
7539 23
7540 51
7541 51
7542 51
7543 22
7544 3
7545 4
7546 41
7547 3
7548 1
7549 3
7550 59
7551 24
7552 8
7553 25
7554 51
7555 3
7556 1
7557 56
7558 51
7559 51
7560 27
7561 3
7562 25
7563 25
7564 31
7565 22
7566 41
7567 62
7568 22
7569 34
7570 58
7571 34
7572 18
7573 34
7574 44
7575 51
7576 4
7577 8
7578 44
7579 51
7580 37
7581 22
7582 24
7583 25
7584 8
7585 20
7586 54
7587 28
7588 22
7589 19
7590 51
7591 42
7592 22
7593 41
7594 15
7595 4
7596 42
7597 44
7598 43
7599 5
7600 74
7601 25
7602 41
7603 51
7604 41
7605 64
7606 58
7607 3
7608 23
7609 41
7610 51
7611 34
7612 34
7613 1
7614 25
7615 44
7616 45
7617 23
7618 38
7619 51
7620 37
7621 51
7622 5
7623 28
7624 22
7625 34
7626 10
7627 42
7628 47
7629 3
7630 25
7631 16
7632 51
7633 3
7634 29
7635 34
7636 14
7637 25
7638 51
7639 25
7640 44
7641 22
7642 19
7643 41
7644 51
7645 34
7646 56
7647 61
7648 44
7649 51
7650 3
7651 16
7652 51
7653 22
7654 61
7655 1
7656 3
7657 46
7658 22
7659 34
7660 41
7661 0
7662 46
7663 25
7664 44
7665 34
7666 6
7667 22
7668 3
7669 23
7670 25
7671 44
7672 25
7673 10
7674 34
7675 51
7676 51
7677 22
7678 41
7679 58
7680 30
7681 23
7682 22
7683 51
7684 25
7685 22
7686 3
7687 28
7688 3
7689 44
7690 44
7691 58
7692 23
7693 25
7694 34
7695 16
7696 44
7697 44
7698 22
7699 29
7700 22
7701 22
7702 22
7703 26
7704 41
7705 23
7706 3
7707 56
7708 44
7709 25
7710 44
7711 3
7712 25
7713 39
7714 34
7715 46
7716 34
7717 25
7718 41
7719 25
7720 51
7721 23
7722 44
7723 16
7724 29
7725 34
7726 3
7727 3
7728 22
7729 44
7730 46
7731 22
7732 25
7733 41
7734 3
7735 8
7736 3
7737 39
7738 46
7739 10
7740 11
7741 23
7742 46
7743 51
7744 51
7745 32
7746 25
7747 40
7748 46
7749 23
7750 46
7751 26
7752 46
7753 25
7754 46
7755 41
7756 44
7757 5
7758 35
7759 28
7760 22
7761 44
7762 35
7763 51
7764 22
7765 34
7766 25
7767 44
7768 3
7769 41
7770 41
7771 3
7772 3
7773 22
7774 30
7775 34
7776 1
7777 34
7778 3
7779 41
7780 3
7781 25
7782 1
7783 34
7784 30
7785 23
7786 44
7787 3
7788 34
7789 51
7790 51
7791 25
7792 70
7793 38
7794 34
7795 23
7796 34
7797 3
7798 25
7799 25
7800 22
7801 51
7802 25
7803 1
7804 22
7805 44
7806 23
7807 51
7808 51
7809 44
7810 46
7811 44
7812 44
7813 42
7814 25
7815 34
7816 23
7817 3
7818 44
7819 34
7820 51
7821 23
7822 25
7823 3
7824 3
7825 25
7826 22
7827 46
7828 25
7829 25
7830 51
7831 49
7832 51
7833 22
7834 41
7835 41
7836 44
7837 60
7838 34
7839 22
7840 41
7841 22
7842 41
7843 44
7844 22
7845 22
7846 56
7847 3
7848 32
7849 25
7850 22
7851 61
7852 44
7853 8
7854 41
7855 44
7856 44
7857 22
7858 54
7859 56
7860 58
7861 44
7862 22
7863 25
7864 54
7865 51
7866 46
7867 22
7868 25
7869 3
7870 58
7871 41
7872 46
7873 46
7874 22
7875 3
7876 3
7877 34
7878 58
7879 18
7880 23
7881 25
7882 41
7883 3
7884 23
7885 41
7886 10
7887 22
7888 56
7889 44
7890 51
7891 46
7892 25
7893 45
7894 56
7895 22
7896 22
7897 25
7898 30
7899 46
7900 38
7901 44
7902 44
7903 30
7904 25
7905 30
7906 25
7907 12
7908 41
7909 34
7910 3
7911 46
7912 22
7913 44
7914 30
7915 29
7916 8
7917 22
7918 44
7919 3
7920 44
7921 40
7922 22
7923 41
7924 34
7925 51
7926 3
7927 8
7928 8
7929 15
7930 51
7931 22
7932 41
7933 8
7934 34
7935 8
7936 22
7937 34
7938 18
7939 44
7940 3
7941 25
7942 23
7943 8
7944 34
7945 13
7946 15
7947 41
7948 46
7949 25
7950 22
7951 25
7952 3
7953 34
7954 34
7955 23
7956 23
7957 23
7958 34
7959 44
7960 51
7961 61
7962 22
7963 30
7964 41
7965 22
7966 23
7967 25
7968 41
7969 63
7970 46
7971 61
7972 18
7973 13
7974 44
7975 23
7976 8
7977 34
7978 34
7979 8
7980 51
7981 44
7982 3
7983 30
7984 41
7985 3
7986 12
7987 22
7988 3
7989 23
7990 34
7991 30
7992 22
7993 46
7994 23
7995 59
7996 30
7997 46
7998 46
7999 51
8000 48
8001 46
8002 8
8003 25
8004 23
8005 41
8006 22
8007 41
8008 51
8009 34
8010 44
8011 63
8012 41
8013 51
8014 3
8015 51
8016 8
8017 0
8018 3
8019 22
8020 16
8021 44
8022 16
8023 22
8024 23
8025 46
8026 41
8027 37
8028 3
8029 3
8030 8
8031 41
8032 46
8033 3
8034 41
8035 41
8036 41
8037 51
8038 15
8039 22
8040 44
8041 8
8042 37
8043 39
8044 44
8045 19
8046 44
8047 23
8048 3
8049 25
8050 46
8051 15
8052 3
8053 46
8054 44
8055 46
8056 25
8057 44
8058 46
8059 22
8060 8
8061 22
8062 51
8063 23
8064 24
8065 41
8066 7
8067 30
8068 34
8069 41
8070 25
8071 25
8072 46
8073 25
8074 41
8075 34
8076 22
8077 23
8078 51
8079 23
8080 24
8081 25
8082 41
8083 51
8084 46
8085 4
8086 19
8087 34
8088 25
8089 3
8090 3
8091 8
8092 46
8093 4
8094 46
8095 41
8096 51
8097 23
8098 41
8099 44
8100 46
8101 24
8102 41
8103 33
8104 46
8105 8
8106 51
8107 41
8108 3
8109 22
8110 30
8111 60
8112 41
8113 25
8114 51
8115 6
8116 46
8117 41
8118 3
8119 6
8120 3
8121 41
8122 22
8123 25
8124 15
8125 44
8126 74
8127 22
8128 22
8129 41
8130 41
8131 41
8132 25
8133 23
8134 8
8135 34
8136 3
8137 46
8138 23
8139 7
8140 22
8141 23
8142 3
8143 8
8144 21
8145 3
8146 41
8147 25
8148 51
8149 51
8150 42
8151 44
8152 23
8153 4
8154 39
8155 51
8156 6
8157 23
8158 8
8159 44
8160 46
8161 25
8162 23
8163 23
8164 8
8165 44
8166 6
8167 29
8168 45
8169 22
8170 51
8171 8
8172 58
8173 23
8174 12
8175 71
8176 30
8177 39
8178 42
8179 29
8180 8
8181 15
8182 8
8183 44
8184 41
8185 29
8186 3
8187 3
8188 36
8189 26
8190 46
8191 46
8192 62
8193 48
8194 46
8195 29
8196 15
8197 24
8198 46
8199 23
8200 26
8201 22
8202 29
8203 50
8204 4
8205 41
8206 30
8207 35
8208 7
8209 32
8210 34
8211 30
8212 32
8213 51
8214 23
8215 8
8216 34
8217 34
8218 23
8219 47
8220 15
8221 46
8222 41
8223 4
8224 30
8225 23
8226 34
8227 41
8228 39
8229 34
8230 19
8231 34
8232 8
8233 34
8234 44
8235 8
8236 21
8237 34
8238 25
8239 38
8240 25
8241 41
8242 7
8243 48
8244 23
8245 29
8246 1
8247 32
8248 8
8249 15
8250 8
8251 6
8252 26
8253 23
8254 45
8255 44
8256 42
8257 7
8258 46
8259 51
8260 30
8261 46
8262 46
8263 34
8264 27
8265 23
8266 39
8267 24
8268 23
8269 46
8270 37
8271 7
8272 41
8273 15
8274 8
8275 26
8276 25
8277 15
8278 51
8279 30
8280 34
8281 49
8282 46
8283 44
8284 54
8285 46
8286 30
8287 34
8288 30
8289 30
8290 34
8291 6
8292 14
8293 23
8294 34
8295 15
8296 8
8297 26
8298 34
8299 14
8300 41
8301 46
8302 8
8303 5
8304 46
8305 15
8306 0
8307 34
8308 19
8309 41
8310 7
8311 22
8312 34
8313 29
8314 34
8315 26
8316 44
8317 50
8318 0
8319 63
8320 58
8321 8
8322 44
8323 41
8324 46
8325 46
8326 25
8327 54
8328 34
8329 51
8330 30
8331 25
8332 34
8333 19
8334 22
8335 5
8336 46
8337 34
8338 30
8339 16
8340 8
8341 3
8342 17
8343 6
8344 30
8345 53
8346 23
8347 47
8348 14
8349 29
8350 30
8351 45
8352 0
8353 24
8354 55
8355 23
8356 25
8357 2
8358 25
8359 64
8360 13
8361 8
8362 34
8363 22
8364 34
8365 23
8366 47
8367 34
8368 44
8369 34
8370 9
8371 23
8372 38
8373 6
8374 6
8375 43
8376 15
8377 13
8378 46
8379 23
8380 6
8381 15
8382 12
8383 25
8384 40
8385 34
8386 8
8387 34
8388 42
8389 13
8390 65
8391 1
8392 12
8393 19
8394 54
8395 63
8396 5
8397 13
8398 8
8399 8
8400 70
8401 25
8402 15
8403 8
8404 8
8405 24
8406 34
8407 37
8408 34
8409 26
8410 25
8411 12
8412 23
8413 34
8414 23
8415 39
8416 51
8417 52
8418 34
8419 25
8420 46
8421 25
8422 41
8423 5
8424 46
8425 58
8426 49
8427 5
8428 46
8429 12
8430 38
8431 23
8432 4
8433 55
8434 13
8435 34
8436 3
8437 51
8438 30
8439 34
8440 51
8441 34
8442 30
8443 35
8444 23
8445 46
8446 6
8447 56
8448 34
8449 4
8450 14
8451 23
8452 62
8453 8
8454 34
8455 25
8456 54
8457 3
8458 29
8459 34
8460 66
8461 44
8462 58
8463 25
8464 8
8465 34
8466 6
8467 46
8468 35
8469 8
8470 8
8471 22
8472 32
8473 34
8474 34
8475 51
8476 19
8477 22
8478 36
8479 46
8480 12
8481 25
8482 8
8483 45
8484 8
8485 5
8486 8
8487 41
8488 42
8489 40
8490 50
8491 24
8492 41
8493 39
8494 23
8495 13
8496 51
8497 38
8498 30
8499 39
8500 42
8501 51
8502 23
8503 34
8504 23
8505 53
8506 39
8507 54
8508 34
8509 28
8510 15
8511 13
8512 42
8513 46
8514 45
8515 51
8516 16
8517 63
8518 44
8519 34
8520 3
8521 3
8522 44
8523 46
8524 23
8525 10
8526 12
8527 41
8528 29
8529 58
8530 23
8531 41
8532 51
8533 18
8534 13
8535 51
8536 34
8537 25
8538 29
8539 32
8540 34
8541 46
8542 3
8543 8
8544 4
8545 24
8546 3
8547 16
8548 6
8549 58
8550 12
8551 22
8552 8
8553 3
8554 74
8555 71
8556 3
8557 1
8558 25
8559 16
8560 34
8561 46
8562 34
8563 51
8564 4
8565 21
8566 1
8567 3
8568 34
8569 58
8570 3
8571 16
8572 46
8573 15
8574 47
8575 23
8576 34
8577 3
8578 30
8579 46
8580 1
8581 58
8582 70
8583 44
8584 23
8585 58
8586 24
8587 1
8588 58
8589 41
8590 1
8591 46
8592 16
8593 4
8594 28
8595 28
8596 3
8597 41
8598 8
8599 24
8600 52
8601 16
8602 34
8603 24
8604 15
8605 3
8606 24
8607 39
8608 47
8609 34
8610 23
8611 13
8612 22
8613 22
8614 26
8615 34
8616 25
8617 16
8618 13
8619 28
8620 15
8621 8
8622 25
8623 4
8624 46
8625 34
8626 41
8627 24
8628 74
8629 74
8630 35
8631 7
8632 68
8633 46
8634 41
8635 46
8636 46
8637 3
8638 28
8639 64
8640 13
8641 8
8642 34
8643 34
8644 2
8645 34
8646 63
8647 1
8648 38
8649 24
8650 25
8651 16
8652 5
8653 34
8654 51
8655 63
8656 44
8657 34
8658 16
8659 54
8660 21
8661 19
8662 44
8663 3
8664 1
8665 5
8666 25
8667 51
8668 10
8669 60
8670 34
8671 26
8672 44
8673 3
8674 38
8675 3
8676 67
8677 41
8678 8
8679 3
8680 34
8681 8
8682 44
8683 3
8684 1
8685 16
8686 28
8687 44
8688 8
8689 28
8690 46
8691 57
8692 28
8693 7
8694 12
8695 34
8696 38
8697 3
8698 24
8699 3
8700 8
8701 44
8702 1
8703 3
8704 25
8705 41
8706 9
8707 34
8708 34
8709 44
8710 44
8711 34
8712 23
8713 44
8714 35
8715 34
8716 34
8717 44
8718 3
8719 3
8720 29
8721 22
8722 3
8723 44
8724 1
8725 44
8726 22
8727 44
8728 22
8729 3
8730 34
8731 22
8732 35
8733 25
8734 6
8735 1
8736 30
8737 25
8738 3
8739 46
8740 22
8741 44
8742 0
8743 8
8744 47
8745 44
8746 3
8747 25
8748 0
8749 34
8750 5
8751 44
8752 34
8753 8
8754 50
8755 22
8756 8
8757 44
8758 44
8759 34
8760 28
8761 25
8762 22
8763 34
8764 46
8765 19
8766 34
8767 44
8768 3
8769 3
8770 8
8771 44
8772 22
8773 29
8774 35
8775 3
8776 51
8777 22
8778 8
8779 34
8780 28
8781 28
8782 16
8783 46
8784 3
8785 34
8786 22
8787 5
8788 23
8789 22
8790 5
8791 5
8792 5
8793 22
8794 44
8795 30
8796 24
8797 44
8798 7
8799 30
8800 22
8801 22
8802 28
8803 35
8804 44
8805 3
8806 42
8807 41
8808 19
8809 41
8810 34
8811 34
8812 16
8813 44
8814 3
8815 28
8816 3
8817 26
8818 34
8819 19
8820 30
8821 34
8822 25
8823 28
8824 22
8825 23
8826 60
8827 25
8828 5
8829 22
8830 3
8831 44
8832 22
8833 46
8834 3
8835 3
8836 52
8837 39
8838 34
8839 25
8840 34
8841 15
8842 22
8843 3
8844 34
8845 34
8846 22
8847 1
8848 28
8849 19
8850 46
8851 23
8852 8
8853 22
8854 30
8855 22
8856 41
8857 14
8858 56
8859 22
8860 8
8861 46
8862 16
8863 28
8864 8
8865 5
8866 45
8867 28
8868 39
8869 3
8870 12
8871 3
8872 10
8873 21
8874 8
8875 12
8876 0
8877 13
8878 8
8879 3
8880 58
8881 29
8882 30
8883 71
8884 18
8885 3
8886 23
8887 30
8888 36
8889 25
8890 23
8891 46
8892 3
8893 13
8894 26
8895 50
8896 44
8897 51
8898 40
8899 22
8900 22
8901 1
8902 45
8903 16
8904 53
8905 38
8906 46
8907 44
8908 3
8909 1
8910 1
8911 51
8912 13
8913 4
8914 18
8915 3
8916 3
8917 42
8918 34
8919 1
8920 3
8921 22
8922 51
8923 34
8924 30
8925 34
8926 4
8927 8
8928 3
8929 22
8930 51
8931 34
8932 22
8933 16
8934 34
8935 50
8936 22
8937 44
8938 39
8939 50
8940 22
8941 46
8942 22
8943 29
8944 28
8945 8
8946 51
8947 3
8948 26
8949 15
8950 51
8951 3
8952 22
8953 46
8954 25
8955 28
8956 44
8957 44
8958 51
8959 3
8960 34
8961 3
8962 69
8963 23
8964 22
8965 28
8966 21
8967 23
8968 46
8969 23
8970 19
8971 30
8972 60
8973 44
8974 34
8975 51
8976 18
8977 3
8978 15
8979 24
8980 51
8981 23
8982 25
8983 3
8984 34
8985 28
8986 67
8987 30
8988 34
8989 44
8990 71
8991 9
8992 51
8993 3
8994 23
8995 3
8996 44
8997 53
8998 30
8999 8
9000 19
9001 8
9002 41
9003 29
9004 64
9005 3
9006 44
9007 43
9008 44
9009 30
9010 22
9011 25
9012 16
9013 63
9014 20
9015 30
9016 41
9017 44
9018 35
9019 29
9020 51
9021 3
9022 44
9023 1
9024 44
9025 46
9026 51
9027 22
9028 1
9029 34
9030 1
9031 3
9032 44
9033 22
9034 44
9035 30
9036 28
9037 30
9038 7
9039 22
9040 39
9041 44
9042 25
9043 44
9044 16
9045 51
9046 15
9047 51
9048 44
9049 3
9050 34
9051 23
9052 29
9053 22
9054 3
9055 44
9056 3
9057 22
9058 34
9059 22
9060 17
9061 34
9062 34
9063 25
9064 22
9065 20
9066 47
9067 51
9068 15
9069 51
9070 23
9071 44
9072 30
9073 13
9074 26
9075 34
9076 22
9077 24
9078 51
9079 51
9080 1
9081 24
9082 1
9083 5
9084 51
9085 44
9086 65
9087 28
9088 23
9089 51
9090 44
9091 8
9092 34
9093 16
9094 8
9095 30
9096 16
9097 35
9098 1
9099 9
9100 41
9101 23
9102 34
9103 54
9104 38
9105 3
9106 25
9107 44
9108 39
9109 44
9110 44
9111 15
9112 30
9113 3
9114 44
9115 53
9116 22
9117 19
9118 19
9119 22
9120 21
9121 22
9122 4
9123 45
9124 8
9125 3
9126 30
9127 15
9128 51
9129 46
9130 42
9131 42
9132 57
9133 53
9134 34
9135 8
9136 46
9137 44
9138 34
9139 51
9140 22
9141 25
9142 23
9143 51
9144 3
9145 51
9146 24
9147 39
9148 30
9149 46
9150 23
9151 21
9152 34
9153 34
9154 28
9155 42
9156 58
9157 51
9158 6
9159 44
9160 44
9161 37
9162 1
9163 44
9164 15
9165 6
9166 3
9167 22
9168 32
9169 24
9170 6
9171 23
9172 23
9173 19
9174 9
9175 51
9176 34
9177 22
9178 8
9179 23
9180 3
9181 24
9182 15
9183 8
9184 51
9185 22
9186 44
9187 22
9188 8
9189 6
9190 22
9191 1
9192 28
9193 3
9194 22
9195 25
9196 46
9197 44
9198 25
9199 22
9200 1
9201 26
9202 30
9203 22
9204 51
9205 8
9206 21
9207 44
9208 0
9209 46
9210 22
9211 24
9212 6
9213 34
9214 72
9215 22
9216 3
9217 22
9218 15
9219 3
9220 23
9221 34
9222 51
9223 7
9224 3
9225 22
9226 51
9227 15
9228 63
9229 58
9230 42
9231 44
9232 44
9233 6
9234 30
9235 34
9236 15
9237 44
9238 38
9239 22
9240 0
9241 30
9242 44
9243 51
9244 51
9245 7
9246 3
9247 3
9248 51
9249 51
9250 51
9251 51
9252 44
9253 22
9254 22
9255 33
9256 34
9257 60
9258 15
9259 23
9260 3
9261 8
9262 50
9263 4
9264 42
9265 61
9266 3
9267 15
9268 22
9269 22
9270 44
9271 46
9272 26
9273 15
9274 73
9275 3
9276 23
9277 3
9278 44
9279 15
9280 22
9281 22
9282 24
9283 38
9284 34
9285 34
9286 69
9287 31
9288 22
9289 34
9290 51
9291 3
9292 3
9293 5
9294 22
9295 19
9296 24
9297 55
9298 3
9299 46
9300 3
9301 42
9302 4
9303 34
9304 41
9305 66
9306 41
9307 62
9308 3
9309 48
9310 5
9311 3
9312 3
9313 51
9314 34
9315 51
9316 41
9317 24
9318 22
9319 44
9320 44
9321 34
9322 51
9323 44
9324 51
9325 34
9326 3
9327 34
9328 34
9329 36
9330 41
9331 51
9332 1
9333 44
9334 51
9335 51
9336 22
9337 34
9338 8
9339 41
9340 51
9341 51
9342 22
9343 1
9344 44
9345 44
9346 44
9347 41
9348 34
9349 42
9350 22
9351 24
9352 44
9353 34
9354 1
9355 34
9356 3
9357 32
9358 51
9359 29
9360 67
9361 3
9362 44
9363 41
9364 34
9365 18
9366 44
9367 14
9368 56
9369 54
9370 5
9371 51
9372 44
9373 15
9374 41
9375 34
9376 41
9377 28
9378 1
9379 22
9380 46
9381 59
9382 30
9383 29
9384 28
9385 44
9386 34
9387 22
9388 51
9389 15
9390 3
9391 74
9392 22
9393 41
9394 44
9395 29
9396 3
9397 65
9398 41
9399 51
9400 53
9401 3
9402 29
9403 51
9404 3
9405 34
9406 3
9407 2
9408 51
9409 22
9410 23
9411 29
9412 3
9413 41
9414 29
9415 44
9416 18
9417 74
9418 56
9419 1
9420 34
9421 3
9422 46
9423 18
9424 5
9425 51
9426 41
9427 34
9428 3
9429 22
9430 51
9431 41
9432 6
9433 23
9434 11
9435 41
9436 4
9437 44
9438 29
9439 34
9440 54
9441 34
9442 15
9443 3
9444 34
9445 51
9446 5
9447 7
9448 41
9449 21
9450 5
9451 46
9452 51
9453 13
9454 58
9455 60
9456 8
9457 34
9458 41
9459 44
9460 71
9461 46
9462 3
9463 22
9464 41
9465 51
9466 56
9467 18
9468 41
9469 44
9470 51
9471 34
9472 3
9473 13
9474 33
9475 48
9476 38
9477 34
9478 51
9479 44
9480 32
9481 3
9482 34
9483 34
9484 25
9485 15
9486 44
9487 34
9488 58
9489 51
9490 54
9491 25
9492 27
9493 44
9494 22
9495 51
9496 34
9497 51
9498 51
9499 44
9500 1
9501 58
9502 29
9503 44
9504 58
9505 25
9506 1
9507 40
9508 34
9509 24
9510 15
9511 14
9512 34
9513 51
9514 8
9515 51
9516 41
9517 51
9518 30
9519 44
9520 51
9521 63
9522 3
9523 14
9524 25
9525 25
9526 44
9527 53
9528 34
9529 2
9530 44
9531 3
9532 51
9533 44
9534 15
9535 44
9536 44
9537 25
9538 51
9539 41
9540 22
9541 58
9542 58
9543 3
9544 34
9545 25
9546 8
9547 41
9548 16
9549 44
9550 34
9551 0
9552 25
9553 8
9554 72
9555 51
9556 22
9557 25
9558 34
9559 41
9560 24
9561 17
9562 8
9563 3
9564 34
9565 71
9566 26
9567 7
9568 58
9569 3
9570 3
9571 16
9572 22
9573 71
9574 25
9575 12
9576 31
9577 24
9578 44
9579 34
9580 22
9581 34
9582 25
9583 51
9584 58
9585 51
9586 22
9587 37
9588 34
9589 34
9590 5
9591 44
9592 70
9593 41
9594 1
9595 44
9596 44
9597 55
9598 16
9599 22
9600 16
9601 3
9602 22
9603 3
9604 42
9605 36
9606 41
9607 34
9608 28
9609 22
9610 44
9611 8
9612 16
9613 44
9614 25
9615 24
9616 52
9617 3
9618 25
9619 41
9620 3
9621 6
9622 50
9623 1
9624 22
9625 3
9626 52
9627 41
9628 21
9629 44
9630 7
9631 44
9632 51
9633 44
9634 41
9635 22
9636 6
9637 41
9638 51
9639 18
9640 44
9641 22
9642 50
9643 42
9644 44
9645 44
9646 51
9647 3
9648 19
9649 51
9650 38
9651 3
9652 19
9653 44
9654 21
9655 57
9656 3
9657 3
9658 21
9659 24
9660 24
9661 25
9662 3
9663 30
9664 44
9665 8
9666 44
9667 22
9668 54
9669 58
9670 16
9671 38
9672 27
9673 44
9674 22
9675 25
9676 21
9677 51
9678 5
9679 3
9680 3
9681 28
9682 44
9683 3
9684 25
9685 22
9686 25
9687 44
9688 25
9689 1
9690 16
9691 22
9692 3
9693 15
9694 44
9695 22
9696 44
9697 65
9698 41
9699 8
9700 23
9701 44
9702 41
9703 51
9704 22
9705 42
9706 46
9707 15
9708 22
9709 34
9710 51
9711 41
9712 58
9713 51
9714 23
9715 23
9716 3
9717 51
9718 13
9719 44
9720 38
9721 41
9722 41
9723 44
9724 41
9725 25
9726 30
9727 44
9728 44
9729 34
9730 51
9731 41
9732 23
9733 25
9734 46
9735 44
9736 26
9737 46
9738 22
9739 23
9740 51
9741 44
9742 46
9743 25
9744 25
9745 16
9746 51
9747 25
9748 25
9749 25
9750 46
9751 25
9752 51
9753 44
9754 44
9755 25
9756 44
9757 22
9758 2
9759 44
9760 46
9761 51
9762 34
9763 41
9764 3
9765 0
9766 25
9767 46
9768 64
9769 44
9770 41
9771 22
9772 23
9773 25
9774 29
9775 32
9776 34
9777 25
9778 3
9779 3
9780 23
9781 44
9782 41
9783 3
9784 41
9785 3
9786 25
9787 3
9788 29
9789 44
9790 44
9791 41
9792 46
9793 25
9794 3
9795 5
9796 51
9797 51
9798 3
9799 15
9800 29
9801 30
9802 46
9803 41
9804 51
9805 34
9806 44
9807 46
9808 46
9809 54
9810 14
9811 44
9812 23
9813 25
9814 34
9815 46
9816 23
9817 29
9818 58
9819 51
9820 41
9821 34
9822 16
9823 44
9824 22
9825 46
9826 22
9827 3
9828 34
9829 7
9830 32
9831 23
9832 46
9833 3
9834 25
9835 28
9836 23
9837 25
9838 38
9839 36
9840 25
9841 23
9842 22
9843 30
9844 34
9845 9
9846 30
9847 51
9848 3
9849 3
9850 23
9851 34
9852 25
9853 34
9854 23
9855 51
9856 44
9857 44
9858 34
9859 25
9860 10
9861 46
9862 34
9863 51
9864 23
9865 19
9866 51
9867 44
9868 34
9869 41
9870 22
9871 23
9872 45
9873 28
9874 41
9875 44
9876 23
9877 67
9878 22
9879 23
9880 22
9881 23
9882 44
9883 22
9884 41
9885 54
9886 74
9887 25
9888 46
9889 51
9890 25
9891 44
9892 44
9893 6
9894 22
9895 56
9896 22
9897 22
9898 25
9899 41
9900 46
9901 23
9902 51
9903 44
9904 44
9905 41
9906 26
9907 13
9908 25
9909 23
9910 44
9911 46
9912 22
9913 41
9914 66
9915 12
9916 25
9917 41
9918 41
9919 46
9920 44
9921 25
9922 22
9923 26
9924 46
9925 10
9926 51
9927 1
9928 22
9929 46
9930 44
9931 41
9932 41
9933 44
9934 34
9935 3
9936 29
9937 25
9938 41
9939 22
9940 51
9941 19
9942 3
9943 34
9944 44
9945 1
9946 34
9947 23
9948 22
9949 8
9950 39
9951 25
9952 34
9953 41
9954 51
9955 3
9956 23
9957 25
9958 25
9959 46
9960 41
9961 50
9962 8
9963 22
9964 58
9965 25
9966 22
9967 51
9968 22
9969 41
9970 23
9971 44
9972 46
9973 19
9974 23
9975 41
9976 34
9977 41
9978 23
9979 25
9980 46
9981 41
9982 23
9983 23
9984 41
9985 44
9986 51
9987 34
9988 8
9989 34
9990 3
9991 47
9992 41
9993 3
9994 34
9995 41
9996 3
9997 28
9998 46
9999 51
