0 0
1 1
2 2
3 3
4 4
5 5
6 6
7 7
8 8
9 9
10 6
11 8
12 10
13 11
14 12
15 13
16 14
17 15
18 16
19 5
20 17
21 18
22 14
23 19
24 20
25 17
26 21
27 22
28 20
29 22
30 18
31 8
32 20
33 8
34 23
35 24
36 24
37 25
38 26
39 27
40 28
41 13
42 16
43 29
44 30
45 31
46 32
47 25
48 33
49 24
50 5
51 16
52 34
53 31
54 12
55 17
56 35
57 7
58 36
59 37
60 38
61 14
62 39
63 40
64 41
65 25
66 39
67 42
68 43
69 44
70 14
71 10
72 14
73 21
74 11
75 16
76 42
77 26
78 45
79 46
80 47
81 48
82 45
83 49
84 45
85 32
86 50
87 29
88 51
89 52
90 27
91 53
92 49
93 54
94 32
95 1
96 55
97 33
98 56
99 57
100 58
101 59
102 51
103 25
104 60
105 13
106 61
107 30
108 60
109 15
110 62
111 63
112 64
113 60
114 65
115 48
116 66
117 50
118 67
119 43
120 30
121 7
122 23
123 32
124 68
125 23
126 19
127 21
128 3
129 69
130 38
131 70
132 21
133 29
134 71
135 72
136 22
137 73
138 53
139 74
140 58
141 64
142 75
143 35
144 14
145 42
146 11
147 76
148 32
149 22
150 44
151 77
152 78
153 23
154 60
155 2
156 43
157 70
158 38
159 54
160 43
161 34
162 36
163 2
164 63
165 6
166 53
167 57
168 44
169 29
170 78
171 39
172 51
173 74
174 34
175 55
176 58
177 37
178 43
179 3
180 77
181 69
182 34
183 1
184 31
185 5
186 35
187 66
188 69
189 79
190 10
191 51
192 73
193 63
194 80
195 24
196 32
197 35
198 75
199 33
200 43
201 81
202 65
203 45
204 77
205 82
206 81
207 20
208 81
209 59
210 32
211 58
212 18
213 27
214 75
215 57
216 23
217 27
218 83
219 57
220 68
221 25
222 33
223 83
224 51
225 20
226 65
227 84
228 12
229 16
230 21
231 35
232 22
233 31
234 70
235 85
236 32
237 86
238 68
239 72
240 63
241 22
242 67
243 87
244 85
245 62
246 86
247 51
248 69
249 87
250 10
251 77
252 37
253 18
254 4
255 21
256 43
257 75
258 46
259 35
260 47
261 22
262 11
263 36
264 39
265 60
266 70
267 57
268 35
269 40
270 70
271 2
272 12
273 30
274 9
275 57
276 51
277 7
278 43
279 54
280 6
281 24
282 23
283 70
284 23
285 76
286 49
287 25
288 50
289 45
290 23
291 87
292 13
293 34
294 16
295 1
296 77
297 20
298 86
299 88
300 26
301 11
302 51
303 5
304 25
305 49
306 42
307 12
308 45
309 71
310 1
311 67
312 55
313 36
314 70
315 89
316 55
317 21
318 55
319 70
320 1
321 0
322 20
323 64
324 21
325 20
326 20
327 80
328 58
329 49
330 54
331 43
332 90
333 73
334 1
335 22
336 6
337 14
338 33
339 3
340 91
341 16
342 81
343 21
344 71
345 54
346 72
347 89
348 31
349 78
350 29
351 64
352 79
353 85
354 77
355 16
356 1
357 6
358 29
359 34
360 77
361 92
362 59
363 21
364 29
365 32
366 43
367 52
368 21
369 93
370 19
371 89
372 46
373 90
374 1
375 24
376 51
377 62
378 44
379 90
380 25
381 36
382 63
383 39
384 89
385 32
386 52
387 10
388 16
389 3
390 19
391 24
392 39
393 69
394 81
395 11
396 76
397 23
398 83
399 24
400 66
401 23
402 7
403 16
404 20
405 81
406 15
407 35
408 93
409 2
410 15
411 89
412 32
413 53
414 8
415 18
416 33
417 14
418 76
419 45
420 63
421 37
422 71
423 10
424 77
425 11
426 50
427 27
428 20
429 22
430 78
431 65
432 3
433 52
434 68
435 16
436 67
437 45
438 56
439 29
440 48
441 74
442 50
443 31
444 36
445 80
446 45
447 13
448 72
449 90
450 39
451 44
452 29
453 33
454 35
455 67
456 18
457 34
458 75
459 19
460 35
461 26
462 16
463 94
464 57
465 63
466 47
467 13
468 7
469 93
470 2
471 0
472 70
473 84
474 28
475 1
476 6
477 13
478 49
479 17
480 24
481 70
482 33
483 81
484 52
485 71
486 12
487 22
488 34
489 23
490 4
491 12
492 15
493 90
494 45
495 40
496 60
497 5
498 50
499 95
500 66
501 69
502 73
503 75
504 84
505 6
506 82
507 84
508 3
509 42
510 24
511 85
512 37
513 51
514 37
515 39
516 4
517 79
518 24
519 42
520 19
521 91
522 70
523 56
524 31
525 3
526 19
527 85
528 65
529 91
530 12
531 94
532 63
533 30
534 57
535 19
536 19
537 88
538 45
539 91
540 17
541 87
542 54
543 73
544 38
545 42
546 87
547 33
548 89
549 49
550 77
551 51
552 60
553 24
554 12
555 63
556 30
557 34
558 27
559 23
560 30
561 89
562 3
563 41
564 19
565 27
566 43
567 27
568 60
569 73
570 84
571 70
572 48
573 16
574 3
575 31
576 47
577 89
578 35
579 63
580 0
581 6
582 57
583 19
584 0
585 33
586 52
587 9
588 21
589 83
590 7
591 45
592 42
593 23
594 89
595 46
596 27
597 1
598 56
599 30
600 22
601 59
602 85
603 30
604 30
605 94
606 40
607 71
608 35
609 80
610 18
611 77
612 79
613 41
614 92
615 20
616 96
617 20
618 71
619 45
620 58
621 76
622 75
623 10
624 55
625 35
626 97
627 42
628 47
629 13
630 97
631 40
632 91
633 59
634 50
635 40
636 73
637 19
638 70
639 81
640 91
641 86
642 83
643 68
644 78
645 78
646 97
647 12
648 14
649 64
650 22
651 70
652 37
653 97
654 21
655 2
656 20
657 5
658 7
659 23
660 82
661 23
662 85
663 34
664 13
665 81
666 25
667 38
668 22
669 85
670 35
671 18
672 59
673 31
674 84
675 52
676 26
677 33
678 91
679 5
680 80
681 7
682 87
683 39
684 31
685 87
686 7
687 20
688 27
689 57
690 70
691 20
692 65
693 33
694 68
695 40
696 92
697 22
698 18
699 75
700 10
701 34
702 93
703 81
704 89
705 33
706 69
707 33
708 42
709 16
710 0
711 78
712 1
713 58
714 38
715 5
716 77
717 1
718 1
719 52
720 84
721 44
722 10
723 25
724 51
725 80
726 9
727 97
728 39
729 25
730 12
731 83
732 46
733 61
734 5
735 54
736 2
737 29
738 40
739 83
740 17
741 14
742 16
743 81
744 71
745 40
746 51
747 83
748 58
749 97
750 69
751 57
752 32
753 26
754 71
755 22
756 9
757 48
758 22
759 83
760 97
761 40
762 66
763 40
764 57
765 30
766 16
767 0
768 42
769 15
770 43
771 54
772 45
773 58
774 29
775 70
776 31
777 22
778 31
779 21
780 36
781 75
782 78
783 31
784 78
785 15
786 35
787 89
788 65
789 77
790 93
791 32
792 80
793 70
794 24
795 80
796 11
797 25
798 62
799 5
800 13
801 23
802 57
803 74
804 59
805 83
806 42
807 36
808 39
809 90
810 31
811 42
812 75
813 83
814 31
815 21
816 97
817 20
818 57
819 7
820 59
821 74
822 48
823 9
824 54
825 4
826 68
827 56
828 35
829 42
830 12
831 32
832 26
833 28
834 57
835 97
836 33
837 39
838 93
839 22
840 8
841 29
842 0
843 77
844 31
845 47
846 50
847 24
848 23
849 11
850 45
851 24
852 68
853 89
854 68
855 48
856 29
857 76
858 19
859 17
860 48
861 45
862 63
863 35
864 79
865 85
866 20
867 52
868 83
869 27
870 75
871 1
872 92
873 62
874 17
875 75
876 37
877 5
878 63
879 15
880 11
881 98
882 78
883 51
884 16
885 24
886 65
887 31
888 39
889 71
890 38
891 75
892 41
893 31
894 28
895 0
896 48
897 8
898 93
899 70
900 20
901 10
902 79
903 41
904 73
905 83
906 59
907 50
908 92
909 42
910 99
911 8
912 29
913 88
914 4
915 25
916 41
917 10
918 71
919 21
920 13
921 1
922 4
923 8
924 35
925 62
926 92
927 40
928 13
929 69
930 15
931 33
932 30
933 13
934 86
935 3
936 51
937 16
938 97
939 8
940 24
941 1
942 63
943 46
944 16
945 45
946 73
947 7
948 59
949 51
950 90
951 39
952 31
953 51
954 44
955 37
956 75
957 93
958 34
959 63
960 14
961 7
962 79
963 77
964 7
965 6
966 23
967 59
968 39
969 38
970 23
971 59
972 46
973 2
974 45
975 27
976 13
977 29
978 72
979 40
980 51
981 55
982 82
983 81
984 62
985 42
986 79
987 44
988 39
989 72
990 71
991 60
992 37
993 34
994 50
995 3
996 64
997 65
998 63
999 83
1000 9
1001 63
1002 78
1003 6
1004 7
1005 19
1006 57
1007 18
1008 90
1009 20
1010 78
1011 85
1012 32
1013 65
1014 82
1015 85
1016 7
1017 12
1018 20
1019 48
1020 50
1021 51
1022 29
1023 42
1024 69
1025 88
1026 50
1027 85
1028 15
1029 4
1030 91
1031 20
1032 63
1033 73
1034 4
1035 68
1036 42
1037 77
1038 91
1039 91
1040 54
1041 23
1042 93
1043 43
1044 17
1045 10
1046 23
1047 81
1048 16
1049 45
1050 55
1051 23
1052 64
1053 2
1054 88
1055 78
1056 72
1057 37
1058 84
1059 45
1060 78
1061 31
1062 8
1063 76
1064 70
1065 50
1066 78
1067 8
1068 22
1069 56
1070 65
1071 35
1072 37
1073 34
1074 67
1075 35
1076 91
1077 66
1078 78
1079 25
1080 94
1081 82
1082 92
1083 81
1084 49
1085 33
1086 14
1087 11
1088 4
1089 39
1090 31
1091 2
1092 14
1093 24
1094 52
1095 36
1096 3
1097 20
1098 20
1099 20
1100 29
1101 67
1102 43
1103 48
1104 34
1105 80
1106 43
1107 29
1108 59
1109 60
1110 31
1111 34
1112 100
1113 4
1114 10
1115 46
1116 84
1117 66
1118 79
1119 24
1120 40
1121 3
1122 35
1123 8
1124 97
1125 85
1126 48
1127 77
1128 23
1129 10
1130 47
1131 18
1132 68
1133 84
1134 1
1135 15
1136 16
1137 23
1138 58
1139 18
1140 67
1141 76
1142 32
1143 11
1144 35
1145 65
1146 70
1147 34
1148 22
1149 12
1150 27
1151 43
1152 44
1153 54
1154 50
1155 81
1156 19
1157 91
1158 79
1159 16
1160 65
1161 12
1162 87
1163 39
1164 26
1165 25
1166 85
1167 18
1168 16
1169 89
1170 63
1171 64
1172 38
1173 18
1174 61
1175 63
1176 81
1177 71
1178 33
1179 29
1180 22
1181 43
1182 70
1183 94
1184 32
1185 37
1186 63
1187 12
1188 40
1189 67
1190 89
1191 77
1192 91
1193 80
1194 10
1195 24
1196 55
1197 31
1198 81
1199 59
1200 16
1201 85
1202 71
1203 9
1204 31
1205 49
1206 69
1207 28
1208 19
1209 47
1210 82
1211 66
1212 55
1213 57
1214 29
1215 1
1216 82
1217 39
1218 27
1219 74
1220 22
1221 71
1222 87
1223 49
1224 29
1225 83
1226 0
1227 9
1228 56
1229 45
1230 60
1231 92
1232 67
1233 30
1234 28
1235 10
1236 53
1237 19
1238 21
1239 50
1240 11
1241 13
1242 21
1243 72
1244 24
1245 79
1246 6
1247 37
1248 45
1249 53
1250 71
1251 92
1252 56
1253 64
1254 2
1255 46
1256 48
1257 20
1258 1
1259 35
1260 78
1261 44
1262 12
1263 90
1264 45
1265 11
1266 67
1267 10
1268 44
1269 0
1270 83
1271 45
1272 35
1273 49
1274 33
1275 33
1276 70
1277 30
1278 34
1279 34
1280 50
1281 40
1282 23
1283 89
1284 55
1285 34
1286 35
1287 44
1288 88
1289 42
1290 37
1291 89
1292 73
1293 1
1294 97
1295 23
1296 23
1297 93
1298 93
1299 86
1300 38
1301 10
1302 97
1303 18
1304 24
1305 90
1306 55
1307 17
1308 33
1309 91
1310 4
1311 88
1312 43
1313 30
1314 91
1315 55
1316 72
1317 89
1318 69
1319 7
1320 31
1321 77
1322 70
1323 34
1324 24
1325 2
1326 21
1327 68
1328 51
1329 21
1330 32
1331 34
1332 52
1333 87
1334 21
1335 12
1336 36
1337 27
1338 11
1339 9
1340 31
1341 15
1342 54
1343 27
1344 27
1345 23
1346 86
1347 71
1348 82
1349 56
1350 10
1351 21
1352 63
1353 40
1354 25
1355 64
1356 4
1357 54
1358 35
1359 19
1360 16
1361 59
1362 42
1363 42
1364 70
1365 49
1366 90
1367 92
1368 91
1369 17
1370 81
1371 30
1372 41
1373 8
1374 101
1375 9
1376 35
1377 21
1378 11
1379 16
1380 45
1381 78
1382 74
1383 25
1384 52
1385 52
1386 69
1387 82
1388 79
1389 38
1390 84
1391 61
1392 66
1393 33
1394 13
1395 45
1396 56
1397 10
1398 59
1399 31
1400 1
1401 7
1402 59
1403 82
1404 46
1405 64
1406 14
1407 74
1408 97
1409 58
1410 40
1411 68
1412 59
1413 89
1414 20
1415 58
1416 94
1417 51
1418 4
1419 57
1420 65
1421 58
1422 64
1423 51
1424 12
1425 53
1426 51
1427 15
1428 23
1429 70
1430 45
1431 5
1432 65
1433 19
1434 42
1435 78
1436 69
1437 11
1438 49
1439 34
1440 33
1441 59
1442 74
1443 74
1444 102
1445 30
1446 71
1447 71
1448 16
1449 87
1450 26
1451 59
1452 69
1453 25
1454 42
1455 24
1456 48
1457 49
1458 63
1459 41
1460 64
1461 11
1462 7
1463 88
1464 75
1465 83
1466 69
1467 11
1468 88
1469 82
1470 28
1471 45
1472 69
1473 3
1474 35
1475 69
1476 23
1477 59
1478 23
1479 25
1480 14
1481 25
1482 38
1483 24
1484 54
1485 50
1486 68
1487 19
1488 1
1489 22
1490 92
1491 24
1492 59
1493 74
1494 26
1495 19
1496 3
1497 81
1498 93
1499 20
1500 68
1501 92
1502 33
1503 19
1504 16
1505 33
1506 22
1507 60
1508 69
1509 34
1510 14
1511 6
1512 25
1513 21
1514 66
1515 5
1516 58
1517 2
1518 43
1519 23
1520 57
1521 17
1522 40
1523 24
1524 20
1525 49
1526 89
1527 40
1528 9
1529 33
1530 66
1531 75
1532 71
1533 91
1534 78
1535 81
1536 94
1537 38
1538 70
1539 6
1540 56
1541 41
1542 88
1543 55
1544 16
1545 84
1546 63
1547 24
1548 91
1549 46
1550 88
1551 91
1552 84
1553 8
1554 92
1555 29
1556 10
1557 54
1558 97
1559 63
1560 45
1561 9
1562 46
1563 69
1564 17
1565 70
1566 80
1567 11
1568 23
1569 47
1570 16
1571 23
1572 33
1573 39
1574 0
1575 1
1576 0
1577 84
1578 81
1579 54
1580 31
1581 73
1582 45
1583 3
1584 70
1585 42
1586 90
1587 65
1588 73
1589 86
1590 11
1591 27
1592 23
1593 11
1594 34
1595 21
1596 54
1597 45
1598 34
1599 3
1600 20
1601 88
1602 71
1603 62
1604 52
1605 27
1606 70
1607 91
1608 47
1609 70
1610 82
1611 47
1612 13
1613 94
1614 78
1615 35
1616 80
1617 67
1618 42
1619 45
1620 46
1621 77
1622 88
1623 57
1624 29
1625 40
1626 23
1627 16
1628 14
1629 13
1630 103
1631 6
1632 30
1633 49
1634 71
1635 49
1636 23
1637 13
1638 21
1639 39
1640 56
1641 77
1642 97
1643 5
1644 20
1645 20
1646 28
1647 38
1648 43
1649 78
1650 33
1651 23
1652 43
1653 86
1654 31
1655 91
1656 92
1657 66
1658 23
1659 86
1660 91
1661 55
1662 50
1663 13
1664 3
1665 39
1666 72
1667 32
1668 92
1669 66
1670 42
1671 74
1672 70
1673 9
1674 13
1675 37
1676 72
1677 27
1678 7
1679 92
1680 42
1681 40
1682 57
1683 24
1684 71
1685 46
1686 65
1687 16
1688 31
1689 52
1690 31
1691 34
1692 69
1693 32
1694 54
1695 34
1696 93
1697 37
1698 29
1699 2
1700 3
1701 24
1702 83
1703 92
1704 68
1705 58
1706 33
1707 25
1708 33
1709 31
1710 92
1711 86
1712 24
1713 70
1714 90
1715 22
1716 34
1717 23
1718 58
1719 80
1720 45
1721 47
1722 57
1723 65
1724 70
1725 88
1726 35
1727 14
1728 84
1729 8
1730 81
1731 79
1732 36
1733 20
1734 32
1735 35
1736 0
1737 20
1738 74
1739 36
1740 8
1741 82
1742 69
1743 52
1744 93
1745 11
1746 84
1747 42
1748 35
1749 30
1750 21
1751 20
1752 24
1753 27
1754 44
1755 6
1756 34
1757 20
1758 7
1759 84
1760 39
1761 42
1762 81
1763 6
1764 72
1765 50
1766 90
1767 62
1768 32
1769 6
1770 28
1771 82
1772 37
1773 43
1774 22
1775 45
1776 62
1777 37
1778 17
1779 72
1780 39
1781 85
1782 74
1783 81
1784 37
1785 30
1786 42
1787 56
1788 83
1789 59
1790 25
1791 70
1792 30
1793 25
1794 90
1795 58
1796 41
1797 59
1798 14
1799 66
1800 31
1801 74
1802 55
1803 12
1804 33
1805 49
1806 29
1807 72
1808 70
1809 90
1810 93
1811 97
1812 0
1813 93
1814 46
1815 88
1816 12
1817 36
1818 49
1819 29
1820 0
1821 52
1822 46
1823 70
1824 82
1825 81
1826 5
1827 60
1828 82
1829 5
1830 5
1831 37
1832 13
1833 97
1834 73
1835 43
1836 89
1837 37
1838 71
1839 67
1840 21
1841 69
1842 59
1843 71
1844 13
1845 53
1846 4
1847 62
1848 40
1849 92
1850 75
1851 82
1852 81
1853 32
1854 19
1855 41
1856 74
1857 42
1858 85
1859 69
1860 32
1861 34
1862 79
1863 1
1864 7
1865 69
1866 37
1867 86
1868 59
1869 86
1870 45
1871 2
1872 56
1873 51
1874 23
1875 15
1876 36
1877 72
1878 28
1879 6
1880 62
1881 63
1882 81
1883 12
1884 65
1885 69
1886 85
1887 26
1888 34
1889 60
1890 24
1891 27
1892 66
1893 49
1894 24
1895 73
1896 5
1897 4
1898 32
1899 66
1900 30
1901 57
1902 26
1903 12
1904 14
1905 80
1906 66
1907 89
1908 45
1909 20
1910 63
1911 84
1912 17
1913 36
1914 21
1915 3
1916 27
1917 17
1918 55
1919 90
1920 20
1921 32
1922 89
1923 85
1924 10
1925 34
1926 18
1927 27
1928 45
1929 91
1930 63
1931 81
1932 39
1933 71
1934 68
1935 43
1936 64
1937 14
1938 93
1939 43
1940 25
1941 0
1942 20
1943 54
1944 25
1945 12
1946 65
1947 68
1948 41
1949 85
1950 75
1951 61
1952 1
1953 13
1954 91
1955 81
1956 15
1957 77
1958 49
1959 51
1960 70
1961 35
1962 49
1963 45
1964 65
1965 28
1966 25
1967 67
1968 64
1969 86
1970 24
1971 31
1972 17
1973 76
1974 46
1975 6
1976 35
1977 65
1978 21
1979 80
1980 88
1981 41
1982 75
1983 39
1984 0
1985 26
1986 14
1987 44
1988 25
1989 40
1990 51
1991 31
1992 29
1993 89
1994 97
1995 49
1996 29
1997 91
1998 72
1999 48
2000 88
2001 84
2002 8
2003 80
2004 40
2005 78
2006 70
2007 12
2008 45
2009 5
2010 89
2011 50
2012 79
2013 51
2014 21
2015 86
2016 21
2017 90
2018 48
2019 99
2020 70
2021 64
2022 45
2023 51
2024 70
2025 2
2026 18
2027 70
2028 40
2029 69
2030 90
2031 91
2032 30
2033 50
2034 41
2035 78
2036 69
2037 51
2038 65
2039 53
2040 82
2041 66
2042 34
2043 86
2044 88
2045 82
2046 20
2047 81
2048 29
2049 93
2050 78
2051 25
2052 14
2053 0
2054 50
2055 58
2056 7
2057 15
2058 14
2059 43
2060 29
2061 72
2062 16
2063 60
2064 51
2065 39
2066 0
2067 35
2068 15
2069 70
2070 15
2071 81
2072 17
2073 34
2074 24
2075 84
2076 25
2077 88
2078 77
2079 46
2080 47
2081 79
2082 35
2083 38
2084 45
2085 51
2086 42
2087 39
2088 40
2089 81
2090 78
2091 88
2092 28
2093 74
2094 45
2095 69
2096 72
2097 24
2098 31
2099 69
2100 13
2101 17
2102 49
2103 63
2104 40
2105 97
2106 42
2107 44
2108 14
2109 13
2110 20
2111 0
2112 74
2113 86
2114 74
2115 91
2116 97
2117 33
2118 12
2119 78
2120 5
2121 58
2122 53
2123 58
2124 50
2125 45
2126 16
2127 1
2128 39
2129 12
2130 7
2131 80
2132 2
2133 84
2134 60
2135 49
2136 85
2137 16
2138 23
2139 35
2140 14
2141 85
2142 6
2143 22
2144 43
2145 10
2146 24
2147 9
2148 91
2149 68
2150 75
2151 77
2152 13
2153 15
2154 49
2155 76
2156 85
2157 15
2158 89
2159 40
2160 11
2161 49
2162 48
2163 87
2164 80
2165 51
2166 37
2167 8
2168 85
2169 19
2170 55
2171 66
2172 62
2173 38
2174 84
2175 66
2176 72
2177 51
2178 92
2179 15
2180 91
2181 88
2182 53
2183 6
2184 10
2185 70
2186 97
2187 22
2188 59
2189 24
2190 27
2191 29
2192 36
2193 58
2194 31
2195 39
2196 33
2197 46
2198 0
2199 25
2200 13
2201 56
2202 49
2203 33
2204 11
2205 92
2206 63
2207 85
2208 3
2209 4
2210 11
2211 55
2212 36
2213 67
2214 90
2215 19
2216 79
2217 74
2218 90
2219 7
2220 0
2221 71
2222 12
2223 24
2224 59
2225 12
2226 37
2227 1
2228 92
2229 58
2230 97
2231 45
2232 34
2233 19
2234 74
2235 90
2236 14
2237 51
2238 44
2239 27
2240 71
2241 41
2242 35
2243 3
2244 75
2245 63
2246 33
2247 29
2248 92
2249 78
2250 81
2251 59
2252 44
2253 44
2254 70
2255 6
2256 75
2257 4
2258 89
2259 17
2260 46
2261 92
2262 62
2263 43
2264 59
2265 69
2266 45
2267 22
2268 14
2269 3
2270 21
2271 29
2272 17
2273 43
2274 54
2275 27
2276 49
2277 86
2278 21
2279 35
2280 39
2281 45
2282 69
2283 73
2284 41
2285 40
2286 81
2287 19
2288 69
2289 1
2290 88
2291 97
2292 8
2293 9
2294 23
2295 54
2296 86
2297 54
2298 35
2299 35
2300 92
2301 13
2302 83
2303 16
2304 89
2305 68
2306 23
2307 8
2308 42
2309 50
2310 22
2311 1
2312 51
2313 13
2314 76
2315 59
2316 17
2317 83
2318 85
2319 33
2320 58
2321 86
2322 27
2323 56
2324 24
2325 84
2326 51
2327 6
2328 85
2329 47
2330 44
2331 21
2332 20
2333 97
2334 11
2335 62
2336 50
2337 20
2338 47
2339 10
2340 59
2341 70
2342 33
2343 59
2344 81
2345 67
2346 24
2347 5
2348 44
2349 73
2350 81
2351 77
2352 77
2353 32
2354 57
2355 42
2356 21
2357 89
2358 24
2359 51
2360 58
2361 44
2362 45
2363 34
2364 16
2365 65
2366 72
2367 40
2368 68
2369 38
2370 64
2371 77
2372 58
2373 78
2374 77
2375 42
2376 97
2377 45
2378 61
2379 75
2380 16
2381 1
2382 24
2383 88
2384 23
2385 81
2386 14
2387 76
2388 20
2389 52
2390 39
2391 82
2392 18
2393 59
2394 8
2395 89
2396 50
2397 35
2398 80
2399 97
2400 91
2401 49
2402 25
2403 47
2404 97
2405 25
2406 6
2407 45
2408 48
2409 54
2410 61
2411 30
2412 67
2413 75
2414 64
2415 46
2416 73
2417 62
2418 59
2419 85
2420 83
2421 34
2422 89
2423 70
2424 21
2425 5
2426 72
2427 24
2428 14
2429 12
2430 54
2431 75
2432 45
2433 66
2434 47
2435 7
2436 7
2437 39
2438 44
2439 43
2440 89
2441 19
2442 66
2443 78
2444 70
2445 46
2446 42
2447 41
2448 72
2449 33
2450 36
2451 22
2452 48
2453 81
2454 20
2455 7
2456 38
2457 90
2458 71
2459 17
2460 31
2461 64
2462 22
2463 60
2464 10
2465 33
2466 7
2467 4
2468 65
2469 89
2470 42
2471 81
2472 44
2473 53
2474 16
2475 7
2476 38
2477 76
2478 67
2479 71
2480 9
2481 44
2482 66
2483 31
2484 14
2485 57
2486 6
2487 59
2488 92
2489 81
2490 89
2491 45
2492 7
2493 27
2494 88
2495 68
2496 71
2497 85
2498 41
2499 8
2500 6
2501 59
2502 7
2503 34
2504 50
2505 73
2506 18
2507 12
2508 65
2509 69
2510 40
2511 54
2512 33
2513 7
2514 6
2515 77
2516 70
2517 59
2518 16
2519 42
2520 13
2521 63
2522 56
2523 88
2524 6
2525 69
2526 82
2527 89
2528 4
2529 50
2530 23
2531 78
2532 51
2533 44
2534 25
2535 5
2536 26
2537 27
2538 11
2539 63
2540 82
2541 43
2542 70
2543 62
2544 97
2545 22
2546 92
2547 43
2548 16
2549 11
2550 39
2551 17
2552 35
2553 74
2554 73
2555 25
2556 29
2557 82
2558 73
2559 42
2560 12
2561 46
2562 59
2563 16
2564 23
2565 65
2566 97
2567 13
2568 39
2569 32
2570 70
2571 80
2572 6
2573 18
2574 79
2575 36
2576 42
2577 59
2578 46
2579 33
2580 38
2581 34
2582 53
2583 71
2584 18
2585 11
2586 38
2587 60
2588 22
2589 5
2590 17
2591 23
2592 13
2593 5
2594 79
2595 23
2596 50
2597 61
2598 87
2599 8
2600 48
2601 21
2602 39
2603 49
2604 12
2605 73
2606 14
2607 59
2608 1
2609 23
2610 74
2611 90
2612 21
2613 56
2614 90
2615 91
2616 87
2617 67
2618 44
2619 82
2620 86
2621 62
2622 93
2623 30
2624 88
2625 7
2626 28
2627 11
2628 43
2629 70
2630 73
2631 15
2632 74
2633 34
2634 35
2635 87
2636 44
2637 4
2638 73
2639 25
2640 77
2641 40
2642 90
2643 7
2644 22
2645 8
2646 9
2647 28
2648 55
2649 10
2650 50
2651 74
2652 49
2653 83
2654 8
2655 3
2656 90
2657 54
2658 70
2659 78
2660 56
2661 40
2662 23
2663 20
2664 15
2665 70
2666 13
2667 97
2668 42
2669 86
2670 75
2671 26
2672 29
2673 2
2674 49
2675 26
2676 22
2677 99
2678 1
2679 60
2680 44
2681 63
2682 30
2683 88
2684 2
2685 9
2686 33
2687 48
2688 26
2689 63
2690 13
2691 82
2692 36
2693 36
2694 47
2695 31
2696 71
2697 32
2698 33
2699 51
2700 89
2701 8
2702 5
2703 88
2704 65
2705 8
2706 21
2707 13
2708 85
2709 78
2710 71
2711 43
2712 25
2713 8
2714 22
2715 57
2716 56
2717 45
2718 68
2719 37
2720 57
2721 89
2722 5
2723 47
2724 7
2725 85
2726 84
2727 71
2728 42
2729 77
2730 20
2731 64
2732 92
2733 38
2734 44
2735 92
2736 13
2737 33
2738 37
2739 64
2740 89
2741 14
2742 93
2743 18
2744 18
2745 13
2746 88
2747 36
2748 63
2749 86
2750 21
2751 58
2752 83
2753 42
2754 61
2755 62
2756 92
2757 66
2758 56
2759 83
2760 86
2761 46
2762 85
2763 1
2764 37
2765 84
2766 9
2767 20
2768 91
2769 34
2770 8
2771 82
2772 28
2773 78
2774 38
2775 34
2776 27
2777 29
2778 48
2779 10
2780 32
2781 1
2782 0
2783 1
2784 40
2785 63
2786 35
2787 45
2788 10
2789 32
2790 59
2791 23
2792 84
2793 11
2794 33
2795 32
2796 6
2797 51
2798 2
2799 36
2800 64
2801 3
2802 21
2803 57
2804 81
2805 65
2806 70
2807 1
2808 85
2809 5
2810 25
2811 63
2812 66
2813 35
2814 88
2815 84
2816 26
2817 12
2818 61
2819 15
2820 64
2821 64
2822 0
2823 19
2824 11
2825 16
2826 69
2827 71
2828 2
2829 28
2830 69
2831 39
2832 44
2833 24
2834 85
2835 73
2836 0
2837 59
2838 70
2839 22
2840 48
2841 38
2842 85
2843 18
2844 60
2845 14
2846 25
2847 75
2848 63
2849 35
2850 66
2851 55
2852 97
2853 9
2854 70
2855 63
2856 68
2857 32
2858 72
2859 47
2860 20
2861 1
2862 17
2863 89
2864 10
2865 65
2866 94
2867 38
2868 1
2869 14
2870 67
2871 83
2872 42
2873 24
2874 25
2875 74
2876 65
2877 73
2878 52
2879 35
2880 12
2881 4
2882 26
2883 84
2884 0
2885 39
2886 3
2887 51
2888 36
2889 94
2890 5
2891 99
2892 40
2893 63
2894 5
2895 64
2896 56
2897 24
2898 16
2899 18
2900 37
2901 66
2902 13
2903 65
2904 77
2905 37
2906 12
2907 6
2908 52
2909 63
2910 14
2911 31
2912 40
2913 86
2914 80
2915 46
2916 11
2917 35
2918 48
2919 92
2920 70
2921 1
2922 25
2923 64
2924 0
2925 70
2926 51
2927 11
2928 21
2929 33
2930 89
2931 32
2932 67
2933 49
2934 46
2935 36
2936 90
2937 90
2938 23
2939 52
2940 21
2941 39
2942 36
2943 85
2944 40
2945 56
2946 69
2947 90
2948 104
2949 52
2950 19
2951 23
2952 22
2953 9
2954 54
2955 53
2956 18
2957 70
2958 43
2959 42
2960 8
2961 8
2962 30
2963 33
2964 92
2965 46
2966 53
2967 77
2968 0
2969 45
2970 27
2971 38
2972 89
2973 75
2974 69
2975 59
2976 81
2977 17
2978 47
2979 45
2980 34
2981 14
2982 89
2983 23
2984 55
2985 74
2986 71
2987 70
2988 92
2989 72
2990 93
2991 7
2992 46
2993 73
2994 2
2995 19
2996 0
2997 29
2998 16
2999 42
3000 48
3001 24
3002 92
3003 91
3004 90
3005 74
3006 31
3007 51
3008 78
3009 40
3010 45
3011 89
3012 41
3013 53
3014 99
3015 71
3016 33
3017 43
3018 59
3019 80
3020 34
3021 50
3022 5
3023 55
3024 51
3025 48
3026 12
3027 25
3028 58
3029 45
3030 69
3031 88
3032 93
3033 94
3034 66
3035 86
3036 3
3037 49
3038 24
3039 27
3040 38
3041 17
3042 81
3043 22
3044 67
3045 72
3046 53
3047 77
3048 23
3049 51
3050 14
3051 30
3052 47
3053 1
3054 13
3055 3
3056 68
3057 49
3058 64
3059 75
3060 11
3061 3
3062 19
3063 72
3064 59
3065 84
3066 40
3067 88
3068 16
3069 19
3070 58
3071 85
3072 14
3073 39
3074 33
3075 38
3076 39
3077 9
3078 42
3079 19
3080 31
3081 42
3082 55
3083 54
3084 29
3085 77
3086 62
3087 55
3088 49
3089 5
3090 40
3091 31
3092 35
3093 92
3094 33
3095 30
3096 35
3097 91
3098 82
3099 24
3100 71
3101 1
3102 75
3103 26
3104 22
3105 84
3106 46
3107 31
3108 46
3109 38
3110 47
3111 21
3112 97
3113 36
3114 50
3115 15
3116 2
3117 83
3118 31
3119 51
3120 51
3121 38
3122 50
3123 25
3124 51
3125 72
3126 47
3127 25
3128 16
3129 20
3130 38
3131 79
3132 51
3133 94
3134 20
3135 76
3136 22
3137 90
3138 78
3139 7
3140 34
3141 63
3142 49
3143 37
3144 93
3145 2
3146 50
3147 10
3148 24
3149 44
3150 94
3151 38
3152 84
3153 59
3154 33
3155 42
3156 57
3157 45
3158 3
3159 88
3160 11
3161 72
3162 73
3163 14
3164 11
3165 50
3166 43
3167 36
3168 78
3169 26
3170 5
3171 26
3172 39
3173 48
3174 63
3175 37
3176 16
3177 23
3178 29
3179 51
3180 78
3181 10
3182 9
3183 68
3184 71
3185 33
3186 83
3187 5
3188 61
3189 67
3190 12
3191 29
3192 37
3193 35
3194 11
3195 39
3196 27
3197 28
3198 46
3199 9
3200 22
3201 22
3202 90
3203 51
3204 36
3205 54
3206 56
3207 10
3208 11
3209 12
3210 43
3211 35
3212 92
3213 43
3214 91
3215 77
3216 29
3217 87
3218 20
3219 82
3220 59
3221 55
3222 0
3223 60
3224 57
3225 9
3226 71
3227 31
3228 45
3229 82
3230 73
3231 11
3232 90
3233 16
3234 2
3235 59
3236 89
3237 50
3238 88
3239 33
3240 8
3241 61
3242 92
3243 59
3244 16
3245 13
3246 41
3247 5
3248 47
3249 13
3250 59
3251 58
3252 12
3253 46
3254 40
3255 79
3256 2
3257 24
3258 64
3259 45
3260 38
3261 20
3262 97
3263 61
3264 43
3265 8
3266 70
3267 23
3268 49
3269 36
3270 92
3271 35
3272 92
3273 81
3274 94
3275 69
3276 35
3277 92
3278 13
3279 23
3280 56
3281 59
3282 38
3283 63
3284 53
3285 5
3286 34
3287 44
3288 30
3289 35
3290 38
3291 69
3292 23
3293 78
3294 64
3295 93
3296 4
3297 25
3298 42
3299 23
3300 60
3301 70
3302 40
3303 50
3304 37
3305 58
3306 24
3307 92
3308 78
3309 14
3310 43
3311 12
3312 34
3313 56
3314 39
3315 52
3316 21
3317 31
3318 46
3319 13
3320 72
3321 5
3322 63
3323 43
3324 69
3325 20
3326 12
3327 18
3328 46
3329 2
3330 55
3331 23
3332 71
3333 31
3334 92
3335 43
3336 45
3337 5
3338 16
3339 48
3340 24
3341 57
3342 22
3343 49
3344 30
3345 78
3346 3
3347 66
3348 78
3349 1
3350 16
3351 61
3352 10
3353 66
3354 70
3355 25
3356 6
3357 74
3358 59
3359 77
3360 6
3361 39
3362 40
3363 16
3364 59
3365 87
3366 50
3367 39
3368 78
3369 79
3370 85
3371 88
3372 7
3373 58
3374 77
3375 16
3376 51
3377 86
3378 73
3379 37
3380 71
3381 44
3382 39
3383 71
3384 43
3385 81
3386 57
3387 26
3388 21
3389 74
3390 30
3391 47
3392 47
3393 77
3394 38
3395 6
3396 66
3397 82
3398 71
3399 30
3400 69
3401 23
3402 21
3403 51
3404 13
3405 73
3406 46
3407 23
3408 39
3409 11
3410 51
3411 92
3412 51
3413 3
3414 78
3415 12
3416 47
3417 64
3418 64
3419 20
3420 39
3421 70
3422 21
3423 84
3424 40
3425 69
3426 0
3427 70
3428 86
3429 11
3430 51
3431 90
3432 74
3433 63
3434 13
3435 78
3436 0
3437 67
3438 94
3439 32
3440 0
3441 36
3442 87
3443 47
3444 35
3445 15
3446 82
3447 25
3448 15
3449 85
3450 32
3451 80
3452 20
3453 2
3454 18
3455 83
3456 25
3457 70
3458 35
3459 11
3460 97
3461 22
3462 33
3463 18
3464 13
3465 16
3466 8
3467 84
3468 72
3469 77
3470 27
3471 89
3472 41
3473 61
3474 22
3475 33
3476 69
3477 7
3478 20
3479 29
3480 9
3481 30
3482 16
3483 47
3484 83
3485 58
3486 37
3487 42
3488 23
3489 32
3490 51
3491 45
3492 63
3493 99
3494 94
3495 38
3496 78
3497 50
3498 47
3499 45
3500 39
3501 75
3502 39
3503 89
3504 46
3505 39
3506 79
3507 12
3508 12
3509 40
3510 88
3511 81
3512 72
3513 54
3514 32
3515 83
3516 67
3517 52
3518 44
3519 61
3520 63
3521 8
3522 57
3523 76
3524 89
3525 57
3526 37
3527 27
3528 10
3529 86
3530 42
3531 66
3532 44
3533 30
3534 21
3535 39
3536 22
3537 23
3538 89
3539 2
3540 59
3541 5
3542 85
3543 37
3544 45
3545 85
3546 14
3547 82
3548 70
3549 75
3550 11
3551 41
3552 2
3553 39
3554 20
3555 9
3556 69
3557 49
3558 66
3559 94
3560 23
3561 63
3562 16
3563 25
3564 33
3565 80
3566 39
3567 89
3568 27
3569 26
3570 22
3571 13
3572 24
3573 72
3574 25
3575 78
3576 23
3577 28
3578 18
3579 21
3580 16
3581 39
3582 48
3583 61
3584 36
3585 4
3586 68
3587 13
3588 19
3589 1
3590 7
3591 74
3592 9
3593 41
3594 48
3595 24
3596 30
3597 6
3598 43
3599 91
3600 56
3601 0
3602 22
3603 72
3604 21
3605 92
3606 89
3607 54
3608 3
3609 45
3610 7
3611 69
3612 89
3613 10
3614 14
3615 54
3616 32
3617 22
3618 99
3619 2
3620 85
3621 36
3622 7
3623 32
3624 54
3625 88
3626 38
3627 14
3628 34
3629 62
3630 16
3631 29
3632 2
3633 1
3634 24
3635 3
3636 20
3637 44
3638 11
3639 45
3640 3
3641 36
3642 31
3643 77
3644 82
3645 92
3646 85
3647 21
3648 36
3649 57
3650 8
3651 17
3652 3
3653 47
3654 77
3655 91
3656 50
3657 31
3658 21
3659 23
3660 19
3661 15
3662 19
3663 31
3664 69
3665 19
3666 5
3667 0
3668 31
3669 17
3670 60
3671 85
3672 14
3673 97
3674 93
3675 88
3676 35
3677 74
3678 39
3679 38
3680 51
3681 41
3682 60
3683 44
3684 42
3685 6
3686 38
3687 89
3688 39
3689 90
3690 89
3691 37
3692 50
3693 48
3694 16
3695 38
3696 18
3697 20
3698 35
3699 45
3700 34
3701 62
3702 20
3703 34
3704 54
3705 89
3706 42
3707 12
3708 0
3709 76
3710 37
3711 7
3712 1
3713 6
3714 79
3715 69
3716 46
3717 97
3718 16
3719 32
3720 47
3721 52
3722 20
3723 78
3724 63
3725 80
3726 12
3727 65
3728 45
3729 12
3730 24
3731 58
3732 40
3733 31
3734 36
3735 50
3736 63
3737 97
3738 92
3739 31
3740 97
3741 18
3742 66
3743 5
3744 48
3745 57
3746 24
3747 78
3748 90
3749 38
3750 76
3751 34
3752 91
3753 37
3754 9
3755 78
3756 42
3757 45
3758 36
3759 29
3760 35
3761 53
3762 22
3763 15
3764 92
3765 25
3766 3
3767 64
3768 92
3769 41
3770 97
3771 20
3772 60
3773 83
3774 78
3775 92
3776 33
3777 49
3778 69
3779 1
3780 66
3781 18
3782 47
3783 32
3784 51
3785 55
3786 19
3787 73
3788 29
3789 8
3790 31
3791 29
3792 55
3793 70
3794 25
3795 68
3796 71
3797 31
3798 4
3799 21
3800 60
3801 9
3802 70
3803 3
3804 6
3805 36
3806 94
3807 9
3808 42
3809 75
3810 23
3811 20
3812 17
3813 33
3814 81
3815 49
3816 90
3817 5
3818 29
3819 32
3820 39
3821 83
3822 58
3823 73
3824 14
3825 50
3826 67
3827 66
3828 12
3829 58
3830 26
3831 77
3832 62
3833 32
3834 80
3835 82
3836 74
3837 34
3838 33
3839 43
3840 29
3841 23
3842 1
3843 16
3844 30
3845 42
3846 71
3847 63
3848 51
3849 5
3850 4
3851 12
3852 63
3853 29
3854 77
3855 21
3856 7
3857 75
3858 11
3859 19
3860 54
3861 45
3862 31
3863 66
3864 22
3865 97
3866 32
3867 6
3868 87
3869 56
3870 90
3871 29
3872 83
3873 39
3874 73
3875 24
3876 13
3877 13
3878 72
3879 29
3880 54
3881 43
3882 99
3883 49
3884 27
3885 18
3886 88
3887 91
3888 50
3889 6
3890 81
3891 45
3892 76
3893 47
3894 28
3895 8
3896 32
3897 36
3898 80
3899 91
3900 38
3901 31
3902 89
3903 38
3904 2
3905 37
3906 39
3907 16
3908 97
3909 13
3910 78
3911 94
3912 79
3913 31
3914 38
3915 63
3916 0
3917 27
3918 88
3919 8
3920 16
3921 7
3922 14
3923 46
3924 38
3925 39
3926 10
3927 5
3928 17
3929 72
3930 91
3931 79
3932 58
3933 75
3934 56
3935 51
3936 39
3937 49
3938 26
3939 58
3940 10
3941 37
3942 14
3943 13
3944 83
3945 50
3946 57
3947 47
3948 20
3949 68
3950 58
3951 79
3952 51
3953 72
3954 81
3955 88
3956 69
3957 39
3958 48
3959 69
3960 3
3961 89
3962 89
3963 72
3964 51
3965 70
3966 55
3967 44
3968 82
3969 63
3970 68
3971 33
3972 42
3973 10
3974 68
3975 78
3976 82
3977 5
3978 20
3979 11
3980 60
3981 12
3982 19
3983 32
3984 86
3985 24
3986 79
3987 33
3988 99
3989 26
3990 58
3991 15
3992 59
3993 59
3994 84
3995 83
3996 0
3997 36
3998 90
3999 32
4000 32
4001 50
4002 0
4003 50
4004 65
4005 24
4006 22
4007 26
4008 30
4009 25
4010 3
4011 91
4012 90
4013 21
4014 67
4015 79
4016 72
4017 49
4018 47
4019 54
4020 64
4021 45
4022 70
4023 17
4024 94
4025 46
4026 34
4027 35
4028 63
4029 7
4030 57
4031 74
4032 21
4033 16
4034 41
4035 39
4036 23
4037 10
4038 88
4039 39
4040 31
4041 71
4042 78
4043 51
4044 70
4045 53
4046 75
4047 34
4048 11
4049 50
4050 46
4051 70
4052 93
4053 9
4054 63
4055 89
4056 12
4057 59
4058 33
4059 2
4060 18
4061 29
4062 81
4063 29
4064 58
4065 88
4066 50
4067 72
4068 74
4069 25
4070 16
4071 34
4072 23
4073 22
4074 48
4075 40
4076 45
4077 46
4078 15
4079 69
4080 23
4081 65
4082 45
4083 41
4084 45
4085 78
4086 1
4087 32
4088 32
4089 73
4090 89
4091 59
4092 50
4093 30
4094 59
4095 78
4096 71
4097 94
4098 93
4099 16
4100 16
4101 73
4102 41
4103 24
4104 44
4105 48
4106 58
4107 65
4108 63
4109 38
4110 83
4111 7
4112 0
4113 59
4114 90
4115 39
4116 34
4117 24
4118 30
4119 33
4120 40
4121 31
4122 49
4123 94
4124 18
4125 12
4126 71
4127 50
4128 81
4129 88
4130 54
4131 32
4132 39
4133 48
4134 68
4135 65
4136 23
4137 5
4138 78
4139 29
4140 55
4141 51
4142 50
4143 0
4144 55
4145 78
4146 28
4147 15
4148 44
4149 68
4150 1
4151 64
4152 22
4153 13
4154 79
4155 10
4156 20
4157 85
4158 1
4159 50
4160 35
4161 89
4162 54
4163 83
4164 25
4165 12
4166 30
4167 11
4168 78
4169 51
4170 40
4171 71
4172 7
4173 46
4174 11
4175 51
4176 49
4177 61
4178 10
4179 82
4180 25
4181 15
4182 16
4183 20
4184 36
4185 37
4186 6
4187 50
4188 22
4189 23
4190 63
4191 59
4192 87
4193 33
4194 75
4195 44
4196 26
4197 1
4198 75
4199 51
4200 70
4201 4
4202 11
4203 16
4204 92
4205 18
4206 83
4207 48
4208 39
4209 46
4210 6
4211 39
4212 5
4213 65
4214 69
4215 92
4216 20
4217 19
4218 15
4219 40
4220 70
4221 65
4222 24
4223 32
4224 4
4225 30
4226 38
4227 69
4228 78
4229 51
4230 84
4231 70
4232 0
4233 77
4234 60
4235 33
4236 41
4237 90
4238 31
4239 63
4240 77
4241 12
4242 39
4243 12
4244 73
4245 31
4246 71
4247 94
4248 16
4249 2
4250 39
4251 71
4252 8
4253 10
4254 11
4255 43
4256 27
4257 19
4258 63
4259 44
4260 77
4261 1
4262 81
4263 77
4264 38
4265 20
4266 31
4267 22
4268 48
4269 64
4270 82
4271 85
4272 39
4273 86
4274 7
4275 94
4276 21
4277 34
4278 7
4279 25
4280 77
4281 105
4282 42
4283 57
4284 52
4285 24
4286 4
4287 32
4288 75
4289 57
4290 19
4291 54
4292 72
4293 55
4294 34
4295 54
4296 38
4297 70
4298 81
4299 48
4300 73
4301 92
4302 2
4303 57
4304 60
4305 45
4306 35
4307 18
4308 66
4309 85
4310 43
4311 59
4312 76
4313 74
4314 63
4315 46
4316 80
4317 49
4318 43
4319 50
4320 90
4321 10
4322 51
4323 45
4324 17
4325 14
4326 46
4327 9
4328 63
4329 2
4330 44
4331 106
4332 45
4333 64
4334 49
4335 33
4336 45
4337 77
4338 29
4339 11
4340 42
4341 31
4342 7
4343 35
4344 13
4345 10
4346 51
4347 78
4348 71
4349 89
4350 21
4351 13
4352 48
4353 14
4354 69
4355 21
4356 33
4357 31
4358 78
4359 35
4360 23
4361 12
4362 93
4363 5
4364 97
4365 12
4366 67
4367 51
4368 59
4369 81
4370 7
4371 28
4372 30
4373 83
4374 83
4375 3
4376 46
4377 41
4378 70
4379 71
4380 34
4381 53
4382 63
4383 81
4384 62
4385 88
4386 76
4387 53
4388 88
4389 36
4390 92
4391 71
4392 88
4393 33
4394 53
4395 55
4396 91
4397 51
4398 28
4399 30
4400 17
4401 62
4402 77
4403 25
4404 6
4405 2
4406 9
4407 64
4408 20
4409 77
4410 56
4411 89
4412 69
4413 35
4414 32
4415 6
4416 44
4417 53
4418 39
4419 23
4420 68
4421 40
4422 20
4423 85
4424 3
4425 48
4426 73
4427 45
4428 54
4429 6
4430 87
4431 71
4432 24
4433 60
4434 72
4435 30
4436 21
4437 39
4438 31
4439 10
4440 23
4441 3
4442 42
4443 58
4444 39
4445 50
4446 21
4447 27
4448 0
4449 99
4450 70
4451 70
4452 59
4453 65
4454 49
4455 18
4456 19
4457 33
4458 11
4459 41
4460 70
4461 84
4462 18
4463 86
4464 59
4465 67
4466 71
4467 29
4468 86
4469 54
4470 16
4471 39
4472 23
4473 21
4474 65
4475 7
4476 12
4477 40
4478 90
4479 35
4480 41
4481 77
4482 78
4483 7
4484 79
4485 22
4486 79
4487 68
4488 53
4489 77
4490 27
4491 12
4492 92
4493 75
4494 17
4495 21
4496 32
4497 28
4498 25
4499 55
4500 90
4501 63
4502 28
4503 37
4504 27
4505 70
4506 58
4507 61
4508 53
4509 61
4510 14
4511 42
4512 56
4513 19
4514 45
4515 22
4516 44
4517 52
4518 92
4519 48
4520 12
4521 55
4522 75
4523 36
4524 50
4525 38
4526 69
4527 17
4528 37
4529 49
4530 81
4531 86
4532 87
4533 91
4534 61
4535 21
4536 37
4537 2
4538 18
4539 16
4540 29
4541 91
4542 69
4543 65
4544 69
4545 45
4546 23
4547 58
4548 10
4549 15
4550 18
4551 0
4552 41
4553 59
4554 19
4555 56
4556 64
4557 43
4558 32
4559 45
4560 1
4561 33
4562 78
4563 65
4564 64
4565 33
4566 45
4567 2
4568 11
4569 99
4570 1
4571 20
4572 83
4573 3
4574 32
4575 73
4576 24
4577 33
4578 81
4579 45
4580 10
4581 17
4582 19
4583 34
4584 23
4585 39
4586 38
4587 51
4588 66
4589 2
4590 40
4591 17
4592 38
4593 34
4594 25
4595 19
4596 55
4597 27
4598 65
4599 10
4600 28
4601 69
4602 4
4603 87
4604 13
4605 9
4606 58
4607 71
4608 45
4609 70
4610 16
4611 64
4612 38
4613 82
4614 9
4615 16
4616 8
4617 92
4618 3
4619 63
4620 53
4621 41
4622 44
4623 31
4624 57
4625 41
4626 34
4627 42
4628 62
4629 42
4630 55
4631 49
4632 46
4633 30
4634 5
4635 16
4636 20
4637 72
4638 63
4639 30
4640 90
4641 94
4642 10
4643 33
4644 46
4645 82
4646 69
4647 16
4648 82
4649 10
4650 44
4651 31
4652 16
4653 27
4654 81
4655 60
4656 55
4657 52
4658 59
4659 90
4660 77
4661 92
4662 84
4663 38
4664 73
4665 75
4666 34
4667 6
4668 22
4669 11
4670 78
4671 6
4672 88
4673 43
4674 40
4675 80
4676 92
4677 55
4678 62
4679 19
4680 12
4681 70
4682 92
4683 83
4684 77
4685 75
4686 19
4687 86
4688 22
4689 51
4690 2
4691 68
4692 13
4693 89
4694 91
4695 7
4696 33
4697 43
4698 16
4699 14
4700 76
4701 33
4702 68
4703 8
4704 22
4705 43
4706 51
4707 40
4708 68
4709 43
4710 46
4711 46
4712 3
4713 39
4714 2
4715 16
4716 90
4717 87
4718 85
4719 41
4720 9
4721 33
4722 5
4723 65
4724 86
4725 42
4726 68
4727 5
4728 27
4729 60
4730 49
4731 87
4732 73
4733 62
4734 44
4735 24
4736 81
4737 71
4738 82
4739 69
4740 24
4741 8
4742 97
4743 46
4744 78
4745 19
4746 51
4747 99
4748 29
4749 90
4750 1
4751 68
4752 39
4753 57
4754 20
4755 43
4756 83
4757 90
4758 14
4759 70
4760 11
4761 70
4762 16
4763 72
4764 89
4765 82
4766 14
4767 94
4768 72
4769 48
4770 63
4771 1
4772 17
4773 16
4774 82
4775 69
4776 36
4777 11
4778 54
4779 33
4780 46
4781 5
4782 21
4783 13
4784 33
4785 89
4786 26
4787 1
4788 70
4789 40
4790 22
4791 59
4792 79
4793 6
4794 10
4795 1
4796 45
4797 81
4798 84
4799 28
4800 47
4801 77
4802 74
4803 20
4804 22
4805 76
4806 45
4807 0
4808 50
4809 50
4810 64
4811 93
4812 67
4813 24
4814 76
4815 17
4816 37
4817 41
4818 62
4819 40
4820 1
4821 65
4822 0
4823 10
4824 82
4825 65
4826 48
4827 71
4828 33
4829 6
4830 68
4831 25
4832 43
4833 14
4834 45
4835 18
4836 93
4837 35
4838 83
4839 77
4840 57
4841 89
4842 5
4843 27
4844 66
4845 84
4846 72
4847 21
4848 38
4849 89
4850 91
4851 8
4852 8
4853 14
4854 69
4855 34
4856 18
4857 66
4858 31
4859 81
4860 78
4861 23
4862 9
4863 16
4864 21
4865 71
4866 45
4867 50
4868 72
4869 57
4870 97
4871 97
4872 24
4873 99
4874 89
4875 0
4876 65
4877 15
4878 42
4879 55
4880 49
4881 83
4882 49
4883 78
4884 2
4885 61
4886 42
4887 50
4888 91
4889 22
4890 76
4891 12
4892 39
4893 13
4894 8
4895 36
4896 27
4897 60
4898 86
4899 89
4900 64
4901 64
4902 69
4903 8
4904 51
4905 23
4906 76
4907 15
4908 45
4909 83
4910 8
4911 52
4912 79
4913 91
4914 88
4915 5
4916 16
4917 2
4918 20
4919 66
4920 42
4921 18
4922 24
4923 5
4924 84
4925 107
4926 1
4927 38
4928 43
4929 89
4930 88
4931 22
4932 49
4933 67
4934 10
4935 46
4936 88
4937 90
4938 67
4939 84
4940 79
4941 4
4942 55
4943 70
4944 27
4945 11
4946 69
4947 84
4948 18
4949 18
4950 40
4951 6
4952 23
4953 5
4954 5
4955 10
4956 58
4957 51
4958 62
4959 33
4960 18
4961 8
4962 7
4963 64
4964 17
4965 79
4966 92
4967 13
4968 55
4969 20
4970 8
4971 27
4972 81
4973 84
4974 6
4975 24
4976 43
4977 97
4978 45
4979 38
4980 35
4981 49
4982 12
4983 53
4984 38
4985 80
4986 57
4987 74
4988 78
4989 86
4990 11
4991 63
4992 31
4993 23
4994 1
4995 82
4996 17
4997 11
4998 29
4999 97
5000 57
5001 97
5002 42
5003 31
5004 16
5005 11
5006 72
5007 38
5008 23
5009 5
5010 53
5011 33
5012 11
5013 64
5014 89
5015 1
5016 70
5017 40
5018 11
5019 36
5020 89
5021 15
5022 37
5023 21
5024 29
5025 61
5026 30
5027 24
5028 70
5029 91
5030 71
5031 42
5032 46
5033 49
5034 12
5035 39
5036 14
5037 70
5038 77
5039 79
5040 21
5041 59
5042 45
5043 70
5044 1
5045 74
5046 46
5047 22
5048 13
5049 45
5050 11
5051 35
5052 16
5053 83
5054 91
5055 15
5056 60
5057 38
5058 40
5059 6
5060 79
5061 11
5062 38
5063 77
5064 87
5065 18
5066 7
5067 42
5068 16
5069 57
5070 90
5071 82
5072 61
5073 84
5074 23
5075 24
5076 70
5077 46
5078 22
5079 44
5080 39
5081 39
5082 65
5083 37
5084 39
5085 86
5086 13
5087 50
5088 10
5089 75
5090 35
5091 32
5092 84
5093 85
5094 59
5095 40
5096 66
5097 79
5098 35
5099 3
5100 3
5101 1
5102 69
5103 44
5104 89
5105 88
5106 29
5107 47
5108 90
5109 78
5110 21
5111 32
5112 5
5113 72
5114 23
5115 71
5116 85
5117 31
5118 21
5119 70
5120 97
5121 39
5122 23
5123 8
5124 45
5125 10
5126 22
5127 14
5128 63
5129 53
5130 77
5131 45
5132 7
5133 52
5134 16
5135 77
5136 10
5137 65
5138 78
5139 59
5140 90
5141 29
5142 15
5143 14
5144 81
5145 71
5146 80
5147 0
5148 15
5149 54
5150 85
5151 92
5152 6
5153 36
5154 77
5155 73
5156 32
5157 43
5158 50
5159 57
5160 89
5161 78
5162 35
5163 68
5164 82
5165 36
5166 78
5167 72
5168 89
5169 1
5170 80
5171 8
5172 59
5173 47
5174 9
5175 61
5176 33
5177 39
5178 34
5179 79
5180 18
5181 15
5182 38
5183 79
5184 83
5185 8
5186 63
5187 48
5188 52
5189 57
5190 80
5191 65
5192 32
5193 40
5194 91
5195 14
5196 42
5197 92
5198 74
5199 94
5200 57
5201 55
5202 55
5203 86
5204 42
5205 26
5206 71
5207 12
5208 77
5209 25
5210 22
5211 51
5212 22
5213 0
5214 16
5215 3
5216 15
5217 54
5218 70
5219 24
5220 18
5221 91
5222 14
5223 90
5224 93
5225 49
5226 87
5227 92
5228 82
5229 23
5230 81
5231 3
5232 85
5233 7
5234 24
5235 20
5236 57
5237 44
5238 13
5239 9
5240 85
5241 53
5242 78
5243 76
5244 71
5245 81
5246 51
5247 39
5248 70
5249 54
5250 66
5251 30
5252 20
5253 89
5254 29
5255 42
5256 24
5257 63
5258 88
5259 34
5260 94
5261 89
5262 60
5263 73
5264 80
5265 22
5266 18
5267 78
5268 46
5269 69
5270 82
5271 42
5272 55
5273 67
5274 21
5275 88
5276 72
5277 82
5278 17
5279 53
5280 1
5281 38
5282 13
5283 32
5284 92
5285 71
5286 39
5287 51
5288 61
5289 5
5290 57
5291 16
5292 55
5293 4
5294 4
5295 35
5296 69
5297 83
5298 12
5299 37
5300 31
5301 17
5302 0
5303 56
5304 12
5305 61
5306 87
5307 68
5308 78
5309 54
5310 31
5311 11
5312 50
5313 87
5314 0
5315 33
5316 1
5317 80
5318 78
5319 16
5320 48
5321 0
5322 35
5323 16
5324 4
5325 18
5326 20
5327 10
5328 42
5329 43
5330 87
5331 19
5332 43
5333 53
5334 44
5335 73
5336 58
5337 8
5338 55
5339 58
5340 13
5341 87
5342 28
5343 87
5344 57
5345 18
5346 55
5347 59
5348 51
5349 71
5350 55
5351 4
5352 14
5353 71
5354 10
5355 94
5356 55
5357 10
5358 76
5359 85
5360 7
5361 19
5362 0
5363 89
5364 59
5365 12
5366 19
5367 85
5368 69
5369 51
5370 72
5371 93
5372 51
5373 19
5374 58
5375 4
5376 92
5377 43
5378 16
5379 21
5380 37
5381 27
5382 50
5383 7
5384 93
5385 44
5386 9
5387 16
5388 57
5389 44
5390 14
5391 64
5392 33
5393 75
5394 77
5395 51
5396 14
5397 79
5398 36
5399 70
5400 12
5401 44
5402 38
5403 51
5404 7
5405 91
5406 31
5407 1
5408 81
5409 63
5410 71
5411 65
5412 5
5413 1
5414 79
5415 61
5416 31
5417 38
5418 70
5419 90
5420 4
5421 13
5422 35
5423 31
5424 89
5425 27
5426 76
5427 28
5428 36
5429 78
5430 12
5431 73
5432 24
5433 48
5434 63
5435 70
5436 31
5437 19
5438 67
5439 4
5440 82
5441 51
5442 76
5443 83
5444 24
5445 51
5446 42
5447 71
5448 23
5449 39
5450 89
5451 72
5452 63
5453 32
5454 92
5455 32
5456 87
5457 23
5458 6
5459 46
5460 74
5461 50
5462 84
5463 21
5464 78
5465 13
5466 30
5467 24
5468 63
5469 72
5470 25
5471 9
5472 49
5473 27
5474 21
5475 43
5476 49
5477 89
5478 44
5479 90
5480 90
5481 22
5482 25
5483 19
5484 72
5485 72
5486 2
5487 59
5488 51
5489 23
5490 9
5491 66
5492 13
5493 22
5494 30
5495 83
5496 86
5497 71
5498 0
5499 82
5500 69
5501 78
5502 39
5503 51
5504 5
5505 59
5506 33
5507 54
5508 18
5509 16
5510 12
5511 83
5512 6
5513 80
5514 70
5515 97
5516 65
5517 93
5518 77
5519 12
5520 16
5521 88
5522 66
5523 48
5524 59
5525 24
5526 92
5527 78
5528 84
5529 60
5530 78
5531 50
5532 86
5533 77
5534 35
5535 59
5536 30
5537 6
5538 45
5539 8
5540 34
5541 6
5542 52
5543 38
5544 91
5545 82
5546 89
5547 49
5548 22
5549 70
5550 4
5551 91
5552 25
5553 57
5554 64
5555 26
5556 72
5557 23
5558 67
5559 11
5560 11
5561 74
5562 76
5563 82
5564 81
5565 10
5566 83
5567 84
5568 17
5569 11
5570 75
5571 57
5572 66
5573 55
5574 60
5575 9
5576 42
5577 77
5578 55
5579 75
5580 31
5581 67
5582 90
5583 64
5584 89
5585 45
5586 1
5587 22
5588 10
5589 37
5590 34
5591 58
5592 44
5593 10
5594 28
5595 77
5596 18
5597 27
5598 32
5599 37
5600 86
5601 54
5602 46
5603 23
5604 88
5605 51
5606 51
5607 84
5608 0
5609 99
5610 6
5611 80
5612 47
5613 97
5614 28
5615 7
5616 24
5617 54
5618 31
5619 21
5620 37
5621 61
5622 39
5623 32
5624 36
5625 70
5626 50
5627 33
5628 41
5629 62
5630 13
5631 94
5632 41
5633 45
5634 43
5635 0
5636 89
5637 85
5638 80
5639 68
5640 39
5641 30
5642 4
5643 54
5644 40
5645 14
5646 92
5647 2
5648 62
5649 60
5650 75
5651 29
5652 90
5653 20
5654 7
5655 39
5656 21
5657 88
5658 16
5659 35
5660 93
5661 81
5662 26
5663 70
5664 73
5665 53
5666 58
5667 11
5668 61
5669 36
5670 0
5671 87
5672 41
5673 57
5674 12
5675 22
5676 82
5677 70
5678 2
5679 72
5680 65
5681 72
5682 40
5683 13
5684 9
5685 7
5686 29
5687 2
5688 12
5689 51
5690 108
5691 94
5692 13
5693 53
5694 38
5695 42
5696 42
5697 73
5698 1
5699 26
5700 60
5701 18
5702 71
5703 31
5704 23
5705 44
5706 0
5707 19
5708 32
5709 73
5710 30
5711 20
5712 42
5713 59
5714 63
5715 61
5716 38
5717 36
5718 31
5719 42
5720 25
5721 21
5722 15
5723 7
5724 11
5725 10
5726 83
5727 71
5728 22
5729 81
5730 89
5731 46
5732 94
5733 24
5734 14
5735 29
5736 36
5737 80
5738 97
5739 22
5740 50
5741 59
5742 30
5743 34
5744 5
5745 17
5746 57
5747 6
5748 79
5749 1
5750 99
5751 97
5752 13
5753 46
5754 31
5755 7
5756 15
5757 6
5758 45
5759 70
5760 92
5761 18
5762 17
5763 78
5764 55
5765 94
5766 41
5767 91
5768 84
5769 69
5770 43
5771 69
5772 32
5773 69
5774 0
5775 79
5776 48
5777 90
5778 92
5779 77
5780 19
5781 32
5782 59
5783 10
5784 68
5785 9
5786 22
5787 73
5788 97
5789 39
5790 21
5791 3
5792 50
5793 6
5794 80
5795 92
5796 14
5797 84
5798 67
5799 48
5800 29
5801 0
5802 1
5803 56
5804 62
5805 77
5806 77
5807 45
5808 74
5809 16
5810 65
5811 87
5812 16
5813 46
5814 11
5815 70
5816 6
5817 18
5818 42
5819 68
5820 31
5821 22
5822 51
5823 22
5824 17
5825 1
5826 57
5827 8
5828 16
5829 66
5830 5
5831 13
5832 65
5833 63
5834 47
5835 78
5836 71
5837 26
5838 23
5839 11
5840 41
5841 50
5842 4
5843 35
5844 64
5845 58
5846 42
5847 11
5848 60
5849 18
5850 20
5851 21
5852 34
5853 57
5854 0
5855 72
5856 35
5857 17
5858 20
5859 38
5860 46
5861 22
5862 82
5863 29
5864 31
5865 44
5866 45
5867 55
5868 19
5869 20
5870 50
5871 44
5872 89
5873 64
5874 6
5875 73
5876 70
5877 74
5878 8
5879 45
5880 37
5881 31
5882 14
5883 78
5884 84
5885 35
5886 4
5887 89
5888 93
5889 90
5890 2
5891 13
5892 79
5893 24
5894 63
5895 11
5896 35
5897 57
5898 23
5899 85
5900 58
5901 31
5902 27
5903 29
5904 88
5905 5
5906 57
5907 78
5908 80
5909 34
5910 84
5911 13
5912 89
5913 89
5914 88
5915 83
5916 37
5917 12
5918 3
5919 69
5920 66
5921 26
5922 21
5923 36
5924 1
5925 88
5926 7
5927 52
5928 41
5929 55
5930 33
5931 90
5932 8
5933 32
5934 81
5935 90
5936 88
5937 52
5938 55
5939 91
5940 59
5941 74
5942 21
5943 7
5944 2
5945 42
5946 25
5947 11
5948 93
5949 65
5950 46
5951 60
5952 12
5953 88
5954 90
5955 20
5956 89
5957 22
5958 43
5959 19
5960 72
5961 36
5962 20
5963 35
5964 33
5965 97
5966 67
5967 25
5968 23
5969 89
5970 67
5971 94
5972 35
5973 91
5974 24
5975 38
5976 68
5977 79
5978 45
5979 16
5980 80
5981 24
5982 92
5983 7
5984 85
5985 43
5986 7
5987 29
5988 52
5989 37
5990 2
5991 35
5992 25
5993 23
5994 41
5995 42
5996 37
5997 97
5998 41
5999 21
6000 41
6001 32
6002 20
6003 67
6004 25
6005 50
6006 0
6007 15
6008 50
6009 31
6010 38
6011 13
6012 81
6013 82
6014 1
6015 90
6016 32
6017 42
6018 12
6019 28
6020 89
6021 4
6022 40
6023 88
6024 88
6025 88
6026 94
6027 56
6028 50
6029 88
6030 52
6031 22
6032 93
6033 28
6034 51
6035 23
6036 53
6037 81
6038 40
6039 22
6040 54
6041 83
6042 42
6043 31
6044 80
6045 64
6046 69
6047 62
6048 83
6049 11
6050 14
6051 83
6052 10
6053 48
6054 49
6055 92
6056 39
6057 11
6058 12
6059 90
6060 109
6061 70
6062 47
6063 82
6064 42
6065 24
6066 80
6067 45
6068 93
6069 48
6070 53
6071 6
6072 69
6073 72
6074 20
6075 56
6076 33
6077 89
6078 79
6079 34
6080 30
6081 89
6082 56
6083 6
6084 93
6085 71
6086 82
6087 35
6088 84
6089 43
6090 42
6091 85
6092 29
6093 55
6094 9
6095 83
6096 20
6097 38
6098 14
6099 16
6100 3
6101 22
6102 8
6103 97
6104 23
6105 80
6106 51
6107 40
6108 15
6109 7
6110 77
6111 43
6112 51
6113 23
6114 57
6115 84
6116 70
6117 73
6118 4
6119 24
6120 85
6121 5
6122 48
6123 4
6124 33
6125 70
6126 70
6127 82
6128 72
6129 67
6130 19
6131 4
6132 56
6133 40
6134 54
6135 32
6136 8
6137 29
6138 64
6139 49
6140 18
6141 59
6142 51
6143 54
6144 12
6145 11
6146 33
6147 3
6148 70
6149 89
6150 67
6151 2
6152 41
6153 45
6154 53
6155 22
6156 32
6157 15
6158 35
6159 77
6160 19
6161 79
6162 81
6163 60
6164 44
6165 35
6166 70
6167 94
6168 31
6169 1
6170 7
6171 81
6172 67
6173 38
6174 63
6175 47
6176 84
6177 27
6178 80
6179 35
6180 5
6181 35
6182 30
6183 78
6184 46
6185 31
6186 80
6187 33
6188 71
6189 10
6190 71
6191 16
6192 56
6193 37
6194 3
6195 21
6196 88
6197 28
6198 39
6199 42
6200 63
6201 0
6202 45
6203 78
6204 24
6205 32
6206 25
6207 43
6208 40
6209 18
6210 84
6211 78
6212 24
6213 8
6214 49
6215 59
6216 3
6217 19
6218 73
6219 94
6220 36
6221 38
6222 66
6223 20
6224 48
6225 22
6226 92
6227 27
6228 39
6229 1
6230 97
6231 33
6232 61
6233 40
6234 5
6235 15
6236 52
6237 94
6238 9
6239 30
6240 32
6241 32
6242 49
6243 2
6244 31
6245 4
6246 83
6247 40
6248 1
6249 57
6250 33
6251 74
6252 78
6253 62
6254 72
6255 3
6256 40
6257 68
6258 37
6259 49
6260 57
6261 10
6262 89
6263 97
6264 51
6265 13
6266 97
6267 83
6268 67
6269 14
6270 29
6271 9
6272 8
6273 33
6274 82
6275 84
6276 76
6277 74
6278 14
6279 58
6280 36
6281 16
6282 0
6283 34
6284 10
6285 46
6286 44
6287 34
6288 76
6289 5
6290 35
6291 28
6292 12
6293 50
6294 5
6295 42
6296 83
6297 85
6298 69
6299 17
6300 60
6301 90
6302 43
6303 21
6304 57
6305 75
6306 55
6307 73
6308 27
6309 11
6310 82
6311 5
6312 34
6313 39
6314 14
6315 81
6316 46
6317 0
6318 73
6319 30
6320 50
6321 70
6322 0
6323 32
6324 23
6325 42
6326 51
6327 35
6328 81
6329 38
6330 64
6331 33
6332 42
6333 71
6334 24
6335 45
6336 89
6337 41
6338 31
6339 83
6340 35
6341 12
6342 17
6343 16
6344 6
6345 12
6346 46
6347 70
6348 92
6349 83
6350 87
6351 52
6352 35
6353 97
6354 43
6355 82
6356 89
6357 68
6358 49
6359 60
6360 75
6361 67
6362 12
6363 24
6364 38
6365 23
6366 80
6367 94
6368 42
6369 82
6370 82
6371 56
6372 43
6373 55
6374 80
6375 43
6376 1
6377 42
6378 93
6379 94
6380 19
6381 72
6382 85
6383 17
6384 50
6385 28
6386 50
6387 32
6388 62
6389 89
6390 16
6391 97
6392 9
6393 19
6394 7
6395 39
6396 29
6397 92
6398 88
6399 20
6400 54
6401 36
6402 71
6403 40
6404 32
6405 2
6406 32
6407 45
6408 39
6409 57
6410 62
6411 28
6412 71
6413 22
6414 42
6415 7
6416 93
6417 51
6418 23
6419 48
6420 13
6421 78
6422 81
6423 55
6424 35
6425 12
6426 15
6427 39
6428 92
6429 55
6430 55
6431 47
6432 42
6433 13
6434 18
6435 39
6436 30
6437 84
6438 37
6439 39
6440 18
6441 81
6442 2
6443 15
6444 1
6445 7
6446 46
6447 78
6448 49
6449 10
6450 92
6451 17
6452 58
6453 21
6454 6
6455 78
6456 57
6457 16
6458 17
6459 4
6460 77
6461 56
6462 82
6463 51
6464 7
6465 6
6466 99
6467 11
6468 43
6469 13
6470 65
6471 60
6472 79
6473 97
6474 78
6475 4
6476 5
6477 22
6478 22
6479 17
6480 35
6481 36
6482 47
6483 30
6484 47
6485 83
6486 11
6487 64
6488 80
6489 21
6490 20
6491 47
6492 23
6493 42
6494 56
6495 23
6496 0
6497 85
6498 59
6499 70
6500 46
6501 41
6502 89
6503 94
6504 65
6505 10
6506 54
6507 39
6508 87
6509 8
6510 36
6511 64
6512 31
6513 97
6514 20
6515 20
6516 81
6517 39
6518 19
6519 85
6520 31
6521 80
6522 46
6523 61
6524 44
6525 15
6526 27
6527 15
6528 82
6529 94
6530 42
6531 5
6532 59
6533 1
6534 38
6535 72
6536 91
6537 6
6538 68
6539 28
6540 41
6541 7
6542 80
6543 40
6544 60
6545 8
6546 16
6547 88
6548 75
6549 20
6550 18
6551 9
6552 99
6553 6
6554 37
6555 29
6556 59
6557 52
6558 37
6559 99
6560 6
6561 39
6562 41
6563 43
6564 50
6565 9
6566 88
6567 85
6568 44
6569 90
6570 19
6571 24
6572 70
6573 52
6574 66
6575 79
6576 25
6577 35
6578 39
6579 27
6580 46
6581 42
6582 35
6583 80
6584 11
6585 110
6586 41
6587 37
6588 22
6589 11
6590 15
6591 88
6592 82
6593 25
6594 13
6595 70
6596 86
6597 72
6598 22
6599 5
6600 68
6601 19
6602 67
6603 30
6604 66
6605 20
6606 24
6607 89
6608 62
6609 34
6610 51
6611 42
6612 59
6613 38
6614 72
6615 84
6616 81
6617 28
6618 13
6619 64
6620 17
6621 74
6622 55
6623 72
6624 31
6625 18
6626 71
6627 3
6628 33
6629 111
6630 1
6631 30
6632 63
6633 30
6634 61
6635 14
6636 46
6637 63
6638 84
6639 6
6640 33
6641 72
6642 75
6643 48
6644 2
6645 53
6646 13
6647 77
6648 61
6649 40
6650 18
6651 16
6652 21
6653 46
6654 42
6655 99
6656 1
6657 36
6658 0
6659 90
6660 88
6661 17
6662 65
6663 23
6664 45
6665 1
6666 20
6667 19
6668 77
6669 70
6670 76
6671 56
6672 20
6673 36
6674 7
6675 19
6676 10
6677 8
6678 67
6679 84
6680 10
6681 20
6682 16
6683 40
6684 70
6685 28
6686 83
6687 61
6688 91
6689 79
6690 65
6691 39
6692 45
6693 13
6694 57
6695 46
6696 30
6697 65
6698 68
6699 23
6700 2
6701 35
6702 16
6703 10
6704 8
6705 59
6706 54
6707 85
6708 39
6709 40
6710 70
6711 11
6712 21
6713 29
6714 8
6715 16
6716 71
6717 79
6718 60
6719 33
6720 32
6721 30
6722 54
6723 54
6724 25
6725 67
6726 39
6727 34
6728 10
6729 53
6730 65
6731 71
6732 63
6733 22
6734 87
6735 16
6736 69
6737 42
6738 68
6739 8
6740 14
6741 63
6742 91
6743 70
6744 32
6745 18
6746 86
6747 99
6748 69
6749 24
6750 71
6751 42
6752 60
6753 85
6754 67
6755 89
6756 66
6757 82
6758 7
6759 42
6760 17
6761 15
6762 36
6763 43
6764 48
6765 60
6766 57
6767 3
6768 66
6769 85
6770 89
6771 41
6772 11
6773 59
6774 75
6775 93
6776 78
6777 70
6778 36
6779 16
6780 45
6781 79
6782 14
6783 46
6784 1
6785 42
6786 67
6787 74
6788 58
6789 63
6790 89
6791 22
6792 71
6793 38
6794 10
6795 8
6796 43
6797 31
6798 2
6799 51
6800 16
6801 16
6802 89
6803 31
6804 21
6805 13
6806 33
6807 14
6808 59
6809 43
6810 39
6811 43
6812 20
6813 50
6814 5
6815 5
6816 12
6817 80
6818 22
6819 88
6820 77
6821 7
6822 31
6823 78
6824 3
6825 3
6826 99
6827 50
6828 9
6829 37
6830 15
6831 59
6832 93
6833 35
6834 85
6835 30
6836 33
6837 59
6838 9
6839 22
6840 6
6841 22
6842 47
6843 12
6844 56
6845 37
6846 48
6847 76
6848 58
6849 88
6850 30
6851 83
6852 39
6853 92
6854 16
6855 84
6856 23
6857 63
6858 59
6859 13
6860 25
6861 75
6862 37
6863 31
6864 5
6865 81
6866 36
6867 9
6868 59
6869 6
6870 58
6871 69
6872 20
6873 45
6874 11
6875 33
6876 25
6877 18
6878 49
6879 55
6880 44
6881 82
6882 51
6883 45
6884 97
6885 59
6886 35
6887 57
6888 94
6889 92
6890 86
6891 7
6892 71
6893 42
6894 12
6895 23
6896 21
6897 18
6898 40
6899 89
6900 55
6901 42
6902 85
6903 37
6904 35
6905 78
6906 97
6907 13
6908 21
6909 40
6910 10
6911 39
6912 13
6913 35
6914 9
6915 3
6916 12
6917 63
6918 53
6919 39
6920 70
6921 94
6922 30
6923 39
6924 51
6925 21
6926 29
6927 42
6928 11
6929 9
6930 70
6931 94
6932 50
6933 38
6934 35
6935 78
6936 7
6937 12
6938 44
6939 16
6940 51
6941 45
6942 48
6943 35
6944 60
6945 87
6946 46
6947 16
6948 66
6949 93
6950 51
6951 1
6952 1
6953 51
6954 7
6955 5
6956 87
6957 58
6958 71
6959 32
6960 54
6961 31
6962 25
6963 35
6964 78
6965 29
6966 71
6967 85
6968 61
6969 16
6970 42
6971 5
6972 60
6973 31
6974 44
6975 2
6976 78
6977 54
6978 5
6979 78
6980 37
6981 90
6982 82
6983 54
6984 63
6985 35
6986 67
6987 80
6988 21
6989 6
6990 0
6991 71
6992 25
6993 43
6994 20
6995 13
6996 94
6997 64
6998 50
6999 80
7000 29
7001 8
7002 83
7003 40
7004 30
7005 54
7006 22
7007 39
7008 6
7009 14
7010 2
7011 51
7012 94
7013 44
7014 33
7015 69
7016 72
7017 16
7018 42
7019 72
7020 46
7021 31
7022 65
7023 90
7024 5
7025 57
7026 71
7027 23
7028 16
7029 94
7030 93
7031 31
7032 73
7033 31
7034 46
7035 72
7036 26
7037 53
7038 18
7039 55
7040 69
7041 70
7042 21
7043 18
7044 42
7045 88
7046 13
7047 69
7048 33
7049 67
7050 21
7051 15
7052 23
7053 39
7054 70
7055 28
7056 68
7057 20
7058 54
7059 14
7060 18
7061 15
7062 41
7063 69
7064 19
7065 29
7066 92
7067 39
7068 27
7069 32
7070 83
7071 21
7072 18
7073 77
7074 33
7075 85
7076 21
7077 45
7078 73
7079 82
7080 43
7081 89
7082 15
7083 29
7084 74
7085 6
7086 2
7087 33
7088 70
7089 27
7090 24
7091 65
7092 11
7093 48
7094 9
7095 60
7096 13
7097 42
7098 40
7099 74
7100 15
7101 85
7102 0
7103 86
7104 25
7105 66
7106 71
7107 94
7108 67
7109 44
7110 46
7111 7
7112 15
7113 21
7114 35
7115 36
7116 75
7117 24
7118 32
7119 54
7120 55
7121 64
7122 5
7123 75
7124 51
7125 27
7126 9
7127 20
7128 46
7129 10
7130 11
7131 3
7132 34
7133 71
7134 0
7135 1
7136 75
7137 83
7138 50
7139 32
7140 51
7141 60
7142 37
7143 18
7144 33
7145 39
7146 63
7147 73
7148 20
7149 77
7150 8
7151 46
7152 63
7153 88
7154 47
7155 22
7156 86
7157 17
7158 17
7159 13
7160 83
7161 23
7162 38
7163 69
7164 19
7165 5
7166 31
7167 14
7168 32
7169 71
7170 1
7171 33
7172 25
7173 41
7174 67
7175 43
7176 28
7177 99
7178 76
7179 86
7180 21
7181 39
7182 60
7183 2
7184 97
7185 49
7186 45
7187 49
7188 86
7189 27
7190 87
7191 39
7192 66
7193 19
7194 74
7195 97
7196 64
7197 63
7198 71
7199 3
7200 53
7201 20
7202 60
7203 66
7204 90
7205 59
7206 54
7207 7
7208 45
7209 46
7210 64
7211 67
7212 29
7213 63
7214 0
7215 81
7216 25
7217 40
7218 29
7219 32
7220 91
7221 38
7222 5
7223 58
7224 89
7225 92
7226 36
7227 84
7228 16
7229 61
7230 8
7231 88
7232 8
7233 31
7234 58
7235 42
7236 18
7237 42
7238 49
7239 35
7240 48
7241 8
7242 46
7243 78
7244 63
7245 39
7246 77
7247 36
7248 97
7249 97
7250 3
7251 13
7252 0
7253 9
7254 86
7255 56
7256 0
7257 49
7258 26
7259 32
7260 14
7261 47
7262 68
7263 3
7264 11
7265 72
7266 6
7267 43
7268 81
7269 9
7270 73
7271 73
7272 2
7273 31
7274 60
7275 24
7276 38
7277 44
7278 27
7279 74
7280 59
7281 2
7282 45
7283 26
7284 14
7285 24
7286 70
7287 40
7288 50
7289 16
7290 71
7291 15
7292 54
7293 13
7294 77
7295 22
7296 69
7297 22
7298 72
7299 26
7300 30
7301 53
7302 42
7303 24
7304 63
7305 22
7306 21
7307 60
7308 59
7309 74
7310 38
7311 46
7312 28
7313 32
7314 37
7315 14
7316 42
7317 16
7318 24
7319 112
7320 42
7321 74
7322 84
7323 73
7324 42
7325 41
7326 37
7327 48
7328 64
7329 73
7330 25
7331 20
7332 92
7333 52
7334 88
7335 67
7336 50
7337 86
7338 33
7339 0
7340 12
7341 80
7342 4
7343 81
7344 43
7345 34
7346 50
7347 81
7348 45
7349 18
7350 59
7351 29
7352 81
7353 12
7354 10
7355 20
7356 93
7357 93
7358 60
7359 16
7360 81
7361 18
7362 24
7363 90
7364 4
7365 22
7366 50
7367 90
7368 85
7369 27
7370 22
7371 42
7372 10
7373 21
7374 8
7375 37
7376 82
7377 69
7378 59
7379 45
7380 22
7381 63
7382 66
7383 62
7384 43
7385 83
7386 32
7387 20
7388 17
7389 1
7390 20
7391 12
7392 94
7393 30
7394 90
7395 78
7396 12
7397 40
7398 39
7399 36
7400 97
7401 58
7402 51
7403 73
7404 0
7405 84
7406 31
7407 86
7408 45
7409 5
7410 60
7411 6
7412 0
7413 41
7414 1
7415 1
7416 68
7417 42
7418 46
7419 34
7420 66
7421 90
7422 67
7423 85
7424 41
7425 55
7426 78
7427 3
7428 42
7429 6
7430 20
7431 89
7432 89
7433 80
7434 69
7435 7
7436 5
7437 35
7438 23
7439 33
7440 82
7441 69
7442 37
7443 59
7444 36
7445 88
7446 90
7447 27
7448 15
7449 43
7450 84
7451 52
7452 83
7453 50
7454 78
7455 45
7456 90
7457 32
7458 14
7459 69
7460 58
7461 70
7462 69
7463 74
7464 16
7465 37
7466 74
7467 76
7468 14
7469 39
7470 12
7471 27
7472 83
7473 2
7474 46
7475 51
7476 77
7477 49
7478 70
7479 85
7480 75
7481 7
7482 46
7483 43
7484 42
7485 24
7486 47
7487 79
7488 67
7489 31
7490 97
7491 39
7492 75
7493 87
7494 8
7495 42
7496 73
7497 77
7498 73
7499 24
7500 13
7501 33
7502 25
7503 40
7504 67
7505 36
7506 65
7507 89
7508 93
7509 33
7510 97
7511 10
7512 23
7513 69
7514 7
7515 74
7516 56
7517 23
7518 92
7519 82
7520 85
7521 92
7522 75
7523 7
7524 25
7525 85
7526 9
7527 29
7528 21
7529 26
7530 92
7531 71
7532 76
7533 30
7534 8
7535 87
7536 49
7537 45
7538 35
7539 81
7540 93
7541 81
7542 22
7543 26
7544 70
7545 46
7546 13
7547 10
7548 22
7549 71
7550 62
7551 27
7552 57
7553 44
7554 78
7555 18
7556 16
7557 37
7558 41
7559 11
7560 16
7561 92
7562 85
7563 41
7564 83
7565 81
7566 72
7567 69
7568 42
7569 59
7570 99
7571 73
7572 32
7573 48
7574 66
7575 42
7576 35
7577 16
7578 81
7579 38
7580 39
7581 15
7582 53
7583 89
7584 84
7585 75
7586 34
7587 59
7588 20
7589 86
7590 14
7591 41
7592 42
7593 75
7594 51
7595 29
7596 51
7597 58
7598 38
7599 63
7600 31
7601 5
7602 57
7603 4
7604 23
7605 6
7606 85
7607 88
7608 19
7609 70
7610 14
7611 75
7612 38
7613 18
7614 89
7615 94
7616 59
7617 10
7618 58
7619 67
7620 23
7621 35
7622 39
7623 8
7624 35
7625 43
7626 11
7627 34
7628 23
7629 9
7630 88
7631 67
7632 73
7633 37
7634 53
7635 7
7636 77
7637 54
7638 72
7639 18
7640 51
7641 63
7642 68
7643 32
7644 46
7645 39
7646 62
7647 56
7648 35
7649 19
7650 67
7651 24
7652 80
7653 73
7654 42
7655 51
7656 79
7657 23
7658 27
7659 67
7660 35
7661 18
7662 18
7663 78
7664 58
7665 42
7666 6
7667 47
7668 57
7669 36
7670 13
7671 10
7672 54
7673 38
7674 7
7675 90
7676 63
7677 82
7678 22
7679 39
7680 31
7681 81
7682 23
7683 6
7684 22
7685 74
7686 31
7687 17
7688 84
7689 93
7690 10
7691 22
7692 88
7693 20
7694 56
7695 23
7696 50
7697 77
7698 22
7699 60
7700 37
7701 70
7702 63
7703 47
7704 55
7705 37
7706 34
7707 74
7708 83
7709 40
7710 81
7711 9
7712 15
7713 45
7714 19
7715 25
7716 71
7717 55
7718 24
7719 90
7720 40
7721 45
7722 32
7723 30
7724 7
7725 76
7726 87
7727 7
7728 18
7729 63
7730 32
7731 12
7732 48
7733 27
7734 24
7735 34
7736 90
7737 0
7738 50
7739 45
7740 41
7741 76
7742 71
7743 3
7744 16
7745 17
7746 9
7747 113
7748 20
7749 46
7750 4
7751 60
7752 89
7753 12
7754 47
7755 91
7756 70
7757 21
7758 7
7759 17
7760 22
7761 7
7762 66
7763 41
7764 80
7765 31
7766 70
7767 8
7768 27
7769 19
7770 27
7771 27
7772 43
7773 8
7774 50
7775 85
7776 23
7777 0
7778 35
7779 29
7780 11
7781 42
7782 54
7783 65
7784 16
7785 51
7786 83
7787 56
7788 22
7789 13
7790 67
7791 47
7792 79
7793 8
7794 51
7795 25
7796 89
7797 19
7798 11
7799 49
7800 8
7801 40
7802 14
7803 69
7804 89
7805 29
7806 31
7807 77
7808 49
7809 5
7810 3
7811 92
7812 21
7813 31
7814 55
7815 23
7816 8
7817 78
7818 69
7819 35
7820 60
7821 45
7822 55
7823 83
7824 42
7825 5
7826 97
7827 24
7828 48
7829 70
7830 62
7831 65
7832 90
7833 14
7834 32
7835 35
7836 31
7837 15
7838 70
7839 1
7840 55
7841 42
7842 61
7843 49
7844 20
7845 53
7846 51
7847 94
7848 69
7849 23
7850 50
7851 49
7852 55
7853 70
7854 76
7855 12
7856 38
7857 34
7858 21
7859 57
7860 80
7861 18
7862 22
7863 17
7864 85
7865 68
7866 23
7867 57
7868 39
7869 2
7870 93
7871 37
7872 36
7873 58
7874 22
7875 60
7876 42
7877 17
7878 22
7879 64
7880 35
7881 77
7882 51
7883 4
7884 71
7885 75
7886 4
7887 54
7888 34
7889 21
7890 74
7891 65
7892 24
7893 94
7894 10
7895 10
7896 64
7897 37
7898 8
7899 20
7900 34
7901 21
7902 17
7903 72
7904 20
7905 14
7906 38
7907 17
7908 56
7909 82
7910 40
7911 37
7912 12
7913 71
7914 86
7915 59
7916 10
7917 85
7918 90
7919 25
7920 85
7921 15
7922 97
7923 20
7924 93
7925 16
7926 77
7927 42
7928 13
7929 20
7930 70
7931 97
7932 88
7933 85
7934 59
7935 91
7936 38
7937 44
7938 61
7939 22
7940 78
7941 85
7942 31
7943 3
7944 50
7945 33
7946 89
7947 89
7948 74
7949 45
7950 39
7951 6
7952 49
7953 36
7954 33
7955 94
7956 64
7957 90
7958 6
7959 34
7960 82
7961 56
7962 24
7963 84
7964 22
7965 22
7966 80
7967 24
7968 36
7969 0
7970 45
7971 65
7972 93
7973 70
7974 83
7975 16
7976 4
7977 22
7978 75
7979 36
7980 27
7981 10
7982 61
7983 23
7984 12
7985 6
7986 22
7987 34
7988 85
7989 71
7990 27
7991 25
7992 43
7993 54
7994 65
7995 78
7996 37
7997 64
7998 24
7999 25
8000 59
8001 23
8002 78
8003 31
8004 50
8005 36
8006 94
8007 49
8008 32
8009 58
8010 3
8011 39
8012 21
8013 54
8014 74
8015 90
8016 88
8017 40
8018 45
8019 77
8020 37
8021 77
8022 38
8023 86
8024 85
8025 97
8026 38
8027 6
8028 30
8029 51
8030 59
8031 79
8032 97
8033 31
8034 64
8035 89
8036 92
8037 45
8038 18
8039 6
8040 19
8041 53
8042 75
8043 78
8044 6
8045 71
8046 2
8047 27
8048 75
8049 32
8050 77
8051 46
8052 6
8053 73
8054 22
8055 12
8056 39
8057 23
8058 80
8059 82
8060 59
8061 12
8062 81
8063 78
8064 54
8065 82
8066 35
8067 37
8068 0
8069 42
8070 3
8071 4
8072 15
8073 13
8074 38
8075 33
8076 24
8077 91
8078 74
8079 15
8080 32
8081 17
8082 9
8083 4
8084 91
8085 36
8086 32
8087 94
8088 29
8089 29
8090 75
8091 42
8092 75
8093 3
8094 23
8095 73
8096 55
8097 44
8098 64
8099 19
8100 7
8101 84
8102 23
8103 81
8104 14
8105 51
8106 72
8107 35
8108 63
8109 35
8110 80
8111 1
8112 56
8113 40
8114 93
8115 49
8116 34
8117 73
8118 47
8119 13
8120 6
8121 25
8122 91
8123 14
8124 81
8125 66
8126 34
8127 29
8128 16
8129 42
8130 32
8131 82
8132 66
8133 36
8134 14
8135 27
8136 42
8137 69
8138 15
8139 32
8140 57
8141 76
8142 49
8143 73
8144 37
8145 81
8146 22
8147 40
8148 5
8149 49
8150 16
8151 60
8152 33
8153 69
8154 71
8155 5
8156 1
8157 63
8158 31
8159 1
8160 12
8161 43
8162 16
8163 92
8164 13
8165 60
8166 2
8167 40
8168 12
8169 14
8170 70
8171 89
8172 21
8173 51
8174 78
8175 17
8176 14
8177 47
8178 49
8179 65
8180 90
8181 89
8182 21
8183 47
8184 64
8185 91
8186 75
8187 73
8188 27
8189 97
8190 9
8191 66
8192 31
8193 91
8194 75
8195 20
8196 88
8197 33
8198 7
8199 24
8200 37
8201 36
8202 57
8203 27
8204 44
8205 59
8206 23
8207 45
8208 22
8209 29
8210 97
8211 1
8212 23
8213 80
8214 51
8215 44
8216 13
8217 13
8218 30
8219 57
8220 29
8221 57
8222 49
8223 31
8224 77
8225 31
8226 85
8227 36
8228 32
8229 21
8230 49
8231 13
8232 20
8233 22
8234 14
8235 8
8236 37
8237 14
8238 69
8239 9
8240 46
8241 76
8242 78
8243 58
8244 70
8245 64
8246 50
8247 39
8248 10
8249 3
8250 67
8251 10
8252 75
8253 67
8254 51
8255 35
8256 25
8257 42
8258 27
8259 5
8260 74
8261 44
8262 12
8263 1
8264 36
8265 12
8266 22
8267 51
8268 32
8269 19
8270 76
8271 69
8272 75
8273 17
8274 23
8275 27
8276 92
8277 59
8278 0
8279 46
8280 51
8281 63
8282 37
8283 30
8284 48
8285 92
8286 21
8287 60
8288 11
8289 20
8290 46
8291 70
8292 16
8293 9
8294 34
8295 35
8296 44
8297 70
8298 63
8299 39
8300 23
8301 13
8302 12
8303 50
8304 22
8305 46
8306 17
8307 28
8308 92
8309 54
8310 33
8311 12
8312 11
8313 78
8314 29
8315 46
8316 11
8317 64
8318 88
8319 55
8320 24
8321 45
8322 30
8323 45
8324 31
8325 25
8326 60
8327 39
8328 51
8329 74
8330 27
8331 45
8332 56
8333 25
8334 48
8335 1
8336 9
8337 34
8338 88
8339 90
8340 29
8341 71
8342 49
8343 81
8344 2
8345 20
8346 19
8347 26
8348 54
8349 66
8350 30
8351 60
8352 66
8353 4
8354 53
8355 77
8356 1
8357 27
8358 1
8359 2
8360 3
8361 31
8362 8
8363 65
8364 38
8365 89
8366 32
8367 91
8368 16
8369 72
8370 48
8371 50
8372 25
8373 43
8374 75
8375 23
8376 28
8377 32
8378 78
8379 46
8380 78
8381 21
8382 21
8383 57
8384 71
8385 47
8386 23
8387 49
8388 82
8389 51
8390 15
8391 22
8392 88
8393 61
8394 71
8395 15
8396 78
8397 48
8398 6
8399 32
8400 42
8401 37
8402 24
8403 11
8404 37
8405 10
8406 48
8407 40
8408 40
8409 63
8410 6
8411 87
8412 77
8413 81
8414 86
8415 4
8416 82
8417 29
8418 52
8419 8
8420 19
8421 30
8422 31
8423 13
8424 20
8425 16
8426 94
8427 66
8428 70
8429 7
8430 16
8431 73
8432 24
8433 29
8434 11
8435 48
8436 33
8437 54
8438 39
8439 8
8440 40
8441 52
8442 60
8443 53
8444 99
8445 77
8446 40
8447 62
8448 13
8449 9
8450 77
8451 18
8452 16
8453 57
8454 58
8455 31
8456 46
8457 45
8458 90
8459 37
8460 88
8461 71
8462 90
8463 81
8464 65
8465 38
8466 35
8467 91
8468 13
8469 70
8470 39
8471 70
8472 72
8473 84
8474 75
8475 13
8476 41
8477 12
8478 40
8479 31
8480 73
8481 11
8482 46
8483 14
8484 15
8485 1
8486 16
8487 22
8488 62
8489 10
8490 5
8491 42
8492 22
8493 39
8494 38
8495 29
8496 6
8497 38
8498 32
8499 69
8500 63
8501 88
8502 60
8503 62
8504 45
8505 79
8506 70
8507 86
8508 9
8509 11
8510 71
8511 22
8512 13
8513 90
8514 33
8515 20
8516 67
8517 85
8518 69
8519 52
8520 48
8521 76
8522 90
8523 35
8524 23
8525 23
8526 67
8527 63
8528 15
8529 87
8530 54
8531 44
8532 82
8533 63
8534 32
8535 89
8536 20
8537 58
8538 51
8539 90
8540 44
8541 92
8542 43
8543 43
8544 50
8545 51
8546 71
8547 41
8548 4
8549 56
8550 55
8551 74
8552 74
8553 1
8554 23
8555 8
8556 44
8557 39
8558 92
8559 29
8560 20
8561 10
8562 61
8563 42
8564 23
8565 5
8566 16
8567 65
8568 0
8569 40
8570 78
8571 84
8572 64
8573 99
8574 2
8575 80
8576 88
8577 46
8578 59
8579 89
8580 60
8581 88
8582 46
8583 7
8584 41
8585 25
8586 1
8587 23
8588 64
8589 14
8590 9
8591 93
8592 97
8593 31
8594 7
8595 17
8596 92
8597 8
8598 71
8599 27
8600 75
8601 90
8602 90
8603 6
8604 14
8605 82
8606 89
8607 56
8608 23
8609 4
8610 89
8611 46
8612 85
8613 63
8614 31
8615 31
8616 25
8617 73
8618 83
8619 37
8620 34
8621 40
8622 36
8623 35
8624 16
8625 79
8626 73
8627 85
8628 71
8629 51
8630 0
8631 11
8632 78
8633 14
8634 81
8635 31
8636 45
8637 29
8638 55
8639 82
8640 43
8641 81
8642 71
8643 12
8644 28
8645 23
8646 53
8647 50
8648 12
8649 29
8650 45
8651 41
8652 70
8653 19
8654 39
8655 93
8656 18
8657 63
8658 70
8659 91
8660 14
8661 19
8662 78
8663 6
8664 17
8665 4
8666 93
8667 83
8668 55
8669 42
8670 40
8671 2
8672 72
8673 86
8674 86
8675 20
8676 33
8677 26
8678 14
8679 15
8680 8
8681 49
8682 60
8683 5
8684 12
8685 50
8686 58
8687 59
8688 37
8689 24
8690 83
8691 83
8692 64
8693 57
8694 93
8695 42
8696 88
8697 58
8698 55
8699 24
8700 23
8701 18
8702 10
8703 69
8704 53
8705 22
8706 14
8707 33
8708 51
8709 4
8710 88
8711 15
8712 38
8713 32
8714 58
8715 77
8716 60
8717 38
8718 25
8719 34
8720 39
8721 4
8722 55
8723 71
8724 92
8725 23
8726 13
8727 48
8728 74
8729 29
8730 65
8731 58
8732 45
8733 89
8734 20
8735 22
8736 75
8737 54
8738 23
8739 38
8740 85
8741 52
8742 5
8743 81
8744 73
8745 27
8746 25
8747 5
8748 29
8749 7
8750 24
8751 91
8752 16
8753 72
8754 7
8755 52
8756 45
8757 40
8758 18
8759 21
8760 29
8761 45
8762 37
8763 90
8764 45
8765 26
8766 61
8767 46
8768 38
8769 33
8770 38
8771 29
8772 59
8773 15
8774 15
8775 35
8776 47
8777 51
8778 18
8779 70
8780 36
8781 8
8782 31
8783 86
8784 6
8785 29
8786 25
8787 75
8788 82
8789 14
8790 12
8791 21
8792 90
8793 69
8794 59
8795 71
8796 20
8797 3
8798 5
8799 42
8800 5
8801 81
8802 17
8803 38
8804 11
8805 20
8806 12
8807 48
8808 89
8809 13
8810 23
8811 45
8812 70
8813 28
8814 63
8815 83
8816 77
8817 23
8818 76
8819 67
8820 59
8821 4
8822 66
8823 13
8824 29
8825 16
8826 29
8827 46
8828 55
8829 3
8830 73
8831 92
8832 42
8833 22
8834 43
8835 58
8836 1
8837 31
8838 20
8839 12
8840 61
8841 24
8842 19
8843 82
8844 18
8845 25
8846 9
8847 44
8848 69
8849 83
8850 45
8851 5
8852 35
8853 30
8854 46
8855 97
8856 12
8857 17
8858 20
8859 57
8860 28
8861 35
8862 25
8863 52
8864 39
8865 48
8866 9
8867 52
8868 17
8869 0
8870 14
8871 43
8872 84
8873 65
8874 84
8875 20
8876 23
8877 63
8878 65
8879 85
8880 38
8881 85
8882 36
8883 85
8884 84
8885 27
8886 51
8887 36
8888 15
8889 84
8890 59
8891 71
8892 30
8893 32
8894 43
8895 51
8896 88
8897 18
8898 50
8899 85
8900 23
8901 52
8902 24
8903 24
8904 37
8905 49
8906 0
8907 73
8908 24
8909 92
8910 41
8911 93
8912 86
8913 58
8914 13
8915 11
8916 64
8917 86
8918 30
8919 23
8920 42
8921 40
8922 80
8923 6
8924 46
8925 73
8926 3
8927 51
8928 69
8929 42
8930 30
8931 35
8932 80
8933 39
8934 49
8935 42
8936 5
8937 73
8938 90
8939 9
8940 91
8941 57
8942 51
8943 17
8944 2
8945 27
8946 8
8947 40
8948 27
8949 46
8950 78
8951 19
8952 69
8953 16
8954 92
8955 89
8956 53
8957 58
8958 9
8959 91
8960 46
8961 1
8962 12
8963 0
8964 27
8965 32
8966 40
8967 8
8968 65
8969 40
8970 0
8971 71
8972 89
8973 85
8974 23
8975 8
8976 39
8977 45
8978 15
8979 68
8980 11
8981 88
8982 64
8983 71
8984 40
8985 0
8986 20
8987 22
8988 51
8989 77
8990 24
8991 32
8992 45
8993 48
8994 85
8995 30
8996 72
8997 55
8998 43
8999 67
9000 84
9001 97
9002 55
9003 5
9004 38
9005 1
9006 35
9007 80
9008 40
9009 65
9010 88
9011 17
9012 14
9013 57
9014 15
9015 29
9016 52
9017 92
9018 54
9019 49
9020 84
9021 69
9022 48
9023 59
9024 14
9025 42
9026 64
9027 16
9028 18
9029 2
9030 0
9031 15
9032 12
9033 39
9034 70
9035 23
9036 69
9037 14
9038 83
9039 71
9040 77
9041 53
9042 83
9043 18
9044 50
9045 29
9046 31
9047 34
9048 71
9049 44
9050 92
9051 20
9052 0
9053 40
9054 18
9055 99
9056 97
9057 35
9058 70
9059 6
9060 89
9061 0
9062 86
9063 91
9064 90
9065 37
9066 17
9067 49
9068 32
9069 24
9070 22
9071 16
9072 58
9073 26
9074 70
9075 37
9076 38
9077 68
9078 29
9079 51
9080 39
9081 30
9082 6
9083 30
9084 70
9085 22
9086 94
9087 81
9088 78
9089 99
9090 11
9091 15
9092 10
9093 71
9094 51
9095 70
9096 52
9097 92
9098 85
9099 21
9100 42
9101 51
9102 38
9103 27
9104 43
9105 68
9106 79
9107 2
9108 22
9109 33
9110 15
9111 1
9112 0
9113 16
9114 23
9115 53
9116 77
9117 33
9118 42
9119 23
9120 16
9121 17
9122 41
9123 42
9124 53
9125 14
9126 1
9127 80
9128 22
9129 23
9130 62
9131 3
9132 33
9133 51
9134 30
9135 35
9136 83
9137 10
9138 6
9139 32
9140 33
9141 5
9142 52
9143 45
9144 10
9145 37
9146 31
9147 39
9148 1
9149 36
9150 4
9151 57
9152 91
9153 29
9154 34
9155 34
9156 39
9157 36
9158 13
9159 42
9160 64
9161 92
9162 70
9163 32
9164 13
9165 17
9166 70
9167 9
9168 57
9169 32
9170 91
9171 22
9172 21
9173 7
9174 84
9175 16
9176 71
9177 79
9178 63
9179 99
9180 42
9181 32
9182 71
9183 76
9184 34
9185 54
9186 66
9187 67
9188 50
9189 65
9190 16
9191 8
9192 30
9193 27
9194 17
9195 82
9196 32
9197 37
9198 59
9199 47
9200 51
9201 17
9202 27
9203 17
9204 13
9205 43
9206 36
9207 56
9208 4
9209 7
9210 43
9211 8
9212 18
9213 18
9214 18
9215 23
9216 34
9217 1
9218 2
9219 40
9220 21
9221 40
9222 21
9223 71
9224 25
9225 13
9226 73
9227 1
9228 33
9229 92
9230 40
9231 90
9232 51
9233 74
9234 50
9235 46
9236 7
9237 23
9238 34
9239 93
9240 35
9241 16
9242 65
9243 83
9244 14
9245 34
9246 38
9247 81
9248 39
9249 91
9250 42
9251 80
9252 85
9253 62
9254 3
9255 77
9256 58
9257 56
9258 75
9259 69
9260 78
9261 76
9262 58
9263 56
9264 53
9265 74
9266 53
9267 58
9268 9
9269 56
9270 55
9271 59
9272 47
9273 65
9274 63
9275 53
9276 18
9277 85
9278 97
9279 25
9280 43
9281 32
9282 50
9283 65
9284 11
9285 78
9286 27
9287 57
9288 47
9289 59
9290 9
9291 26
9292 19
9293 26
9294 49
9295 38
9296 1
9297 10
9298 32
9299 48
9300 83
9301 28
9302 39
9303 54
9304 85
9305 48
9306 25
9307 29
9308 40
9309 88
9310 40
9311 66
9312 46
9313 29
9314 46
9315 34
9316 42
9317 30
9318 79
9319 64
9320 0
9321 68
9322 43
9323 79
9324 15
9325 47
9326 72
9327 89
9328 79
9329 1
9330 85
9331 51
9332 6
9333 78
9334 28
9335 71
9336 51
9337 66
9338 90
9339 68
9340 11
9341 25
9342 68
9343 37
9344 35
9345 90
9346 42
9347 17
9348 86
9349 20
9350 53
9351 64
9352 24
9353 1
9354 63
9355 70
9356 22
9357 37
9358 60
9359 30
9360 7
9361 25
9362 19
9363 31
9364 92
9365 39
9366 39
9367 51
9368 33
9369 20
9370 12
9371 64
9372 65
9373 47
9374 25
9375 83
9376 80
9377 46
9378 77
9379 12
9380 29
9381 59
9382 16
9383 9
9384 81
9385 80
9386 42
9387 23
9388 22
9389 81
9390 4
9391 91
9392 11
9393 34
9394 88
9395 89
9396 54
9397 79
9398 29
9399 3
9400 7
9401 48
9402 24
9403 63
9404 45
9405 58
9406 69
9407 69
9408 39
9409 42
9410 64
9411 89
9412 57
9413 72
9414 85
9415 22
9416 66
9417 64
9418 36
9419 45
9420 39
9421 12
9422 23
9423 21
9424 16
9425 44
9426 114
9427 49
9428 89
9429 12
9430 6
9431 83
9432 48
9433 59
9434 0
9435 37
9436 66
9437 89
9438 66
9439 22
9440 14
9441 11
9442 46
9443 45
9444 53
9445 20
9446 62
9447 82
9448 80
9449 22
9450 7
9451 77
9452 39
9453 65
9454 12
9455 77
9456 61
9457 18
9458 35
9459 82
9460 29
9461 32
9462 90
9463 23
9464 41
9465 59
9466 69
9467 21
9468 63
9469 65
9470 28
9471 47
9472 64
9473 69
9474 13
9475 77
9476 29
9477 23
9478 61
9479 46
9480 34
9481 80
9482 48
9483 5
9484 43
9485 25
9486 90
9487 51
9488 56
9489 12
9490 42
9491 40
9492 82
9493 36
9494 91
9495 89
9496 53
9497 93
9498 9
9499 18
9500 14
9501 53
9502 16
9503 10
9504 31
9505 65
9506 7
9507 84
9508 24
9509 45
9510 61
9511 89
9512 34
9513 33
9514 72
9515 78
9516 76
9517 80
9518 49
9519 38
9520 63
9521 15
9522 94
9523 59
9524 0
9525 25
9526 19
9527 33
9528 12
9529 33
9530 6
9531 71
9532 76
9533 45
9534 52
9535 51
9536 28
9537 61
9538 65
9539 51
9540 39
9541 22
9542 75
9543 59
9544 13
9545 13
9546 35
9547 55
9548 26
9549 10
9550 94
9551 71
9552 34
9553 89
9554 70
9555 27
9556 59
9557 74
9558 54
9559 67
9560 42
9561 50
9562 91
9563 38
9564 9
9565 31
9566 28
9567 67
9568 79
9569 15
9570 89
9571 85
9572 36
9573 75
9574 34
9575 18
9576 2
9577 58
9578 32
9579 71
9580 12
9581 38
9582 44
9583 70
9584 55
9585 29
9586 93
9587 51
9588 21
9589 51
9590 11
9591 64
9592 88
9593 30
9594 94
9595 51
9596 43
9597 22
9598 94
9599 77
9600 39
9601 50
9602 28
9603 31
9604 39
9605 49
9606 17
9607 72
9608 33
9609 78
9610 74
9611 21
9612 10
9613 50
9614 23
9615 84
9616 19
9617 89
9618 59
9619 37
9620 53
9621 73
9622 84
9623 36
9624 51
9625 40
9626 21
9627 23
9628 83
9629 61
9630 56
9631 53
9632 21
9633 15
9634 62
9635 48
9636 69
9637 18
9638 5
9639 65
9640 0
9641 87
9642 65
9643 60
9644 42
9645 89
9646 10
9647 70
9648 23
9649 3
9650 19
9651 32
9652 76
9653 3
9654 17
9655 78
9656 12
9657 6
9658 81
9659 28
9660 76
9661 15
9662 14
9663 20
9664 19
9665 72
9666 52
9667 76
9668 9
9669 82
9670 8
9671 46
9672 79
9673 23
9674 78
9675 75
9676 89
9677 87
9678 80
9679 20
9680 97
9681 32
9682 0
9683 78
9684 89
9685 41
9686 16
9687 22
9688 83
9689 2
9690 48
9691 93
9692 33
9693 24
9694 70
9695 45
9696 39
9697 30
9698 59
9699 29
9700 15
9701 31
9702 10
9703 42
9704 70
9705 61
9706 0
9707 56
9708 64
9709 2
9710 12
9711 17
9712 48
9713 3
9714 86
9715 11
9716 85
9717 10
9718 14
9719 30
9720 20
9721 3
9722 42
9723 97
9724 68
9725 57
9726 5
9727 2
9728 1
9729 37
9730 1
9731 63
9732 9
9733 74
9734 0
9735 52
9736 63
9737 37
9738 31
9739 87
9740 81
9741 37
9742 97
9743 27
9744 56
9745 64
9746 93
9747 82
9748 34
9749 41
9750 3
9751 29
9752 27
9753 15
9754 25
9755 90
9756 41
9757 12
9758 35
9759 45
9760 23
9761 77
9762 40
9763 61
9764 90
9765 86
9766 1
9767 89
9768 21
9769 84
9770 47
9771 12
9772 25
9773 77
9774 33
9775 31
9776 27
9777 75
9778 18
9779 61
9780 91
9781 68
9782 45
9783 62
9784 79
9785 35
9786 37
9787 59
9788 67
9789 59
9790 89
9791 27
9792 31
9793 38
9794 49
9795 84
9796 14
9797 64
9798 89
9799 33
9800 91
9801 4
9802 35
9803 69
9804 29
9805 97
9806 28
9807 72
9808 16
9809 88
9810 1
9811 88
9812 6
9813 46
9814 50
9815 1
9816 76
9817 19
9818 56
9819 33
9820 59
9821 73
9822 37
9823 78
9824 3
9825 0
9826 25
9827 85
9828 1
9829 15
9830 75
9831 37
9832 13
9833 29
9834 31
9835 94
9836 49
9837 71
9838 70
9839 7
9840 82
9841 71
9842 64
9843 12
9844 42
9845 16
9846 59
9847 17
9848 56
9849 20
9850 89
9851 21
9852 70
9853 13
9854 85
9855 65
9856 12
9857 90
9858 71
9859 33
9860 89
9861 50
9862 34
9863 2
9864 25
9865 23
9866 51
9867 74
9868 0
9869 14
9870 20
9871 60
9872 91
9873 64
9874 79
9875 88
9876 19
9877 5
9878 89
9879 18
9880 19
9881 56
9882 68
9883 29
9884 30
9885 32
9886 49
9887 35
9888 64
9889 51
9890 45
9891 35
9892 89
9893 25
9894 42
9895 37
9896 55
9897 70
9898 34
9899 75
9900 58
9901 70
9902 24
9903 37
9904 49
9905 69
9906 39
9907 56
9908 89
9909 78
9910 31
9911 3
9912 64
9913 77
9914 6
9915 78
9916 38
9917 49
9918 1
9919 33
9920 88
9921 58
9922 5
9923 60
9924 32
9925 8
9926 45
9927 24
9928 4
9929 1
9930 72
9931 24
9932 82
9933 40
9934 45
9935 29
9936 97
9937 27
9938 25
9939 27
9940 57
9941 80
9942 83
9943 40
9944 13
9945 80
9946 85
9947 23
9948 21
9949 51
9950 5
9951 39
9952 65
9953 32
9954 97
9955 34
9956 90
9957 85
9958 81
9959 70
9960 19
9961 39
9962 50
9963 68
9964 84
9965 16
9966 63
9967 91
9968 71
9969 86
9970 71
9971 5
9972 40
9973 2
9974 39
9975 14
9976 24
9977 6
9978 16
9979 70
9980 59
9981 66
9982 32
9983 29
9984 39
9985 24
9986 39
9987 56
9988 39
9989 8
9990 64
9991 40
9992 13
9993 22
9994 79
9995 31
9996 36
9997 72
9998 72
9999 71
