0 0
1 1
2 2
3 3
4 3
5 4
6 5
7 6
8 2
9 6
10 7
11 8
12 0
13 3
14 8
15 9
16 10
17 0
18 11
19 12
20 13
21 2
22 3
23 11
24 14
25 8
26 15
27 11
28 4
29 3
30 2
31 2
32 16
33 9
34 17
35 18
36 7
37 11
38 8
39 0
40 4
41 0
42 2
43 3
44 11
45 8
46 0
47 0
48 0
49 8
50 19
51 9
52 0
53 9
54 9
55 3
56 8
57 17
58 9
59 1
60 20
61 2
62 15
63 8
64 3
65 2
66 0
67 2
68 20
69 1
70 0
71 0
72 15
73 2
74 0
75 16
76 0
77 21
78 17
79 9
80 13
81 19
82 22
83 8
84 2
85 9
86 21
87 0
88 9
89 15
90 8
91 3
92 9
93 15
94 23
95 8
96 13
97 8
98 24
99 9
100 7
101 21
102 17
103 2
104 21
105 4
106 2
107 0
108 0
109 15
110 21
111 0
112 2
113 2
114 10
115 3
116 0
117 3
118 0
119 17
120 9
121 8
122 0
123 3
124 25
125 11
126 15
127 3
128 0
129 18
130 0
131 2
132 4
133 0
134 4
135 16
136 0
137 8
138 3
139 2
140 9
141 3
142 20
143 21
144 0
145 11
146 0
147 11
148 1
149 5
150 9
151 15
152 5
153 2
154 9
155 10
156 15
157 0
158 17
159 24
160 4
161 15
162 2
163 11
164 7
165 11
166 11
167 7
168 9
169 18
170 2
171 16
172 0
173 19
174 2
175 0
176 3
177 18
178 21
179 8
180 23
181 9
182 15
183 15
184 1
185 2
186 11
187 9
188 18
189 0
190 3
191 2
192 3
193 1
194 15
195 9
196 5
197 0
198 0
199 9
200 9
201 9
202 23
203 2
204 18
205 15
206 6
207 0
208 8
209 2
210 0
211 14
212 22
213 22
214 13
215 14
216 2
217 16
218 10
219 15
220 0
221 0
222 19
223 18
224 0
225 23
226 8
227 21
228 7
229 6
230 2
231 8
232 21
233 15
234 15
235 9
236 0
237 9
238 6
239 8
240 14
241 9
242 19
243 11
244 4
245 6
246 18
247 7
248 9
249 17
250 0
251 18
252 17
253 2
254 2
255 15
256 18
257 14
258 19
259 7
260 9
261 9
262 9
263 2
264 2
265 15
266 2
267 0
268 18
269 2
270 15
271 7
272 3
273 4
274 17
275 0
276 15
277 8
278 11
279 2
280 2
281 9
282 1
283 11
284 2
285 2
286 0
287 19
288 3
289 5
290 8
291 3
292 8
293 9
294 17
295 11
296 12
297 3
298 4
299 11
300 11
301 0
302 2
303 2
304 11
305 9
306 0
307 2
308 18
309 18
310 16
311 0
312 21
313 16
314 6
315 2
316 16
317 0
318 4
319 8
320 2
321 4
322 11
323 0
324 0
325 2
326 15
327 14
328 15
329 5
330 9
331 8
332 19
333 23
334 9
335 22
336 12
337 2
338 3
339 11
340 1
341 9
342 2
343 3
344 10
345 14
346 11
347 8
348 9
349 9
350 4
351 20
352 0
353 0
354 25
355 9
356 11
357 3
358 11
359 0
360 11
361 10
362 0
363 8
364 6
365 15
366 0
367 15
368 0
369 0
370 0
371 12
372 8
373 24
374 1
375 8
376 11
377 7
378 11
379 0
380 4
381 18
382 2
383 3
384 13
385 15
386 4
387 0
388 0
389 3
390 8
391 0
392 0
393 0
394 15
395 8
396 14
397 11
398 2
399 18
400 0
401 14
402 0
403 0
404 3
405 14
406 9
407 13
408 11
409 6
410 13
411 18
412 2
413 12
414 15
415 15
416 0
417 26
418 11
419 13
420 18
421 0
422 19
423 3
424 0
425 4
426 2
427 2
428 2
429 2
430 11
431 18
432 4
433 9
434 16
435 15
436 19
437 9
438 8
439 1
440 25
441 9
442 9
443 13
444 0
445 2
446 19
447 22
448 9
449 15
450 11
451 21
452 0
453 2
454 2
455 2
456 10
457 15
458 22
459 0
460 1
461 0
462 20
463 11
464 2
465 12
466 3
467 0
468 0
469 0
470 7
471 14
472 10
473 2
474 2
475 17
476 8
477 20
478 24
479 16
480 0
481 12
482 4
483 13
484 15
485 9
486 0
487 17
488 15
489 22
490 0
491 21
492 8
493 2
494 9
495 11
496 19
497 0
498 22
499 9
500 19
501 0
502 0
503 18
504 0
505 9
506 3
507 12
508 15
509 0
510 12
511 8
512 0
513 15
514 15
515 15
516 21
517 2
518 0
519 7
520 0
521 2
522 23
523 2
524 4
525 2
526 4
527 10
528 9
529 2
530 2
531 19
532 0
533 9
534 3
535 24
536 9
537 0
538 2
539 0
540 3
541 15
542 9
543 9
544 8
545 9
546 2
547 8
548 0
549 4
550 12
551 15
552 2
553 0
554 13
555 2
556 15
557 19
558 5
559 16
560 0
561 9
562 15
563 8
564 6
565 4
566 0
567 0
568 9
569 7
570 5
571 8
572 8
573 12
574 11
575 15
576 15
577 14
578 9
579 13
580 4
581 0
582 19
583 8
584 15
585 11
586 7
587 0
588 0
589 0
590 11
591 4
592 1
593 4
594 0
595 11
596 6
597 0
598 24
599 0
600 20
601 11
602 15
603 2
604 8
605 4
606 25
607 14
608 3
609 0
610 0
611 8
612 21
613 0
614 19
615 9
616 0
617 23
618 15
619 9
620 0
621 15
622 1
623 18
624 13
625 0
626 22
627 23
628 15
629 14
630 2
631 9
632 2
633 2
634 8
635 9
636 23
637 15
638 20
639 9
640 8
641 2
642 15
643 2
644 11
645 9
646 0
647 8
648 18
649 12
650 21
651 15
652 15
653 1
654 21
655 0
656 2
657 0
658 0
659 2
660 0
661 11
662 9
663 9
664 2
665 8
666 2
667 4
668 3
669 11
670 2
671 11
672 9
673 0
674 2
675 15
676 2
677 11
678 0
679 7
680 3
681 4
682 8
683 9
684 2
685 0
686 6
687 8
688 9
689 15
690 0
691 0
692 8
693 4
694 2
695 2
696 11
697 3
698 15
699 14
700 7
701 18
702 0
703 16
704 9
705 11
706 0
707 14
708 15
709 21
710 9
711 10
712 0
713 8
714 2
715 2
716 9
717 15
718 12
719 0
720 2
721 22
722 11
723 11
724 0
725 2
726 23
727 0
728 11
729 2
730 6
731 8
732 8
733 9
734 1
735 8
736 0
737 13
738 0
739 9
740 9
741 17
742 6
743 20
744 11
745 17
746 19
747 9
748 2
749 7
750 8
751 19
752 8
753 2
754 18
755 1
756 9
757 19
758 0
759 24
760 2
761 19
762 17
763 0
764 2
765 3
766 3
767 15
768 3
769 0
770 0
771 6
772 8
773 1
774 9
775 0
776 23
777 17
778 15
779 0
780 2
781 8
782 4
783 18
784 2
785 2
786 0
787 0
788 2
789 1
790 9
791 3
792 1
793 9
794 24
795 15
796 8
797 0
798 2
799 10
800 4
801 9
802 0
803 9
804 3
805 23
806 0
807 17
808 0
809 8
810 2
811 2
812 0
813 21
814 15
815 4
816 1
817 0
818 14
819 0
820 12
821 18
822 0
823 15
824 15
825 0
826 0
827 7
828 23
829 0
830 0
831 9
832 11
833 18
834 0
835 15
836 21
837 9
838 18
839 17
840 0
841 26
842 18
843 11
844 0
845 23
846 9
847 12
848 8
849 2
850 9
851 2
852 0
853 19
854 0
855 13
856 9
857 21
858 9
859 2
860 15
861 15
862 2
863 2
864 20
865 15
866 12
867 9
868 9
869 25
870 0
871 0
872 15
873 24
874 1
875 0
876 6
877 0
878 9
879 6
880 0
881 20
882 9
883 8
884 9
885 6
886 21
887 21
888 14
889 11
890 15
891 3
892 1
893 21
894 1
895 2
896 9
897 2
898 0
899 0
900 2
901 15
902 9
903 8
904 4
905 15
906 15
907 0
908 0
909 3
910 11
911 2
912 10
913 15
914 8
915 8
916 2
917 15
918 0
919 3
920 1
921 8
922 0
923 11
924 8
925 15
926 2
927 2
928 0
929 19
930 2
931 0
932 8
933 15
934 21
935 14
936 6
937 2
938 6
939 15
940 4
941 9
942 8
943 2
944 9
945 4
946 20
947 9
948 2
949 0
950 23
951 12
952 25
953 2
954 17
955 0
956 3
957 0
958 8
959 18
960 9
961 11
962 0
963 26
964 11
965 4
966 26
967 9
968 0
969 15
970 2
971 11
972 14
973 2
974 2
975 5
976 17
977 8
978 15
979 8
980 18
981 1
982 16
983 0
984 21
985 4
986 9
987 14
988 2
989 11
990 8
991 26
992 0
993 17
994 18
995 9
996 2
997 15
998 22
999 8
1000 0
1001 11
1002 24
1003 16
1004 3
1005 0
1006 2
1007 9
1008 15
1009 22
1010 11
1011 15
1012 0
1013 2
1014 6
1015 23
1016 19
1017 13
1018 0
1019 0
1020 2
1021 2
1022 24
1023 2
1024 15
1025 24
1026 8
1027 3
1028 8
1029 0
1030 8
1031 18
1032 9
1033 17
1034 4
1035 21
1036 6
1037 3
1038 9
1039 4
1040 11
1041 16
1042 20
1043 17
1044 16
1045 8
1046 8
1047 11
1048 2
1049 20
1050 0
1051 18
1052 2
1053 3
1054 19
1055 11
1056 11
1057 1
1058 8
1059 7
1060 9
1061 0
1062 15
1063 0
1064 7
1065 2
1066 3
1067 2
1068 2
1069 2
1070 8
1071 0
1072 1
1073 16
1074 17
1075 9
1076 18
1077 9
1078 2
1079 15
1080 2
1081 2
1082 11
1083 1
1084 8
1085 3
1086 0
1087 2
1088 22
1089 13
1090 2
1091 19
1092 8
1093 13
1094 0
1095 2
1096 12
1097 4
1098 21
1099 1
1100 2
1101 15
1102 23
1103 11
1104 0
1105 0
1106 19
1107 9
1108 11
1109 22
1110 3
1111 1
1112 8
1113 0
1114 0
1115 1
1116 1
1117 19
1118 0
1119 0
1120 0
1121 9
1122 19
1123 8
1124 15
1125 2
1126 16
1127 8
1128 2
1129 0
1130 12
1131 20
1132 0
1133 25
1134 20
1135 9
1136 9
1137 6
1138 25
1139 2
1140 2
1141 9
1142 2
1143 13
1144 0
1145 3
1146 15
1147 8
1148 0
1149 9
1150 18
1151 6
1152 8
1153 2
1154 0
1155 2
1156 8
1157 18
1158 13
1159 2
1160 4
1161 9
1162 0
1163 23
1164 14
1165 18
1166 6
1167 11
1168 12
1169 10
1170 8
1171 11
1172 22
1173 11
1174 7
1175 3
1176 3
1177 2
1178 23
1179 8
1180 4
1181 8
1182 15
1183 9
1184 2
1185 15
1186 2
1187 15
1188 0
1189 11
1190 9
1191 15
1192 2
1193 0
1194 21
1195 11
1196 12
1197 0
1198 5
1199 21
1200 4
1201 2
1202 0
1203 8
1204 0
1205 20
1206 8
1207 12
1208 3
1209 12
1210 9
1211 2
1212 7
1213 0
1214 0
1215 12
1216 9
1217 8
1218 9
1219 8
1220 8
1221 8
1222 11
1223 11
1224 26
1225 4
1226 2
1227 8
1228 15
1229 3
1230 0
1231 2
1232 15
1233 2
1234 0
1235 9
1236 7
1237 9
1238 0
1239 16
1240 6
1241 3
1242 2
1243 6
1244 26
1245 15
1246 15
1247 4
1248 0
1249 2
1250 7
1251 15
1252 2
1253 13
1254 1
1255 9
1256 0
1257 2
1258 4
1259 12
1260 17
1261 9
1262 16
1263 9
1264 9
1265 9
1266 0
1267 2
1268 18
1269 11
1270 16
1271 14
1272 21
1273 10
1274 1
1275 0
1276 20
1277 20
1278 15
1279 6
1280 21
1281 9
1282 15
1283 0
1284 6
1285 15
1286 21
1287 23
1288 3
1289 4
1290 14
1291 8
1292 4
1293 0
1294 18
1295 17
1296 9
1297 3
1298 0
1299 8
1300 0
1301 11
1302 4
1303 14
1304 12
1305 9
1306 21
1307 4
1308 2
1309 0
1310 0
1311 14
1312 2
1313 17
1314 0
1315 15
1316 1
1317 2
1318 7
1319 8
1320 4
1321 0
1322 0
1323 2
1324 15
1325 10
1326 23
1327 1
1328 4
1329 9
1330 8
1331 12
1332 2
1333 13
1334 2
1335 9
1336 20
1337 10
1338 4
1339 8
1340 23
1341 16
1342 0
1343 9
1344 19
1345 15
1346 18
1347 21
1348 26
1349 7
1350 19
1351 9
1352 15
1353 1
1354 3
1355 18
1356 11
1357 19
1358 0
1359 11
1360 26
1361 13
1362 3
1363 2
1364 24
1365 0
1366 3
1367 9
1368 0
1369 3
1370 8
1371 4
1372 0
1373 0
1374 1
1375 15
1376 9
1377 0
1378 2
1379 0
1380 9
1381 0
1382 0
1383 6
1384 1
1385 13
1386 0
1387 14
1388 12
1389 13
1390 3
1391 0
1392 9
1393 11
1394 2
1395 0
1396 7
1397 3
1398 0
1399 14
1400 0
1401 0
1402 2
1403 15
1404 0
1405 18
1406 26
1407 2
1408 9
1409 2
1410 2
1411 8
1412 17
1413 22
1414 2
1415 18
1416 9
1417 4
1418 0
1419 0
1420 2
1421 7
1422 15
1423 2
1424 9
1425 15
1426 18
1427 0
1428 8
1429 21
1430 22
1431 8
1432 9
1433 2
1434 0
1435 9
1436 11
1437 0
1438 11
1439 12
1440 3
1441 2
1442 9
1443 2
1444 0
1445 2
1446 2
1447 8
1448 17
1449 15
1450 11
1451 18
1452 16
1453 12
1454 26
1455 8
1456 11
1457 0
1458 2
1459 25
1460 0
1461 23
1462 10
1463 0
1464 12
1465 15
1466 17
1467 15
1468 0
1469 8
1470 8
1471 9
1472 12
1473 9
1474 2
1475 2
1476 2
1477 4
1478 18
1479 17
1480 26
1481 1
1482 8
1483 2
1484 23
1485 2
1486 10
1487 9
1488 6
1489 19
1490 14
1491 9
1492 3
1493 2
1494 15
1495 13
1496 8
1497 8
1498 21
1499 24
1500 0
1501 18
1502 2
1503 0
1504 18
1505 21
1506 0
1507 6
1508 2
1509 13
1510 15
1511 19
1512 3
1513 8
1514 0
1515 11
1516 2
1517 9
1518 11
1519 3
1520 1
1521 18
1522 3
1523 23
1524 2
1525 6
1526 1
1527 9
1528 13
1529 7
1530 13
1531 9
1532 0
1533 9
1534 3
1535 0
1536 20
1537 4
1538 5
1539 11
1540 15
1541 12
1542 0
1543 11
1544 0
1545 5
1546 8
1547 16
1548 23
1549 0
1550 3
1551 1
1552 3
1553 1
1554 3
1555 10
1556 10
1557 9
1558 2
1559 0
1560 11
1561 16
1562 18
1563 14
1564 17
1565 15
1566 20
1567 1
1568 1
1569 0
1570 8
1571 3
1572 3
1573 3
1574 8
1575 15
1576 9
1577 9
1578 8
1579 11
1580 4
1581 2
1582 9
1583 8
1584 15
1585 13
1586 8
1587 11
1588 14
1589 16
1590 11
1591 0
1592 20
1593 0
1594 2
1595 2
1596 20
1597 11
1598 0
1599 18
1600 22
1601 11
1602 18
1603 14
1604 2
1605 0
1606 8
1607 11
1608 21
1609 16
1610 6
1611 12
1612 5
1613 15
1614 2
1615 8
1616 2
1617 9
1618 4
1619 1
1620 18
1621 0
1622 3
1623 4
1624 0
1625 0
1626 2
1627 16
1628 15
1629 21
1630 5
1631 1
1632 9
1633 13
1634 0
1635 8
1636 8
1637 8
1638 3
1639 6
1640 0
1641 15
1642 0
1643 4
1644 9
1645 2
1646 9
1647 0
1648 15
1649 14
1650 9
1651 18
1652 11
1653 21
1654 12
1655 19
1656 0
1657 0
1658 8
1659 10
1660 13
1661 10
1662 2
1663 18
1664 2
1665 0
1666 15
1667 0
1668 13
1669 9
1670 13
1671 2
1672 4
1673 15
1674 0
1675 3
1676 4
1677 14
1678 7
1679 0
1680 9
1681 2
1682 3
1683 14
1684 2
1685 19
1686 9
1687 15
1688 0
1689 15
1690 6
1691 15
1692 0
1693 9
1694 3
1695 2
1696 25
1697 6
1698 23
1699 3
1700 3
1701 17
1702 9
1703 15
1704 15
1705 15
1706 21
1707 6
1708 8
1709 9
1710 2
1711 9
1712 0
1713 20
1714 11
1715 9
1716 10
1717 6
1718 4
1719 0
1720 0
1721 3
1722 15
1723 9
1724 15
1725 13
1726 18
1727 15
1728 11
1729 13
1730 9
1731 23
1732 21
1733 0
1734 26
1735 14
1736 18
1737 0
1738 2
1739 0
1740 6
1741 4
1742 8
1743 15
1744 10
1745 8
1746 4
1747 0
1748 0
1749 25
1750 6
1751 18
1752 10
1753 9
1754 4
1755 0
1756 0
1757 0
1758 9
1759 8
1760 9
1761 8
1762 8
1763 3
1764 15
1765 2
1766 9
1767 6
1768 4
1769 0
1770 11
1771 2
1772 4
1773 5
1774 9
1775 0
1776 15
1777 11
1778 7
1779 0
1780 15
1781 0
1782 9
1783 11
1784 20
1785 18
1786 2
1787 6
1788 2
1789 3
1790 2
1791 10
1792 6
1793 2
1794 9
1795 8
1796 8
1797 4
1798 7
1799 8
1800 8
1801 0
1802 11
1803 18
1804 15
1805 2
1806 2
1807 4
1808 2
1809 2
1810 19
1811 15
1812 17
1813 9
1814 12
1815 21
1816 11
1817 11
1818 0
1819 0
1820 18
1821 12
1822 15
1823 1
1824 4
1825 7
1826 26
1827 15
1828 2
1829 2
1830 0
1831 9
1832 9
1833 9
1834 11
1835 11
1836 18
1837 2
1838 2
1839 9
1840 17
1841 10
1842 12
1843 11
1844 0
1845 25
1846 18
1847 15
1848 21
1849 20
1850 3
1851 8
1852 14
1853 0
1854 8
1855 2
1856 2
1857 22
1858 13
1859 0
1860 11
1861 0
1862 15
1863 18
1864 18
1865 2
1866 8
1867 13
1868 2
1869 3
1870 7
1871 0
1872 11
1873 8
1874 6
1875 13
1876 0
1877 3
1878 0
1879 17
1880 9
1881 10
1882 0
1883 16
1884 19
1885 3
1886 9
1887 8
1888 0
1889 11
1890 0
1891 0
1892 8
1893 2
1894 0
1895 0
1896 0
1897 11
1898 8
1899 7
1900 20
1901 2
1902 2
1903 5
1904 9
1905 0
1906 11
1907 14
1908 21
1909 11
1910 4
1911 21
1912 0
1913 0
1914 2
1915 0
1916 8
1917 23
1918 2
1919 9
1920 0
1921 8
1922 9
1923 21
1924 12
1925 0
1926 16
1927 10
1928 6
1929 9
1930 12
1931 18
1932 2
1933 0
1934 8
1935 8
1936 0
1937 2
1938 13
1939 25
1940 19
1941 2
1942 21
1943 13
1944 11
1945 0
1946 8
1947 19
1948 15
1949 0
1950 13
1951 0
1952 13
1953 7
1954 15
1955 2
1956 2
1957 2
1958 9
1959 2
1960 8
1961 18
1962 8
1963 26
1964 9
1965 14
1966 23
1967 2
1968 22
1969 0
1970 8
1971 2
1972 9
1973 17
1974 2
1975 15
1976 2
1977 2
1978 11
1979 3
1980 4
1981 1
1982 0
1983 2
1984 18
1985 14
1986 20
1987 12
1988 3
1989 2
1990 0
1991 2
1992 9
1993 19
1994 19
1995 9
1996 2
1997 2
1998 8
1999 0
2000 15
2001 0
2002 2
2003 0
2004 0
2005 6
2006 7
2007 0
2008 0
2009 15
2010 15
2011 15
2012 24
2013 2
2014 25
2015 3
2016 15
2017 0
2018 0
2019 23
2020 2
2021 16
2022 11
2023 0
2024 1
2025 15
2026 0
2027 19
2028 15
2029 0
2030 0
2031 0
2032 0
2033 0
2034 8
2035 4
2036 9
2037 1
2038 0
2039 8
2040 0
2041 2
2042 11
2043 2
2044 3
2045 0
2046 9
2047 9
2048 7
2049 8
2050 9
2051 8
2052 9
2053 8
2054 9
2055 13
2056 0
2057 4
2058 10
2059 8
2060 9
2061 18
2062 9
2063 3
2064 11
2065 13
2066 9
2067 4
2068 15
2069 11
2070 7
2071 8
2072 12
2073 10
2074 1
2075 0
2076 1
2077 15
2078 0
2079 18
2080 2
2081 0
2082 20
2083 19
2084 13
2085 5
2086 9
2087 2
2088 2
2089 0
2090 16
2091 15
2092 8
2093 9
2094 21
2095 9
2096 23
2097 9
2098 20
2099 0
2100 3
2101 12
2102 4
2103 19
2104 3
2105 9
2106 19
2107 0
2108 9
2109 0
2110 18
2111 0
2112 2
2113 0
2114 2
2115 12
2116 2
2117 4
2118 1
2119 11
2120 9
2121 9
2122 16
2123 0
2124 20
2125 15
2126 9
2127 2
2128 0
2129 1
2130 0
2131 9
2132 2
2133 3
2134 14
2135 8
2136 9
2137 19
2138 0
2139 2
2140 6
2141 23
2142 8
2143 2
2144 4
2145 20
2146 9
2147 1
2148 2
2149 2
2150 8
2151 8
2152 25
2153 12
2154 8
2155 21
2156 26
2157 2
2158 18
2159 24
2160 21
2161 19
2162 8
2163 8
2164 4
2165 9
2166 12
2167 20
2168 9
2169 11
2170 12
2171 3
2172 10
2173 18
2174 15
2175 0
2176 2
2177 13
2178 9
2179 18
2180 15
2181 9
2182 0
2183 3
2184 15
2185 4
2186 1
2187 12
2188 16
2189 6
2190 23
2191 0
2192 0
2193 2
2194 8
2195 16
2196 0
2197 17
2198 11
2199 10
2200 8
2201 8
2202 2
2203 2
2204 18
2205 6
2206 19
2207 9
2208 9
2209 4
2210 23
2211 15
2212 8
2213 7
2214 11
2215 15
2216 15
2217 8
2218 7
2219 0
2220 0
2221 19
2222 13
2223 7
2224 24
2225 9
2226 0
2227 11
2228 11
2229 8
2230 19
2231 1
2232 11
2233 8
2234 9
2235 21
2236 15
2237 0
2238 2
2239 18
2240 3
2241 9
2242 3
2243 9
2244 0
2245 9
2246 9
2247 21
2248 9
2249 11
2250 2
2251 9
2252 0
2253 26
2254 8
2255 2
2256 15
2257 1
2258 20
2259 0
2260 0
2261 5
2262 0
2263 9
2264 9
2265 23
2266 15
2267 25
2268 9
2269 15
2270 0
2271 15
2272 15
2273 4
2274 13
2275 12
2276 3
2277 2
2278 3
2279 8
2280 15
2281 16
2282 9
2283 2
2284 26
2285 18
2286 21
2287 0
2288 16
2289 0
2290 0
2291 8
2292 9
2293 2
2294 2
2295 1
2296 8
2297 13
2298 2
2299 0
2300 13
2301 2
2302 8
2303 14
2304 26
2305 2
2306 14
2307 8
2308 15
2309 1
2310 23
2311 15
2312 2
2313 7
2314 0
2315 2
2316 20
2317 0
2318 8
2319 18
2320 10
2321 13
2322 0
2323 8
2324 0
2325 1
2326 15
2327 9
2328 15
2329 1
2330 19
2331 0
2332 0
2333 18
2334 24
2335 2
2336 8
2337 4
2338 16
2339 12
2340 3
2341 9
2342 0
2343 14
2344 15
2345 4
2346 14
2347 9
2348 16
2349 4
2350 11
2351 0
2352 0
2353 15
2354 19
2355 13
2356 17
2357 0
2358 4
2359 0
2360 8
2361 15
2362 9
2363 2
2364 23
2365 18
2366 2
2367 1
2368 18
2369 0
2370 8
2371 2
2372 17
2373 15
2374 0
2375 0
2376 15
2377 2
2378 11
2379 19
2380 24
2381 6
2382 6
2383 21
2384 26
2385 11
2386 26
2387 13
2388 19
2389 9
2390 20
2391 6
2392 0
2393 9
2394 8
2395 15
2396 6
2397 3
2398 3
2399 15
2400 9
2401 9
2402 26
2403 23
2404 8
2405 15
2406 19
2407 7
2408 9
2409 0
2410 13
2411 3
2412 3
2413 0
2414 15
2415 15
2416 14
2417 0
2418 2
2419 6
2420 2
2421 15
2422 8
2423 2
2424 15
2425 4
2426 7
2427 0
2428 0
2429 11
2430 0
2431 2
2432 22
2433 9
2434 8
2435 12
2436 0
2437 8
2438 11
2439 0
2440 6
2441 2
2442 0
2443 11
2444 8
2445 24
2446 8
2447 0
2448 24
2449 9
2450 10
2451 2
2452 2
2453 0
2454 14
2455 17
2456 9
2457 24
2458 13
2459 2
2460 0
2461 11
2462 2
2463 1
2464 9
2465 0
2466 18
2467 9
2468 11
2469 11
2470 9
2471 0
2472 26
2473 23
2474 16
2475 22
2476 16
2477 11
2478 2
2479 0
2480 19
2481 2
2482 7
2483 0
2484 9
2485 9
2486 9
2487 8
2488 4
2489 15
2490 3
2491 11
2492 0
2493 2
2494 8
2495 8
2496 2
2497 0
2498 8
2499 0
2500 3
2501 10
2502 14
2503 9
2504 7
2505 15
2506 0
2507 11
2508 13
2509 8
2510 7
2511 15
2512 16
2513 4
2514 9
2515 14
2516 8
2517 0
2518 9
2519 2
2520 0
2521 21
2522 15
2523 16
2524 3
2525 0
2526 8
2527 8
2528 8
2529 17
2530 11
2531 8
2532 11
2533 2
2534 0
2535 19
2536 2
2537 15
2538 23
2539 15
2540 0
2541 19
2542 8
2543 8
2544 0
2545 0
2546 2
2547 2
2548 19
2549 9
2550 18
2551 1
2552 9
2553 0
2554 20
2555 21
2556 26
2557 16
2558 15
2559 24
2560 2
2561 1
2562 16
2563 9
2564 4
2565 4
2566 14
2567 2
2568 20
2569 19
2570 1
2571 19
2572 24
2573 14
2574 6
2575 8
2576 0
2577 15
2578 15
2579 9
2580 8
2581 14
2582 18
2583 11
2584 0
2585 0
2586 17
2587 10
2588 14
2589 11
2590 4
2591 15
2592 15
2593 18
2594 2
2595 8
2596 0
2597 18
2598 16
2599 21
2600 4
2601 11
2602 0
2603 9
2604 7
2605 9
2606 15
2607 8
2608 12
2609 2
2610 15
2611 6
2612 11
2613 2
2614 8
2615 6
2616 9
2617 11
2618 2
2619 17
2620 21
2621 19
2622 15
2623 9
2624 2
2625 11
2626 11
2627 21
2628 15
2629 0
2630 0
2631 9
2632 21
2633 0
2634 15
2635 0
2636 18
2637 23
2638 17
2639 2
2640 7
2641 8
2642 8
2643 18
2644 8
2645 7
2646 16
2647 3
2648 4
2649 3
2650 9
2651 9
2652 10
2653 18
2654 19
2655 11
2656 8
2657 0
2658 2
2659 8
2660 15
2661 19
2662 8
2663 8
2664 15
2665 11
2666 14
2667 8
2668 16
2669 21
2670 0
2671 14
2672 8
2673 0
2674 18
2675 9
2676 9
2677 18
2678 7
2679 0
2680 2
2681 0
2682 24
2683 9
2684 0
2685 0
2686 6
2687 21
2688 2
2689 20
2690 15
2691 8
2692 8
2693 0
2694 15
2695 20
2696 9
2697 13
2698 0
2699 2
2700 16
2701 9
2702 18
2703 2
2704 2
2705 15
2706 15
2707 4
2708 8
2709 0
2710 3
2711 2
2712 18
2713 4
2714 9
2715 11
2716 15
2717 15
2718 13
2719 0
2720 4
2721 13
2722 9
2723 7
2724 9
2725 20
2726 15
2727 11
2728 2
2729 17
2730 2
2731 20
2732 2
2733 11
2734 0
2735 6
2736 15
2737 24
2738 2
2739 19
2740 22
2741 18
2742 23
2743 12
2744 14
2745 7
2746 21
2747 14
2748 11
2749 4
2750 16
2751 3
2752 9
2753 18
2754 20
2755 11
2756 15
2757 0
2758 12
2759 0
2760 22
2761 4
2762 23
2763 14
2764 15
2765 2
2766 4
2767 2
2768 0
2769 11
2770 18
2771 6
2772 2
2773 18
2774 11
2775 9
2776 9
2777 3
2778 15
2779 9
2780 19
2781 2
2782 0
2783 19
2784 0
2785 9
2786 8
2787 11
2788 19
2789 10
2790 2
2791 13
2792 3
2793 15
2794 0
2795 15
2796 22
2797 2
2798 8
2799 18
2800 15
2801 2
2802 1
2803 6
2804 9
2805 19
2806 2
2807 9
2808 3
2809 22
2810 17
2811 6
2812 0
2813 11
2814 24
2815 2
2816 17
2817 23
2818 7
2819 0
2820 21
2821 0
2822 19
2823 13
2824 15
2825 11
2826 14
2827 15
2828 7
2829 23
2830 2
2831 8
2832 18
2833 15
2834 2
2835 12
2836 15
2837 2
2838 2
2839 8
2840 2
2841 18
2842 2
2843 0
2844 0
2845 2
2846 2
2847 7
2848 23
2849 11
2850 4
2851 0
2852 2
2853 2
2854 2
2855 9
2856 2
2857 20
2858 3
2859 2
2860 21
2861 0
2862 0
2863 8
2864 21
2865 0
2866 12
2867 0
2868 16
2869 19
2870 15
2871 12
2872 0
2873 8
2874 9
2875 15
2876 14
2877 2
2878 13
2879 9
2880 0
2881 8
2882 24
2883 9
2884 9
2885 8
2886 9
2887 2
2888 3
2889 12
2890 19
2891 2
2892 11
2893 2
2894 13
2895 8
2896 4
2897 2
2898 13
2899 4
2900 2
2901 0
2902 9
2903 0
2904 26
2905 2
2906 11
2907 16
2908 11
2909 11
2910 3
2911 2
2912 13
2913 9
2914 15
2915 10
2916 3
2917 4
2918 19
2919 0
2920 2
2921 3
2922 1
2923 0
2924 14
2925 15
2926 21
2927 15
2928 0
2929 2
2930 9
2931 8
2932 4
2933 0
2934 0
2935 2
2936 2
2937 6
2938 9
2939 9
2940 0
2941 0
2942 2
2943 2
2944 9
2945 20
2946 13
2947 8
2948 3
2949 15
2950 8
2951 2
2952 23
2953 0
2954 20
2955 6
2956 2
2957 9
2958 7
2959 4
2960 0
2961 9
2962 4
2963 16
2964 10
2965 18
2966 22
2967 9
2968 9
2969 0
2970 2
2971 6
2972 11
2973 9
2974 7
2975 0
2976 0
2977 23
2978 9
2979 2
2980 18
2981 2
2982 8
2983 0
2984 11
2985 0
2986 13
2987 15
2988 15
2989 0
2990 9
2991 6
2992 2
2993 15
2994 19
2995 2
2996 0
2997 2
2998 7
2999 17
3000 2
3001 9
3002 9
3003 0
3004 7
3005 11
3006 8
3007 18
3008 0
3009 3
3010 3
3011 19
3012 16
3013 6
3014 1
3015 0
3016 3
3017 0
3018 1
3019 17
3020 16
3021 9
3022 4
3023 7
3024 9
3025 18
3026 26
3027 1
3028 6
3029 0
3030 3
3031 9
3032 2
3033 2
3034 0
3035 18
3036 0
3037 11
3038 8
3039 0
3040 16
3041 11
3042 7
3043 25
3044 9
3045 15
3046 2
3047 8
3048 17
3049 21
3050 2
3051 19
3052 0
3053 16
3054 23
3055 15
3056 0
3057 14
3058 9
3059 3
3060 15
3061 6
3062 23
3063 3
3064 0
3065 0
3066 11
3067 8
3068 9
3069 10
3070 0
3071 15
3072 15
3073 9
3074 3
3075 19
3076 2
3077 8
3078 2
3079 2
3080 8
3081 18
3082 18
3083 2
3084 2
3085 2
3086 0
3087 2
3088 19
3089 20
3090 9
3091 3
3092 3
3093 1
3094 8
3095 12
3096 9
3097 22
3098 0
3099 4
3100 21
3101 3
3102 0
3103 4
3104 8
3105 8
3106 4
3107 20
3108 16
3109 13
3110 9
3111 2
3112 9
3113 0
3114 3
3115 6
3116 14
3117 0
3118 0
3119 13
3120 9
3121 2
3122 2
3123 0
3124 6
3125 6
3126 0
3127 12
3128 19
3129 10
3130 2
3131 8
3132 11
3133 12
3134 14
3135 3
3136 9
3137 4
3138 19
3139 0
3140 10
3141 9
3142 8
3143 0
3144 4
3145 3
3146 11
3147 2
3148 13
3149 9
3150 0
3151 2
3152 0
3153 15
3154 2
3155 12
3156 9
3157 1
3158 0
3159 9
3160 13
3161 10
3162 9
3163 9
3164 0
3165 3
3166 15
3167 8
3168 11
3169 9
3170 23
3171 0
3172 15
3173 20
3174 0
3175 2
3176 3
3177 15
3178 8
3179 21
3180 0
3181 15
3182 19
3183 21
3184 15
3185 24
3186 19
3187 3
3188 2
3189 18
3190 23
3191 6
3192 9
3193 8
3194 13
3195 23
3196 0
3197 9
3198 16
3199 1
3200 2
3201 15
3202 18
3203 6
3204 2
3205 19
3206 0
3207 3
3208 9
3209 0
3210 9
3211 7
3212 11
3213 2
3214 2
3215 0
3216 1
3217 3
3218 9
3219 23
3220 9
3221 15
3222 0
3223 0
3224 21
3225 4
3226 14
3227 0
3228 0
3229 19
3230 9
3231 4
3232 5
3233 8
3234 9
3235 8
3236 4
3237 2
3238 9
3239 15
3240 0
3241 20
3242 2
3243 2
3244 15
3245 14
3246 12
3247 15
3248 23
3249 15
3250 18
3251 2
3252 2
3253 15
3254 0
3255 15
3256 16
3257 3
3258 6
3259 0
3260 2
3261 8
3262 0
3263 2
3264 4
3265 23
3266 11
3267 18
3268 0
3269 24
3270 2
3271 25
3272 0
3273 3
3274 2
3275 4
3276 18
3277 16
3278 21
3279 11
3280 7
3281 20
3282 19
3283 0
3284 11
3285 15
3286 0
3287 11
3288 0
3289 2
3290 11
3291 12
3292 2
3293 18
3294 20
3295 11
3296 0
3297 23
3298 9
3299 11
3300 0
3301 15
3302 0
3303 1
3304 23
3305 19
3306 9
3307 11
3308 26
3309 8
3310 15
3311 2
3312 2
3313 0
3314 0
3315 14
3316 8
3317 9
3318 11
3319 1
3320 6
3321 8
3322 2
3323 2
3324 26
3325 1
3326 8
3327 25
3328 15
3329 9
3330 2
3331 15
3332 6
3333 22
3334 2
3335 21
3336 0
3337 23
3338 0
3339 3
3340 19
3341 23
3342 2
3343 2
3344 8
3345 8
3346 19
3347 2
3348 9
3349 4
3350 4
3351 0
3352 14
3353 13
3354 0
3355 0
3356 9
3357 2
3358 2
3359 0
3360 0
3361 9
3362 23
3363 2
3364 23
3365 2
3366 6
3367 17
3368 8
3369 8
3370 26
3371 11
3372 8
3373 9
3374 2
3375 13
3376 3
3377 15
3378 11
3379 7
3380 0
3381 9
3382 15
3383 21
3384 4
3385 4
3386 9
3387 2
3388 2
3389 0
3390 2
3391 5
3392 9
3393 21
3394 9
3395 18
3396 0
3397 4
3398 20
3399 8
3400 3
3401 0
3402 2
3403 2
3404 8
3405 0
3406 15
3407 23
3408 3
3409 1
3410 2
3411 5
3412 8
3413 3
3414 6
3415 11
3416 4
3417 2
3418 0
3419 3
3420 5
3421 18
3422 8
3423 18
3424 19
3425 1
3426 9
3427 4
3428 2
3429 17
3430 2
3431 0
3432 13
3433 0
3434 0
3435 20
3436 2
3437 4
3438 23
3439 9
3440 8
3441 0
3442 7
3443 2
3444 16
3445 8
3446 2
3447 9
3448 2
3449 12
3450 9
3451 9
3452 6
3453 11
3454 19
3455 16
3456 3
3457 11
3458 9
3459 9
3460 14
3461 20
3462 2
3463 2
3464 16
3465 15
3466 3
3467 0
3468 23
3469 3
3470 0
3471 9
3472 8
3473 24
3474 19
3475 0
3476 14
3477 8
3478 15
3479 9
3480 9
3481 0
3482 0
3483 2
3484 3
3485 9
3486 3
3487 7
3488 21
3489 15
3490 5
3491 0
3492 3
3493 14
3494 3
3495 0
3496 8
3497 2
3498 7
3499 15
3500 0
3501 8
3502 8
3503 0
3504 10
3505 9
3506 15
3507 2
3508 16
3509 8
3510 10
3511 2
3512 4
3513 23
3514 21
3515 8
3516 2
3517 0
3518 0
3519 4
3520 9
3521 15
3522 4
3523 3
3524 8
3525 9
3526 2
3527 18
3528 15
3529 0
3530 0
3531 8
3532 7
3533 4
3534 17
3535 0
3536 26
3537 15
3538 19
3539 0
3540 20
3541 8
3542 15
3543 16
3544 8
3545 5
3546 3
3547 10
3548 20
3549 6
3550 2
3551 8
3552 8
3553 9
3554 3
3555 9
3556 11
3557 0
3558 8
3559 2
3560 22
3561 1
3562 8
3563 24
3564 18
3565 9
3566 0
3567 9
3568 15
3569 9
3570 12
3571 14
3572 9
3573 15
3574 0
3575 8
3576 8
3577 0
3578 0
3579 17
3580 0
3581 21
3582 1
3583 26
3584 17
3585 18
3586 2
3587 7
3588 0
3589 11
3590 9
3591 0
3592 9
3593 8
3594 15
3595 2
3596 25
3597 15
3598 19
3599 4
3600 0
3601 17
3602 12
3603 19
3604 2
3605 9
3606 0
3607 21
3608 8
3609 8
3610 18
3611 1
3612 8
3613 18
3614 0
3615 7
3616 5
3617 3
3618 23
3619 19
3620 26
3621 2
3622 6
3623 0
3624 2
3625 24
3626 13
3627 19
3628 6
3629 2
3630 21
3631 24
3632 14
3633 15
3634 15
3635 26
3636 6
3637 3
3638 2
3639 9
3640 15
3641 9
3642 0
3643 9
3644 9
3645 21
3646 9
3647 2
3648 11
3649 8
3650 14
3651 0
3652 2
3653 0
3654 15
3655 0
3656 2
3657 14
3658 9
3659 11
3660 11
3661 7
3662 0
3663 24
3664 5
3665 2
3666 2
3667 15
3668 3
3669 17
3670 9
3671 3
3672 11
3673 0
3674 0
3675 2
3676 21
3677 0
3678 11
3679 10
3680 0
3681 6
3682 0
3683 2
3684 0
3685 2
3686 12
3687 10
3688 7
3689 0
3690 24
3691 0
3692 23
3693 11
3694 2
3695 2
3696 15
3697 4
3698 0
3699 4
3700 8
3701 20
3702 23
3703 8
3704 2
3705 9
3706 6
3707 9
3708 18
3709 1
3710 9
3711 3
3712 15
3713 0
3714 2
3715 0
3716 11
3717 11
3718 11
3719 24
3720 18
3721 0
3722 4
3723 18
3724 16
3725 15
3726 9
3727 14
3728 24
3729 9
3730 18
3731 24
3732 6
3733 9
3734 15
3735 12
3736 16
3737 4
3738 22
3739 9
3740 8
3741 11
3742 24
3743 15
3744 10
3745 25
3746 0
3747 7
3748 2
3749 9
3750 15
3751 16
3752 0
3753 11
3754 0
3755 17
3756 0
3757 6
3758 24
3759 2
3760 2
3761 2
3762 15
3763 8
3764 8
3765 0
3766 9
3767 14
3768 14
3769 10
3770 1
3771 15
3772 0
3773 15
3774 15
3775 7
3776 0
3777 12
3778 16
3779 23
3780 19
3781 8
3782 0
3783 2
3784 2
3785 3
3786 2
3787 0
3788 0
3789 2
3790 8
3791 20
3792 0
3793 3
3794 8
3795 9
3796 14
3797 23
3798 8
3799 21
3800 0
3801 0
3802 10
3803 23
3804 23
3805 18
3806 20
3807 9
3808 0
3809 3
3810 3
3811 24
3812 15
3813 9
3814 15
3815 10
3816 15
3817 13
3818 0
3819 8
3820 0
3821 8
3822 15
3823 18
3824 0
3825 8
3826 2
3827 8
3828 7
3829 19
3830 0
3831 11
3832 0
3833 0
3834 0
3835 0
3836 2
3837 0
3838 16
3839 23
3840 11
3841 15
3842 0
3843 8
3844 3
3845 20
3846 2
3847 20
3848 1
3849 11
3850 3
3851 15
3852 0
3853 20
3854 0
3855 9
3856 10
3857 0
3858 19
3859 9
3860 0
3861 23
3862 2
3863 11
3864 19
3865 9
3866 16
3867 8
3868 2
3869 9
3870 15
3871 3
3872 2
3873 1
3874 9
3875 18
3876 2
3877 4
3878 11
3879 12
3880 1
3881 15
3882 9
3883 9
3884 11
3885 10
3886 21
3887 8
3888 0
3889 4
3890 2
3891 21
3892 0
3893 11
3894 0
3895 2
3896 2
3897 24
3898 20
3899 8
3900 2
3901 15
3902 0
3903 9
3904 8
3905 12
3906 0
3907 7
3908 2
3909 9
3910 8
3911 3
3912 4
3913 8
3914 1
3915 7
3916 0
3917 9
3918 0
3919 1
3920 9
3921 0
3922 9
3923 11
3924 0
3925 15
3926 11
3927 19
3928 2
3929 9
3930 2
3931 11
3932 6
3933 23
3934 2
3935 2
3936 0
3937 8
3938 15
3939 4
3940 15
3941 13
3942 0
3943 24
3944 2
3945 11
3946 8
3947 15
3948 2
3949 9
3950 2
3951 0
3952 0
3953 15
3954 4
3955 21
3956 15
3957 2
3958 21
3959 11
3960 20
3961 20
3962 7
3963 8
3964 8
3965 3
3966 7
3967 8
3968 1
3969 0
3970 0
3971 3
3972 2
3973 23
3974 14
3975 0
3976 14
3977 15
3978 0
3979 11
3980 0
3981 9
3982 8
3983 11
3984 2
3985 1
3986 15
3987 2
3988 2
3989 16
3990 2
3991 9
3992 15
3993 18
3994 7
3995 8
3996 9
3997 14
3998 9
3999 2
4000 9
4001 0
4002 23
4003 0
4004 7
4005 16
4006 0
4007 17
4008 0
4009 1
4010 2
4011 19
4012 2
4013 15
4014 15
4015 6
4016 9
4017 0
4018 0
4019 12
4020 4
4021 22
4022 16
4023 4
4024 2
4025 0
4026 2
4027 19
4028 15
4029 19
4030 22
4031 2
4032 1
4033 2
4034 17
4035 23
4036 14
4037 2
4038 15
4039 14
4040 0
4041 16
4042 9
4043 3
4044 18
4045 2
4046 0
4047 0
4048 9
4049 2
4050 9
4051 3
4052 11
4053 13
4054 6
4055 2
4056 8
4057 4
4058 2
4059 20
4060 15
4061 2
4062 22
4063 9
4064 19
4065 4
4066 2
4067 9
4068 3
4069 11
4070 7
4071 1
4072 8
4073 9
4074 9
4075 2
4076 15
4077 13
4078 0
4079 4
4080 0
4081 2
4082 18
4083 2
4084 26
4085 9
4086 9
4087 7
4088 24
4089 12
4090 24
4091 23
4092 0
4093 8
4094 3
4095 2
4096 11
4097 2
4098 1
4099 8
4100 0
4101 9
4102 8
4103 0
4104 18
4105 18
4106 15
4107 0
4108 23
4109 15
4110 8
4111 0
4112 9
4113 15
4114 15
4115 1
4116 2
4117 0
4118 10
4119 0
4120 3
4121 20
4122 9
4123 9
4124 20
4125 11
4126 15
4127 6
4128 9
4129 2
4130 2
4131 2
4132 0
4133 12
4134 0
4135 9
4136 19
4137 0
4138 20
4139 0
4140 0
4141 18
4142 15
4143 0
4144 2
4145 4
4146 25
4147 23
4148 12
4149 0
4150 8
4151 10
4152 8
4153 23
4154 0
4155 19
4156 0
4157 8
4158 24
4159 8
4160 25
4161 26
4162 6
4163 13
4164 2
4165 11
4166 1
4167 11
4168 9
4169 0
4170 15
4171 4
4172 2
4173 11
4174 2
4175 1
4176 9
4177 2
4178 26
4179 2
4180 17
4181 9
4182 8
4183 11
4184 11
4185 26
4186 9
4187 15
4188 13
4189 11
4190 9
4191 9
4192 7
4193 0
4194 13
4195 12
4196 9
4197 26
4198 8
4199 14
4200 0
4201 11
4202 11
4203 0
4204 8
4205 3
4206 15
4207 9
4208 11
4209 19
4210 9
4211 11
4212 19
4213 14
4214 2
4215 0
4216 25
4217 2
4218 3
4219 19
4220 0
4221 21
4222 3
4223 0
4224 0
4225 11
4226 2
4227 15
4228 11
4229 15
4230 2
4231 2
4232 2
4233 8
4234 4
4235 3
4236 9
4237 12
4238 11
4239 15
4240 0
4241 0
4242 16
4243 8
4244 5
4245 9
4246 7
4247 2
4248 3
4249 9
4250 8
4251 9
4252 15
4253 0
4254 0
4255 9
4256 2
4257 21
4258 23
4259 9
4260 2
4261 11
4262 2
4263 0
4264 13
4265 0
4266 8
4267 4
4268 8
4269 15
4270 22
4271 2
4272 2
4273 8
4274 9
4275 4
4276 8
4277 12
4278 15
4279 4
4280 11
4281 6
4282 10
4283 24
4284 0
4285 9
4286 9
4287 20
4288 14
4289 0
4290 4
4291 2
4292 8
4293 0
4294 19
4295 8
4296 9
4297 15
4298 0
4299 5
4300 9
4301 3
4302 9
4303 12
4304 2
4305 9
4306 0
4307 19
4308 15
4309 19
4310 4
4311 0
4312 14
4313 8
4314 15
4315 19
4316 2
4317 2
4318 3
4319 18
4320 2
4321 0
4322 2
4323 20
4324 10
4325 4
4326 24
4327 15
4328 3
4329 2
4330 2
4331 0
4332 18
4333 4
4334 16
4335 21
4336 9
4337 25
4338 10
4339 2
4340 23
4341 6
4342 15
4343 9
4344 3
4345 14
4346 17
4347 2
4348 3
4349 9
4350 15
4351 2
4352 0
4353 2
4354 15
4355 15
4356 2
4357 1
4358 9
4359 23
4360 9
4361 0
4362 12
4363 3
4364 20
4365 6
4366 4
4367 2
4368 9
4369 23
4370 26
4371 11
4372 0
4373 18
4374 2
4375 9
4376 2
4377 0
4378 21
4379 9
4380 4
4381 0
4382 8
4383 12
4384 19
4385 20
4386 0
4387 4
4388 18
4389 2
4390 11
4391 0
4392 9
4393 2
4394 2
4395 4
4396 2
4397 2
4398 3
4399 9
4400 0
4401 19
4402 0
4403 15
4404 4
4405 2
4406 0
4407 8
4408 3
4409 16
4410 15
4411 9
4412 2
4413 23
4414 2
4415 9
4416 9
4417 21
4418 4
4419 6
4420 0
4421 26
4422 18
4423 14
4424 0
4425 21
4426 23
4427 11
4428 2
4429 9
4430 6
4431 2
4432 2
4433 13
4434 2
4435 13
4436 3
4437 1
4438 0
4439 0
4440 26
4441 9
4442 1
4443 21
4444 0
4445 13
4446 13
4447 9
4448 2
4449 4
4450 14
4451 26
4452 12
4453 2
4454 0
4455 21
4456 11
4457 7
4458 15
4459 0
4460 9
4461 4
4462 0
4463 19
4464 25
4465 0
4466 0
4467 8
4468 0
4469 14
4470 6
4471 10
4472 2
4473 9
4474 15
4475 1
4476 8
4477 9
4478 1
4479 3
4480 2
4481 8
4482 2
4483 9
4484 19
4485 21
4486 18
4487 23
4488 2
4489 0
4490 0
4491 19
4492 3
4493 0
4494 3
4495 9
4496 16
4497 1
4498 13
4499 17
4500 0
4501 2
4502 0
4503 9
4504 15
4505 2
4506 15
4507 15
4508 1
4509 0
4510 0
4511 7
4512 6
4513 0
4514 3
4515 0
4516 9
4517 0
4518 8
4519 6
4520 9
4521 14
4522 2
4523 24
4524 2
4525 2
4526 2
4527 0
4528 3
4529 21
4530 0
4531 13
4532 9
4533 3
4534 17
4535 10
4536 19
4537 2
4538 2
4539 20
4540 2
4541 4
4542 2
4543 7
4544 9
4545 2
4546 3
4547 9
4548 21
4549 0
4550 1
4551 9
4552 15
4553 6
4554 9
4555 10
4556 0
4557 2
4558 19
4559 8
4560 0
4561 0
4562 17
4563 7
4564 0
4565 26
4566 2
4567 9
4568 11
4569 8
4570 15
4571 22
4572 9
4573 2
4574 0
4575 4
4576 8
4577 3
4578 0
4579 2
4580 2
4581 9
4582 21
4583 19
4584 1
4585 11
4586 21
4587 6
4588 9
4589 9
4590 15
4591 8
4592 2
4593 3
4594 9
4595 16
4596 0
4597 9
4598 9
4599 15
4600 11
4601 11
4602 2
4603 18
4604 8
4605 23
4606 2
4607 12
4608 6
4609 21
4610 25
4611 9
4612 9
4613 2
4614 3
4615 3
4616 20
4617 0
4618 12
4619 9
4620 18
4621 15
4622 0
4623 14
4624 2
4625 15
4626 11
4627 11
4628 9
4629 18
4630 8
4631 2
4632 2
4633 4
4634 25
4635 0
4636 2
4637 0
4638 0
4639 0
4640 9
4641 2
4642 11
4643 11
4644 16
4645 19
4646 0
4647 2
4648 15
4649 8
4650 8
4651 0
4652 6
4653 21
4654 0
4655 2
4656 15
4657 6
4658 2
4659 20
4660 9
4661 11
4662 9
4663 0
4664 8
4665 12
4666 22
4667 9
4668 15
4669 10
4670 9
4671 4
4672 15
4673 5
4674 15
4675 3
4676 2
4677 8
4678 6
4679 9
4680 3
4681 9
4682 16
4683 11
4684 15
4685 9
4686 2
4687 0
4688 0
4689 2
4690 15
4691 20
4692 2
4693 2
4694 9
4695 2
4696 2
4697 0
4698 0
4699 2
4700 0
4701 0
4702 14
4703 4
4704 1
4705 4
4706 0
4707 17
4708 0
4709 0
4710 2
4711 0
4712 15
4713 9
4714 15
4715 8
4716 2
4717 2
4718 0
4719 9
4720 8
4721 9
4722 19
4723 2
4724 7
4725 18
4726 9
4727 23
4728 2
4729 9
4730 15
4731 13
4732 0
4733 15
4734 11
4735 0
4736 0
4737 4
4738 4
4739 19
4740 9
4741 14
4742 2
4743 2
4744 18
4745 3
4746 20
4747 19
4748 9
4749 8
4750 16
4751 2
4752 14
4753 0
4754 8
4755 9
4756 2
4757 13
4758 0
4759 11
4760 8
4761 18
4762 0
4763 9
4764 11
4765 15
4766 2
4767 0
4768 18
4769 9
4770 19
4771 0
4772 0
4773 0
4774 15
4775 20
4776 11
4777 0
4778 7
4779 9
4780 6
4781 8
4782 3
4783 9
4784 15
4785 9
4786 0
4787 11
4788 9
4789 8
4790 15
4791 1
4792 12
4793 0
4794 2
4795 15
4796 20
4797 21
4798 16
4799 2
4800 18
4801 2
4802 15
4803 18
4804 2
4805 17
4806 11
4807 11
4808 0
4809 6
4810 9
4811 9
4812 0
4813 17
4814 9
4815 10
4816 14
4817 13
4818 2
4819 11
4820 0
4821 8
4822 0
4823 2
4824 0
4825 23
4826 2
4827 25
4828 3
4829 3
4830 15
4831 2
4832 18
4833 8
4834 9
4835 8
4836 8
4837 0
4838 9
4839 0
4840 1
4841 11
4842 2
4843 9
4844 17
4845 0
4846 15
4847 2
4848 9
4849 21
4850 15
4851 2
4852 22
4853 9
4854 9
4855 0
4856 8
4857 19
4858 20
4859 15
4860 4
4861 23
4862 2
4863 0
4864 11
4865 0
4866 8
4867 0
4868 2
4869 15
4870 21
4871 1
4872 2
4873 0
4874 20
4875 11
4876 2
4877 11
4878 20
4879 2
4880 11
4881 15
4882 8
4883 8
4884 14
4885 8
4886 0
4887 0
4888 8
4889 11
4890 18
4891 26
4892 2
4893 0
4894 15
4895 0
4896 0
4897 10
4898 15
4899 7
4900 0
4901 8
4902 0
4903 21
4904 0
4905 3
4906 0
4907 2
4908 9
4909 7
4910 11
4911 9
4912 0
4913 11
4914 0
4915 8
4916 13
4917 0
4918 11
4919 20
4920 18
4921 8
4922 7
4923 18
4924 9
4925 0
4926 14
4927 2
4928 6
4929 0
4930 0
4931 24
4932 13
4933 13
4934 9
4935 7
4936 11
4937 15
4938 9
4939 2
4940 9
4941 11
4942 11
4943 19
4944 20
4945 17
4946 2
4947 15
4948 16
4949 15
4950 15
4951 10
4952 5
4953 2
4954 3
4955 12
4956 0
4957 25
4958 0
4959 19
4960 11
4961 2
4962 24
4963 2
4964 15
4965 14
4966 11
4967 15
4968 0
4969 0
4970 0
4971 2
4972 0
4973 9
4974 0
4975 11
4976 4
4977 21
4978 14
4979 9
4980 4
4981 18
4982 9
4983 24
4984 9
4985 8
4986 8
4987 9
4988 15
4989 2
4990 15
4991 8
4992 15
4993 0
4994 23
4995 8
4996 0
4997 11
4998 19
4999 0
5000 1
5001 0
5002 0
5003 19
5004 6
5005 0
5006 26
5007 8
5008 12
5009 20
5010 0
5011 23
5012 19
5013 18
5014 11
5015 9
5016 21
5017 21
5018 11
5019 0
5020 9
5021 9
5022 11
5023 20
5024 0
5025 1
5026 9
5027 15
5028 4
5029 8
5030 11
5031 16
5032 0
5033 9
5034 2
5035 4
5036 3
5037 20
5038 11
5039 11
5040 2
5041 15
5042 4
5043 8
5044 11
5045 0
5046 21
5047 24
5048 8
5049 11
5050 11
5051 1
5052 1
5053 0
5054 2
5055 0
5056 6
5057 9
5058 0
5059 15
5060 0
5061 6
5062 15
5063 9
5064 15
5065 15
5066 4
5067 2
5068 0
5069 8
5070 2
5071 8
5072 17
5073 8
5074 12
5075 2
5076 17
5077 15
5078 15
5079 8
5080 23
5081 0
5082 0
5083 0
5084 15
5085 0
5086 3
5087 2
5088 24
5089 19
5090 9
5091 21
5092 0
5093 2
5094 2
5095 26
5096 9
5097 2
5098 16
5099 2
5100 0
5101 21
5102 8
5103 17
5104 1
5105 11
5106 18
5107 7
5108 15
5109 25
5110 23
5111 0
5112 9
5113 8
5114 12
5115 9
5116 0
5117 3
5118 2
5119 11
5120 21
5121 6
5122 9
5123 2
5124 26
5125 7
5126 9
5127 6
5128 0
5129 2
5130 7
5131 0
5132 6
5133 17
5134 8
5135 0
5136 11
5137 15
5138 13
5139 0
5140 8
5141 2
5142 0
5143 0
5144 14
5145 9
5146 2
5147 11
5148 15
5149 18
5150 8
5151 0
5152 0
5153 22
5154 16
5155 2
5156 15
5157 20
5158 9
5159 9
5160 16
5161 3
5162 0
5163 18
5164 9
5165 2
5166 26
5167 4
5168 0
5169 4
5170 8
5171 19
5172 0
5173 9
5174 2
5175 15
5176 9
5177 2
5178 8
5179 9
5180 22
5181 2
5182 2
5183 9
5184 9
5185 0
5186 3
5187 19
5188 0
5189 16
5190 1
5191 8
5192 12
5193 14
5194 11
5195 9
5196 6
5197 2
5198 10
5199 19
5200 19
5201 0
5202 15
5203 10
5204 2
5205 24
5206 8
5207 9
5208 13
5209 25
5210 8
5211 20
5212 0
5213 0
5214 19
5215 8
5216 15
5217 14
5218 9
5219 2
5220 0
5221 16
5222 9
5223 21
5224 2
5225 20
5226 21
5227 2
5228 0
5229 21
5230 0
5231 16
5232 6
5233 9
5234 12
5235 2
5236 11
5237 7
5238 1
5239 9
5240 9
5241 0
5242 0
5243 11
5244 11
5245 19
5246 11
5247 12
5248 9
5249 11
5250 17
5251 2
5252 0
5253 9
5254 13
5255 9
5256 2
5257 2
5258 13
5259 9
5260 0
5261 0
5262 11
5263 19
5264 23
5265 9
5266 0
5267 4
5268 15
5269 8
5270 3
5271 2
5272 11
5273 0
5274 9
5275 3
5276 9
5277 15
5278 19
5279 1
5280 15
5281 2
5282 0
5283 0
5284 0
5285 25
5286 4
5287 0
5288 2
5289 20
5290 11
5291 11
5292 24
5293 11
5294 8
5295 2
5296 18
5297 2
5298 15
5299 9
5300 9
5301 9
5302 25
5303 2
5304 19
5305 4
5306 2
5307 16
5308 2
5309 15
5310 11
5311 0
5312 18
5313 0
5314 9
5315 9
5316 19
5317 0
5318 0
5319 9
5320 8
5321 9
5322 3
5323 0
5324 7
5325 0
5326 21
5327 9
5328 1
5329 0
5330 12
5331 8
5332 3
5333 11
5334 8
5335 0
5336 0
5337 24
5338 2
5339 0
5340 23
5341 23
5342 15
5343 18
5344 2
5345 4
5346 10
5347 0
5348 3
5349 6
5350 25
5351 9
5352 6
5353 15
5354 2
5355 9
5356 8
5357 2
5358 8
5359 3
5360 17
5361 2
5362 3
5363 2
5364 1
5365 15
5366 0
5367 1
5368 3
5369 14
5370 15
5371 11
5372 6
5373 0
5374 2
5375 0
5376 9
5377 15
5378 15
5379 13
5380 15
5381 9
5382 15
5383 8
5384 16
5385 0
5386 2
5387 19
5388 15
5389 2
5390 0
5391 0
5392 0
5393 2
5394 21
5395 20
5396 9
5397 3
5398 9
5399 0
5400 16
5401 2
5402 8
5403 16
5404 23
5405 23
5406 2
5407 9
5408 16
5409 0
5410 2
5411 10
5412 11
5413 2
5414 11
5415 8
5416 9
5417 11
5418 2
5419 0
5420 12
5421 1
5422 26
5423 11
5424 11
5425 8
5426 0
5427 9
5428 8
5429 2
5430 15
5431 19
5432 3
5433 15
5434 18
5435 2
5436 9
5437 0
5438 0
5439 4
5440 2
5441 24
5442 11
5443 9
5444 16
5445 9
5446 2
5447 17
5448 1
5449 2
5450 12
5451 9
5452 20
5453 15
5454 9
5455 0
5456 0
5457 2
5458 4
5459 2
5460 23
5461 0
5462 0
5463 16
5464 17
5465 2
5466 2
5467 4
5468 0
5469 8
5470 18
5471 11
5472 0
5473 3
5474 2
5475 2
5476 15
5477 20
5478 0
5479 2
5480 19
5481 4
5482 15
5483 20
5484 3
5485 15
5486 0
5487 18
5488 3
5489 20
5490 0
5491 4
5492 23
5493 1
5494 0
5495 19
5496 23
5497 0
5498 18
5499 9
5500 19
5501 9
5502 15
5503 0
5504 2
5505 0
5506 3
5507 11
5508 0
5509 15
5510 8
5511 15
5512 0
5513 9
5514 0
5515 0
5516 14
5517 2
5518 2
5519 8
5520 23
5521 13
5522 8
5523 19
5524 20
5525 2
5526 2
5527 9
5528 4
5529 6
5530 18
5531 13
5532 15
5533 9
5534 2
5535 13
5536 15
5537 15
5538 13
5539 0
5540 8
5541 1
5542 11
5543 14
5544 15
5545 2
5546 0
5547 11
5548 4
5549 3
5550 0
5551 2
5552 2
5553 0
5554 15
5555 15
5556 6
5557 4
5558 9
5559 9
5560 13
5561 7
5562 19
5563 12
5564 19
5565 16
5566 14
5567 13
5568 7
5569 0
5570 2
5571 2
5572 8
5573 2
5574 15
5575 0
5576 11
5577 11
5578 15
5579 4
5580 13
5581 9
5582 0
5583 21
5584 8
5585 0
5586 14
5587 17
5588 11
5589 8
5590 18
5591 9
5592 22
5593 9
5594 19
5595 2
5596 15
5597 16
5598 18
5599 9
5600 0
5601 0
5602 9
5603 25
5604 22
5605 11
5606 8
5607 16
5608 25
5609 9
5610 14
5611 21
5612 0
5613 8
5614 4
5615 9
5616 0
5617 3
5618 8
5619 0
5620 15
5621 11
5622 0
5623 4
5624 11
5625 17
5626 0
5627 3
5628 8
5629 15
5630 0
5631 12
5632 11
5633 9
5634 24
5635 15
5636 25
5637 6
5638 0
5639 2
5640 8
5641 16
5642 21
5643 0
5644 0
5645 10
5646 1
5647 12
5648 0
5649 0
5650 13
5651 2
5652 0
5653 3
5654 22
5655 2
5656 8
5657 0
5658 19
5659 0
5660 15
5661 2
5662 18
5663 9
5664 9
5665 11
5666 11
5667 18
5668 6
5669 8
5670 9
5671 9
5672 26
5673 19
5674 23
5675 9
5676 23
5677 15
5678 10
5679 23
5680 19
5681 6
5682 8
5683 3
5684 15
5685 3
5686 6
5687 2
5688 9
5689 9
5690 9
5691 9
5692 1
5693 15
5694 4
5695 8
5696 4
5697 4
5698 8
5699 0
5700 2
5701 4
5702 13
5703 0
5704 9
5705 2
5706 4
5707 0
5708 2
5709 9
5710 19
5711 3
5712 2
5713 0
5714 9
5715 0
5716 0
5717 20
5718 13
5719 15
5720 2
5721 9
5722 6
5723 2
5724 0
5725 0
5726 2
5727 0
5728 1
5729 19
5730 9
5731 4
5732 8
5733 0
5734 6
5735 2
5736 15
5737 0
5738 8
5739 8
5740 23
5741 8
5742 11
5743 11
5744 8
5745 0
5746 0
5747 7
5748 19
5749 0
5750 14
5751 20
5752 8
5753 2
5754 12
5755 25
5756 16
5757 13
5758 25
5759 24
5760 20
5761 18
5762 15
5763 18
5764 0
5765 15
5766 2
5767 13
5768 3
5769 11
5770 17
5771 22
5772 0
5773 9
5774 2
5775 0
5776 20
5777 4
5778 26
5779 14
5780 2
5781 0
5782 3
5783 9
5784 0
5785 0
5786 9
5787 17
5788 9
5789 2
5790 8
5791 0
5792 9
5793 15
5794 9
5795 18
5796 15
5797 0
5798 1
5799 1
5800 8
5801 2
5802 9
5803 8
5804 20
5805 2
5806 9
5807 2
5808 11
5809 2
5810 0
5811 2
5812 23
5813 0
5814 2
5815 2
5816 0
5817 13
5818 20
5819 0
5820 8
5821 23
5822 0
5823 9
5824 11
5825 0
5826 0
5827 13
5828 2
5829 10
5830 4
5831 2
5832 16
5833 2
5834 2
5835 21
5836 2
5837 19
5838 16
5839 0
5840 15
5841 23
5842 9
5843 0
5844 8
5845 11
5846 10
5847 19
5848 15
5849 8
5850 2
5851 9
5852 16
5853 12
5854 24
5855 8
5856 0
5857 18
5858 10
5859 18
5860 2
5861 11
5862 12
5863 2
5864 6
5865 3
5866 14
5867 9
5868 0
5869 9
5870 18
5871 2
5872 9
5873 21
5874 9
5875 9
5876 12
5877 0
5878 4
5879 11
5880 18
5881 23
5882 19
5883 0
5884 8
5885 4
5886 8
5887 6
5888 9
5889 20
5890 9
5891 0
5892 2
5893 9
5894 0
5895 2
5896 17
5897 0
5898 16
5899 15
5900 9
5901 0
5902 8
5903 2
5904 26
5905 26
5906 3
5907 9
5908 4
5909 11
5910 0
5911 15
5912 15
5913 15
5914 0
5915 21
5916 4
5917 1
5918 9
5919 2
5920 4
5921 14
5922 21
5923 2
5924 9
5925 18
5926 14
5927 13
5928 0
5929 12
5930 11
5931 15
5932 26
5933 0
5934 2
5935 2
5936 2
5937 15
5938 2
5939 15
5940 19
5941 11
5942 9
5943 18
5944 0
5945 0
5946 11
5947 9
5948 8
5949 10
5950 11
5951 2
5952 9
5953 3
5954 21
5955 4
5956 26
5957 19
5958 9
5959 13
5960 9
5961 9
5962 0
5963 0
5964 15
5965 4
5966 2
5967 2
5968 9
5969 15
5970 2
5971 19
5972 2
5973 21
5974 8
5975 2
5976 0
5977 2
5978 0
5979 0
5980 7
5981 8
5982 4
5983 9
5984 15
5985 15
5986 2
5987 11
5988 8
5989 15
5990 2
5991 5
5992 15
5993 2
5994 1
5995 15
5996 2
5997 11
5998 15
5999 18
6000 11
6001 2
6002 9
6003 10
6004 9
6005 2
6006 7
6007 13
6008 4
6009 2
6010 13
6011 8
6012 9
6013 6
6014 0
6015 2
6016 14
6017 9
6018 15
6019 17
6020 6
6021 2
6022 20
6023 1
6024 2
6025 0
6026 8
6027 11
6028 7
6029 3
6030 11
6031 0
6032 2
6033 0
6034 9
6035 2
6036 0
6037 8
6038 23
6039 19
6040 0
6041 21
6042 0
6043 2
6044 17
6045 15
6046 3
6047 6
6048 2
6049 2
6050 0
6051 2
6052 9
6053 0
6054 6
6055 14
6056 23
6057 19
6058 18
6059 2
6060 2
6061 3
6062 21
6063 9
6064 14
6065 15
6066 7
6067 0
6068 11
6069 9
6070 1
6071 0
6072 2
6073 20
6074 23
6075 8
6076 0
6077 2
6078 2
6079 0
6080 19
6081 6
6082 24
6083 2
6084 8
6085 1
6086 4
6087 6
6088 0
6089 2
6090 11
6091 0
6092 19
6093 2
6094 15
6095 17
6096 4
6097 3
6098 18
6099 15
6100 2
6101 2
6102 12
6103 7
6104 2
6105 12
6106 15
6107 18
6108 2
6109 9
6110 3
6111 2
6112 0
6113 0
6114 26
6115 15
6116 0
6117 4
6118 23
6119 4
6120 9
6121 23
6122 0
6123 15
6124 2
6125 14
6126 16
6127 8
6128 3
6129 9
6130 2
6131 9
6132 8
6133 15
6134 0
6135 4
6136 16
6137 3
6138 11
6139 23
6140 19
6141 3
6142 15
6143 20
6144 0
6145 8
6146 16
6147 3
6148 4
6149 0
6150 2
6151 15
6152 19
6153 9
6154 0
6155 2
6156 12
6157 18
6158 8
6159 0
6160 0
6161 11
6162 0
6163 3
6164 2
6165 4
6166 0
6167 11
6168 0
6169 2
6170 2
6171 5
6172 2
6173 0
6174 2
6175 4
6176 7
6177 2
6178 19
6179 1
6180 9
6181 18
6182 12
6183 2
6184 0
6185 14
6186 19
6187 8
6188 26
6189 8
6190 20
6191 20
6192 9
6193 2
6194 4
6195 8
6196 3
6197 3
6198 0
6199 8
6200 9
6201 3
6202 11
6203 11
6204 0
6205 0
6206 8
6207 15
6208 9
6209 15
6210 2
6211 0
6212 16
6213 13
6214 0
6215 9
6216 0
6217 18
6218 19
6219 0
6220 8
6221 15
6222 4
6223 8
6224 2
6225 2
6226 0
6227 15
6228 0
6229 0
6230 0
6231 13
6232 0
6233 9
6234 0
6235 18
6236 11
6237 0
6238 2
6239 0
6240 9
6241 1
6242 17
6243 0
6244 0
6245 0
6246 16
6247 3
6248 15
6249 15
6250 4
6251 23
6252 0
6253 15
6254 0
6255 2
6256 9
6257 4
6258 8
6259 0
6260 4
6261 13
6262 10
6263 15
6264 18
6265 0
6266 2
6267 23
6268 15
6269 2
6270 0
6271 2
6272 0
6273 9
6274 17
6275 11
6276 3
6277 3
6278 23
6279 2
6280 11
6281 1
6282 9
6283 0
6284 8
6285 8
6286 2
6287 3
6288 7
6289 15
6290 19
6291 2
6292 13
6293 21
6294 18
6295 8
6296 0
6297 2
6298 11
6299 11
6300 2
6301 13
6302 24
6303 19
6304 26
6305 11
6306 16
6307 11
6308 0
6309 8
6310 3
6311 9
6312 9
6313 8
6314 0
6315 9
6316 19
6317 1
6318 2
6319 20
6320 22
6321 15
6322 3
6323 2
6324 16
6325 1
6326 3
6327 14
6328 8
6329 7
6330 15
6331 20
6332 0
6333 3
6334 2
6335 21
6336 22
6337 21
6338 9
6339 15
6340 2
6341 2
6342 18
6343 12
6344 3
6345 18
6346 0
6347 11
6348 16
6349 3
6350 12
6351 2
6352 9
6353 2
6354 15
6355 0
6356 8
6357 8
6358 3
6359 13
6360 16
6361 9
6362 20
6363 18
6364 10
6365 9
6366 19
6367 25
6368 5
6369 11
6370 2
6371 23
6372 15
6373 9
6374 3
6375 8
6376 4
6377 9
6378 9
6379 14
6380 23
6381 23
6382 16
6383 15
6384 21
6385 3
6386 8
6387 19
6388 8
6389 9
6390 11
6391 9
6392 15
6393 23
6394 21
6395 22
6396 11
6397 2
6398 15
6399 0
6400 8
6401 9
6402 16
6403 23
6404 4
6405 2
6406 11
6407 4
6408 2
6409 4
6410 9
6411 19
6412 1
6413 3
6414 3
6415 25
6416 15
6417 18
6418 18
6419 8
6420 19
6421 2
6422 18
6423 6
6424 3
6425 15
6426 12
6427 4
6428 2
6429 8
6430 3
6431 24
6432 11
6433 2
6434 11
6435 23
6436 11
6437 0
6438 2
6439 0
6440 9
6441 0
6442 3
6443 2
6444 15
6445 8
6446 6
6447 11
6448 9
6449 0
6450 2
6451 4
6452 5
6453 9
6454 14
6455 26
6456 17
6457 21
6458 8
6459 2
6460 15
6461 20
6462 8
6463 23
6464 11
6465 3
6466 8
6467 12
6468 2
6469 6
6470 2
6471 15
6472 6
6473 7
6474 15
6475 13
6476 13
6477 2
6478 5
6479 23
6480 14
6481 2
6482 11
6483 20
6484 2
6485 10
6486 9
6487 14
6488 21
6489 2
6490 9
6491 15
6492 0
6493 2
6494 17
6495 15
6496 1
6497 8
6498 12
6499 15
6500 2
6501 19
6502 9
6503 3
6504 4
6505 3
6506 23
6507 2
6508 15
6509 2
6510 11
6511 2
6512 2
6513 11
6514 26
6515 20
6516 2
6517 11
6518 11
6519 0
6520 4
6521 15
6522 2
6523 0
6524 3
6525 26
6526 19
6527 2
6528 0
6529 9
6530 4
6531 2
6532 0
6533 20
6534 0
6535 2
6536 8
6537 15
6538 2
6539 11
6540 21
6541 20
6542 2
6543 9
6544 11
6545 5
6546 2
6547 2
6548 16
6549 0
6550 1
6551 16
6552 15
6553 2
6554 15
6555 19
6556 4
6557 2
6558 9
6559 8
6560 0
6561 0
6562 15
6563 0
6564 9
6565 8
6566 0
6567 15
6568 15
6569 0
6570 0
6571 9
6572 2
6573 2
6574 0
6575 2
6576 2
6577 0
6578 15
6579 8
6580 2
6581 13
6582 22
6583 1
6584 4
6585 19
6586 4
6587 13
6588 3
6589 15
6590 16
6591 8
6592 11
6593 2
6594 20
6595 15
6596 23
6597 13
6598 12
6599 9
6600 9
6601 25
6602 2
6603 8
6604 9
6605 8
6606 9
6607 2
6608 2
6609 0
6610 6
6611 0
6612 8
6613 5
6614 1
6615 2
6616 16
6617 4
6618 6
6619 2
6620 8
6621 17
6622 9
6623 3
6624 2
6625 5
6626 12
6627 3
6628 3
6629 14
6630 2
6631 0
6632 4
6633 2
6634 18
6635 9
6636 2
6637 0
6638 21
6639 14
6640 3
6641 8
6642 20
6643 4
6644 15
6645 0
6646 9
6647 15
6648 21
6649 2
6650 18
6651 19
6652 2
6653 13
6654 0
6655 9
6656 1
6657 3
6658 2
6659 19
6660 0
6661 23
6662 3
6663 19
6664 19
6665 9
6666 0
6667 19
6668 9
6669 18
6670 2
6671 18
6672 4
6673 26
6674 11
6675 0
6676 18
6677 9
6678 9
6679 8
6680 4
6681 2
6682 18
6683 6
6684 4
6685 0
6686 0
6687 0
6688 3
6689 7
6690 1
6691 23
6692 19
6693 20
6694 1
6695 15
6696 20
6697 11
6698 2
6699 16
6700 0
6701 8
6702 0
6703 0
6704 0
6705 2
6706 9
6707 15
6708 2
6709 9
6710 23
6711 9
6712 0
6713 9
6714 6
6715 2
6716 0
6717 15
6718 8
6719 8
6720 5
6721 13
6722 1
6723 15
6724 9
6725 0
6726 2
6727 8
6728 8
6729 3
6730 4
6731 14
6732 8
6733 2
6734 22
6735 9
6736 11
6737 0
6738 11
6739 4
6740 0
6741 2
6742 9
6743 4
6744 19
6745 19
6746 4
6747 15
6748 2
6749 15
6750 4
6751 0
6752 2
6753 9
6754 2
6755 2
6756 0
6757 9
6758 7
6759 9
6760 17
6761 2
6762 0
6763 4
6764 21
6765 18
6766 9
6767 2
6768 2
6769 0
6770 9
6771 8
6772 6
6773 2
6774 23
6775 2
6776 9
6777 14
6778 7
6779 3
6780 2
6781 9
6782 14
6783 2
6784 4
6785 2
6786 15
6787 2
6788 12
6789 21
6790 18
6791 2
6792 9
6793 11
6794 2
6795 8
6796 11
6797 8
6798 18
6799 2
6800 9
6801 4
6802 9
6803 0
6804 21
6805 15
6806 0
6807 2
6808 19
6809 12
6810 0
6811 9
6812 26
6813 9
6814 0
6815 0
6816 12
6817 2
6818 20
6819 11
6820 2
6821 11
6822 18
6823 20
6824 18
6825 3
6826 13
6827 11
6828 2
6829 0
6830 2
6831 3
6832 8
6833 10
6834 0
6835 11
6836 8
6837 24
6838 6
6839 23
6840 18
6841 8
6842 11
6843 4
6844 9
6845 24
6846 3
6847 24
6848 1
6849 24
6850 2
6851 6
6852 0
6853 2
6854 13
6855 9
6856 23
6857 2
6858 2
6859 8
6860 11
6861 11
6862 9
6863 9
6864 0
6865 14
6866 1
6867 8
6868 2
6869 2
6870 8
6871 0
6872 0
6873 14
6874 9
6875 4
6876 0
6877 15
6878 15
6879 15
6880 2
6881 2
6882 0
6883 2
6884 0
6885 0
6886 0
6887 3
6888 13
6889 0
6890 2
6891 9
6892 8
6893 2
6894 15
6895 8
6896 2
6897 0
6898 0
6899 13
6900 1
6901 3
6902 12
6903 8
6904 8
6905 9
6906 8
6907 20
6908 0
6909 9
6910 20
6911 8
6912 0
6913 9
6914 13
6915 26
6916 15
6917 7
6918 16
6919 9
6920 8
6921 0
6922 9
6923 21
6924 15
6925 4
6926 24
6927 0
6928 0
6929 11
6930 14
6931 23
6932 6
6933 11
6934 17
6935 19
6936 16
6937 26
6938 19
6939 22
6940 8
6941 9
6942 9
6943 4
6944 9
6945 4
6946 0
6947 11
6948 24
6949 9
6950 23
6951 0
6952 14
6953 9
6954 20
6955 0
6956 8
6957 15
6958 9
6959 20
6960 4
6961 21
6962 8
6963 2
6964 11
6965 2
6966 3
6967 0
6968 2
6969 23
6970 22
6971 0
6972 26
6973 0
6974 0
6975 0
6976 9
6977 17
6978 11
6979 8
6980 21
6981 15
6982 2
6983 8
6984 4
6985 2
6986 19
6987 6
6988 14
6989 0
6990 8
6991 9
6992 9
6993 9
6994 2
6995 4
6996 15
6997 22
6998 3
6999 2
7000 15
7001 20
7002 11
7003 2
7004 8
7005 8
7006 18
7007 0
7008 18
7009 14
7010 3
7011 0
7012 2
7013 1
7014 19
7015 6
7016 8
7017 4
7018 0
7019 0
7020 9
7021 19
7022 15
7023 18
7024 21
7025 11
7026 25
7027 1
7028 9
7029 15
7030 23
7031 16
7032 15
7033 9
7034 3
7035 23
7036 8
7037 0
7038 9
7039 11
7040 15
7041 14
7042 23
7043 15
7044 9
7045 4
7046 0
7047 19
7048 11
7049 19
7050 0
7051 8
7052 2
7053 11
7054 15
7055 18
7056 8
7057 14
7058 0
7059 4
7060 22
7061 0
7062 3
7063 2
7064 8
7065 2
7066 0
7067 15
7068 7
7069 0
7070 15
7071 0
7072 0
7073 11
7074 0
7075 23
7076 2
7077 12
7078 23
7079 11
7080 9
7081 9
7082 7
7083 2
7084 15
7085 7
7086 5
7087 0
7088 15
7089 4
7090 1
7091 17
7092 11
7093 18
7094 0
7095 11
7096 1
7097 2
7098 11
7099 11
7100 8
7101 17
7102 0
7103 2
7104 11
7105 18
7106 8
7107 9
7108 18
7109 15
7110 0
7111 11
7112 11
7113 9
7114 0
7115 8
7116 1
7117 12
7118 0
7119 9
7120 9
7121 1
7122 4
7123 8
7124 19
7125 9
7126 0
7127 1
7128 3
7129 7
7130 0
7131 4
7132 2
7133 17
7134 8
7135 9
7136 3
7137 8
7138 0
7139 2
7140 11
7141 11
7142 2
7143 15
7144 3
7145 7
7146 18
7147 3
7148 1
7149 2
7150 9
7151 11
7152 13
7153 15
7154 11
7155 15
7156 19
7157 0
7158 1
7159 11
7160 1
7161 8
7162 23
7163 9
7164 15
7165 6
7166 6
7167 0
7168 0
7169 23
7170 9
7171 15
7172 19
7173 9
7174 15
7175 2
7176 2
7177 9
7178 9
7179 26
7180 3
7181 3
7182 9
7183 9
7184 0
7185 2
7186 15
7187 19
7188 19
7189 14
7190 10
7191 0
7192 8
7193 15
7194 3
7195 0
7196 2
7197 21
7198 11
7199 0
7200 12
7201 2
7202 9
7203 1
7204 15
7205 0
7206 19
7207 9
7208 4
7209 9
7210 0
7211 4
7212 2
7213 9
7214 0
7215 23
7216 0
7217 19
7218 2
7219 2
7220 8
7221 11
7222 16
7223 4
7224 8
7225 13
7226 9
7227 20
7228 2
7229 8
7230 0
7231 25
7232 12
7233 8
7234 10
7235 4
7236 2
7237 9
7238 3
7239 2
7240 21
7241 3
7242 9
7243 11
7244 23
7245 1
7246 26
7247 8
7248 0
7249 15
7250 2
7251 9
7252 20
7253 17
7254 15
7255 18
7256 12
7257 19
7258 8
7259 2
7260 18
7261 2
7262 14
7263 3
7264 9
7265 2
7266 6
7267 18
7268 8
7269 0
7270 6
7271 19
7272 3
7273 8
7274 0
7275 9
7276 19
7277 9
7278 2
7279 6
7280 9
7281 12
7282 26
7283 2
7284 18
7285 0
7286 1
7287 0
7288 0
7289 7
7290 9
7291 2
7292 14
7293 2
7294 23
7295 0
7296 13
7297 16
7298 4
7299 12
7300 11
7301 9
7302 11
7303 0
7304 21
7305 2
7306 18
7307 9
7308 2
7309 0
7310 9
7311 2
7312 12
7313 11
7314 1
7315 11
7316 7
7317 2
7318 9
7319 10
7320 8
7321 2
7322 14
7323 0
7324 8
7325 2
7326 4
7327 22
7328 15
7329 4
7330 2
7331 19
7332 0
7333 12
7334 2
7335 11
7336 3
7337 19
7338 11
7339 16
7340 23
7341 1
7342 20
7343 11
7344 2
7345 19
7346 12
7347 18
7348 15
7349 8
7350 2
7351 0
7352 14
7353 9
7354 0
7355 4
7356 18
7357 2
7358 21
7359 9
7360 2
7361 15
7362 9
7363 0
7364 2
7365 14
7366 4
7367 5
7368 2
7369 19
7370 0
7371 11
7372 18
7373 8
7374 2
7375 10
7376 6
7377 11
7378 8
7379 15
7380 17
7381 17
7382 13
7383 0
7384 2
7385 0
7386 0
7387 3
7388 2
7389 18
7390 0
7391 9
7392 11
7393 9
7394 2
7395 11
7396 4
7397 2
7398 9
7399 9
7400 18
7401 8
7402 9
7403 9
7404 9
7405 14
7406 3
7407 12
7408 0
7409 16
7410 11
7411 13
7412 16
7413 0
7414 8
7415 0
7416 16
7417 11
7418 24
7419 11
7420 25
7421 4
7422 9
7423 2
7424 2
7425 8
7426 0
7427 13
7428 2
7429 2
7430 18
7431 15
7432 4
7433 2
7434 14
7435 2
7436 4
7437 20
7438 23
7439 10
7440 2
7441 5
7442 19
7443 0
7444 19
7445 14
7446 11
7447 15
7448 9
7449 26
7450 6
7451 21
7452 8
7453 1
7454 9
7455 0
7456 18
7457 0
7458 9
7459 25
7460 0
7461 8
7462 17
7463 3
7464 4
7465 9
7466 2
7467 10
7468 9
7469 2
7470 2
7471 13
7472 6
7473 4
7474 8
7475 0
7476 8
7477 15
7478 9
7479 23
7480 15
7481 23
7482 15
7483 2
7484 0
7485 1
7486 0
7487 23
7488 0
7489 7
7490 2
7491 0
7492 15
7493 8
7494 8
7495 9
7496 15
7497 15
7498 9
7499 0
7500 15
7501 9
7502 16
7503 2
7504 4
7505 0
7506 2
7507 2
7508 11
7509 3
7510 9
7511 18
7512 12
7513 16
7514 16
7515 8
7516 8
7517 1
7518 3
7519 1
7520 0
7521 2
7522 0
7523 23
7524 15
7525 2
7526 2
7527 4
7528 11
7529 16
7530 2
7531 0
7532 24
7533 3
7534 9
7535 25
7536 2
7537 25
7538 10
7539 12
7540 17
7541 20
7542 16
7543 0
7544 6
7545 20
7546 15
7547 3
7548 2
7549 12
7550 20
7551 9
7552 2
7553 0
7554 9
7555 14
7556 4
7557 15
7558 17
7559 15
7560 8
7561 4
7562 0
7563 9
7564 0
7565 0
7566 19
7567 13
7568 9
7569 0
7570 24
7571 9
7572 21
7573 17
7574 15
7575 6
7576 0
7577 0
7578 16
7579 0
7580 11
7581 11
7582 4
7583 4
7584 4
7585 15
7586 15
7587 6
7588 23
7589 2
7590 8
7591 0
7592 2
7593 26
7594 0
7595 19
7596 8
7597 0
7598 7
7599 8
7600 19
7601 15
7602 20
7603 26
7604 2
7605 0
7606 6
7607 18
7608 0
7609 11
7610 8
7611 2
7612 2
7613 8
7614 23
7615 11
7616 2
7617 14
7618 0
7619 19
7620 2
7621 18
7622 8
7623 2
7624 4
7625 23
7626 8
7627 9
7628 2
7629 0
7630 6
7631 13
7632 3
7633 11
7634 2
7635 15
7636 4
7637 0
7638 0
7639 2
7640 5
7641 9
7642 26
7643 23
7644 0
7645 2
7646 19
7647 20
7648 15
7649 15
7650 3
7651 4
7652 10
7653 11
7654 11
7655 2
7656 2
7657 5
7658 8
7659 9
7660 3
7661 3
7662 23
7663 7
7664 7
7665 1
7666 9
7667 15
7668 22
7669 4
7670 15
7671 0
7672 14
7673 0
7674 0
7675 9
7676 4
7677 0
7678 11
7679 3
7680 10
7681 0
7682 8
7683 14
7684 4
7685 0
7686 2
7687 8
7688 2
7689 8
7690 8
7691 23
7692 25
7693 0
7694 4
7695 16
7696 9
7697 0
7698 11
7699 3
7700 13
7701 11
7702 20
7703 9
7704 13
7705 8
7706 0
7707 9
7708 15
7709 9
7710 11
7711 9
7712 8
7713 20
7714 9
7715 17
7716 0
7717 3
7718 4
7719 14
7720 0
7721 22
7722 0
7723 9
7724 11
7725 8
7726 8
7727 8
7728 19
7729 8
7730 2
7731 23
7732 8
7733 9
7734 9
7735 1
7736 8
7737 2
7738 4
7739 11
7740 0
7741 11
7742 16
7743 0
7744 0
7745 7
7746 19
7747 19
7748 2
7749 16
7750 6
7751 0
7752 2
7753 2
7754 2
7755 6
7756 4
7757 2
7758 6
7759 9
7760 19
7761 2
7762 2
7763 9
7764 0
7765 3
7766 15
7767 4
7768 15
7769 0
7770 9
7771 1
7772 2
7773 1
7774 0
7775 2
7776 0
7777 11
7778 11
7779 26
7780 0
7781 8
7782 17
7783 0
7784 19
7785 2
7786 4
7787 11
7788 11
7789 0
7790 18
7791 15
7792 14
7793 15
7794 15
7795 8
7796 4
7797 0
7798 2
7799 15
7800 3
7801 0
7802 19
7803 8
7804 7
7805 13
7806 7
7807 2
7808 23
7809 0
7810 0
7811 2
7812 8
7813 15
7814 8
7815 15
7816 6
7817 19
7818 0
7819 20
7820 4
7821 15
7822 9
7823 2
7824 8
7825 9
7826 2
7827 4
7828 23
7829 0
7830 5
7831 3
7832 2
7833 9
7834 2
7835 19
7836 2
7837 2
7838 11
7839 11
7840 9
7841 1
7842 1
7843 0
7844 1
7845 14
7846 19
7847 18
7848 9
7849 3
7850 0
7851 0
7852 11
7853 26
7854 9
7855 6
7856 4
7857 2
7858 15
7859 6
7860 4
7861 8
7862 16
7863 21
7864 16
7865 17
7866 8
7867 2
7868 2
7869 2
7870 4
7871 0
7872 2
7873 23
7874 2
7875 16
7876 18
7877 7
7878 0
7879 9
7880 9
7881 16
7882 0
7883 11
7884 15
7885 8
7886 16
7887 2
7888 2
7889 9
7890 15
7891 4
7892 8
7893 0
7894 0
7895 0
7896 0
7897 9
7898 15
7899 0
7900 0
7901 21
7902 2
7903 15
7904 2
7905 16
7906 2
7907 15
7908 8
7909 23
7910 0
7911 0
7912 4
7913 12
7914 19
7915 2
7916 2
7917 3
7918 5
7919 9
7920 21
7921 1
7922 18
7923 0
7924 17
7925 26
7926 3
7927 9
7928 2
7929 2
7930 2
7931 4
7932 2
7933 11
7934 21
7935 17
7936 18
7937 0
7938 0
7939 6
7940 4
7941 9
7942 12
7943 7
7944 15
7945 23
7946 9
7947 0
7948 0
7949 15
7950 11
7951 2
7952 12
7953 4
7954 3
7955 9
7956 9
7957 8
7958 11
7959 0
7960 12
7961 0
7962 6
7963 16
7964 0
7965 2
7966 2
7967 25
7968 18
7969 4
7970 9
7971 4
7972 16
7973 2
7974 2
7975 9
7976 0
7977 2
7978 4
7979 12
7980 14
7981 2
7982 19
7983 15
7984 15
7985 15
7986 8
7987 8
7988 14
7989 9
7990 2
7991 8
7992 20
7993 7
7994 9
7995 2
7996 9
7997 9
7998 14
7999 2
8000 2
8001 22
8002 12
8003 20
8004 2
8005 4
8006 4
8007 1
8008 2
8009 11
8010 2
8011 21
8012 2
8013 2
8014 2
8015 20
8016 9
8017 0
8018 11
8019 20
8020 4
8021 9
8022 0
8023 2
8024 11
8025 15
8026 5
8027 2
8028 8
8029 15
8030 8
8031 26
8032 0
8033 9
8034 2
8035 11
8036 14
8037 2
8038 0
8039 15
8040 3
8041 1
8042 2
8043 0
8044 17
8045 15
8046 0
8047 24
8048 11
8049 0
8050 8
8051 8
8052 9
8053 16
8054 16
8055 6
8056 23
8057 9
8058 9
8059 4
8060 9
8061 6
8062 19
8063 8
8064 9
8065 11
8066 7
8067 21
8068 2
8069 8
8070 9
8071 15
8072 16
8073 0
8074 4
8075 8
8076 9
8077 8
8078 0
8079 0
8080 6
8081 0
8082 3
8083 5
8084 0
8085 0
8086 20
8087 3
8088 0
8089 23
8090 9
8091 2
8092 9
8093 15
8094 8
8095 11
8096 9
8097 0
8098 19
8099 11
8100 2
8101 2
8102 2
8103 15
8104 24
8105 9
8106 12
8107 6
8108 8
8109 6
8110 23
8111 3
8112 0
8113 4
8114 2
8115 9
8116 8
8117 9
8118 0
8119 0
8120 3
8121 20
8122 21
8123 0
8124 0
8125 7
8126 4
8127 9
8128 0
8129 13
8130 2
8131 1
8132 9
8133 21
8134 12
8135 10
8136 0
8137 0
8138 9
8139 2
8140 15
8141 2
8142 0
8143 0
8144 1
8145 0
8146 11
8147 9
8148 0
8149 26
8150 9
8151 9
8152 2
8153 19
8154 8
8155 23
8156 0
8157 0
8158 1
8159 3
8160 16
8161 1
8162 0
8163 4
8164 11
8165 8
8166 14
8167 2
8168 7
8169 15
8170 21
8171 11
8172 0
8173 11
8174 0
8175 8
8176 18
8177 2
8178 0
8179 0
8180 18
8181 1
8182 15
8183 9
8184 17
8185 13
8186 2
8187 15
8188 9
8189 0
8190 5
8191 0
8192 20
8193 3
8194 9
8195 0
8196 8
8197 0
8198 2
8199 2
8200 9
8201 0
8202 1
8203 3
8204 8
8205 4
8206 0
8207 8
8208 6
8209 0
8210 8
8211 5
8212 18
8213 8
8214 9
8215 1
8216 0
8217 8
8218 0
8219 12
8220 8
8221 15
8222 18
8223 11
8224 4
8225 3
8226 23
8227 0
8228 15
8229 6
8230 2
8231 22
8232 15
8233 9
8234 8
8235 2
8236 2
8237 0
8238 2
8239 22
8240 4
8241 0
8242 14
8243 8
8244 18
8245 9
8246 2
8247 3
8248 5
8249 9
8250 0
8251 9
8252 8
8253 13
8254 1
8255 9
8256 19
8257 18
8258 4
8259 7
8260 0
8261 22
8262 19
8263 10
8264 13
8265 9
8266 0
8267 17
8268 0
8269 15
8270 17
8271 9
8272 22
8273 11
8274 0
8275 4
8276 2
8277 7
8278 0
8279 1
8280 8
8281 22
8282 0
8283 15
8284 16
8285 24
8286 2
8287 8
8288 9
8289 13
8290 1
8291 14
8292 3
8293 9
8294 20
8295 2
8296 0
8297 12
8298 18
8299 2
8300 2
8301 13
8302 18
8303 12
8304 9
8305 2
8306 5
8307 23
8308 13
8309 2
8310 2
8311 0
8312 0
8313 3
8314 17
8315 7
8316 9
8317 9
8318 2
8319 0
8320 0
8321 15
8322 17
8323 0
8324 1
8325 8
8326 11
8327 5
8328 11
8329 14
8330 6
8331 12
8332 0
8333 6
8334 12
8335 9
8336 21
8337 0
8338 2
8339 19
8340 13
8341 0
8342 2
8343 1
8344 24
8345 16
8346 11
8347 24
8348 6
8349 4
8350 4
8351 16
8352 2
8353 0
8354 9
8355 13
8356 11
8357 2
8358 2
8359 15
8360 2
8361 16
8362 11
8363 9
8364 21
8365 9
8366 20
8367 21
8368 19
8369 0
8370 0
8371 0
8372 4
8373 2
8374 8
8375 11
8376 4
8377 0
8378 21
8379 20
8380 15
8381 9
8382 2
8383 8
8384 16
8385 8
8386 9
8387 15
8388 0
8389 8
8390 18
8391 9
8392 24
8393 23
8394 13
8395 23
8396 19
8397 9
8398 7
8399 11
8400 3
8401 0
8402 0
8403 9
8404 2
8405 0
8406 18
8407 2
8408 17
8409 21
8410 0
8411 18
8412 11
8413 2
8414 23
8415 14
8416 0
8417 0
8418 22
8419 3
8420 0
8421 7
8422 7
8423 8
8424 0
8425 0
8426 11
8427 21
8428 0
8429 9
8430 13
8431 0
8432 10
8433 13
8434 3
8435 21
8436 0
8437 0
8438 9
8439 8
8440 9
8441 3
8442 2
8443 0
8444 0
8445 0
8446 0
8447 5
8448 9
8449 0
8450 19
8451 0
8452 16
8453 26
8454 2
8455 18
8456 0
8457 13
8458 11
8459 17
8460 11
8461 19
8462 11
8463 11
8464 0
8465 2
8466 8
8467 7
8468 2
8469 2
8470 15
8471 11
8472 15
8473 8
8474 11
8475 9
8476 15
8477 15
8478 4
8479 23
8480 2
8481 11
8482 9
8483 18
8484 25
8485 0
8486 11
8487 21
8488 23
8489 17
8490 0
8491 21
8492 8
8493 9
8494 2
8495 14
8496 0
8497 15
8498 9
8499 2
8500 23
8501 12
8502 12
8503 9
8504 9
8505 12
8506 8
8507 0
8508 18
8509 8
8510 9
8511 0
8512 16
8513 8
8514 18
8515 2
8516 4
8517 0
8518 2
8519 21
8520 6
8521 23
8522 2
8523 22
8524 16
8525 2
8526 21
8527 9
8528 8
8529 21
8530 0
8531 2
8532 9
8533 0
8534 7
8535 18
8536 9
8537 15
8538 2
8539 15
8540 7
8541 8
8542 4
8543 15
8544 16
8545 13
8546 17
8547 8
8548 8
8549 0
8550 0
8551 5
8552 11
8553 21
8554 12
8555 2
8556 11
8557 8
8558 18
8559 4
8560 9
8561 1
8562 23
8563 0
8564 12
8565 16
8566 9
8567 0
8568 14
8569 14
8570 18
8571 9
8572 15
8573 20
8574 15
8575 6
8576 21
8577 8
8578 15
8579 18
8580 0
8581 0
8582 8
8583 20
8584 1
8585 2
8586 0
8587 6
8588 9
8589 11
8590 15
8591 0
8592 2
8593 19
8594 23
8595 2
8596 21
8597 2
8598 4
8599 2
8600 8
8601 19
8602 2
8603 0
8604 16
8605 9
8606 2
8607 18
8608 23
8609 15
8610 10
8611 9
8612 15
8613 23
8614 2
8615 15
8616 6
8617 0
8618 0
8619 17
8620 6
8621 0
8622 18
8623 7
8624 2
8625 0
8626 24
8627 9
8628 0
8629 22
8630 2
8631 2
8632 2
8633 1
8634 21
8635 2
8636 2
8637 19
8638 10
8639 5
8640 24
8641 22
8642 5
8643 0
8644 8
8645 15
8646 0
8647 20
8648 2
8649 9
8650 0
8651 11
8652 9
8653 9
8654 15
8655 2
8656 3
8657 18
8658 22
8659 0
8660 3
8661 15
8662 12
8663 12
8664 5
8665 9
8666 15
8667 15
8668 11
8669 3
8670 17
8671 0
8672 2
8673 8
8674 26
8675 0
8676 22
8677 2
8678 11
8679 0
8680 18
8681 2
8682 2
8683 3
8684 18
8685 7
8686 18
8687 19
8688 9
8689 2
8690 15
8691 2
8692 7
8693 3
8694 9
8695 8
8696 21
8697 9
8698 0
8699 0
8700 18
8701 19
8702 6
8703 8
8704 26
8705 11
8706 15
8707 1
8708 11
8709 2
8710 7
8711 14
8712 1
8713 4
8714 24
8715 1
8716 15
8717 0
8718 2
8719 0
8720 2
8721 8
8722 1
8723 11
8724 0
8725 11
8726 2
8727 0
8728 2
8729 23
8730 15
8731 15
8732 0
8733 11
8734 11
8735 16
8736 9
8737 23
8738 8
8739 0
8740 18
8741 7
8742 14
8743 0
8744 18
8745 15
8746 19
8747 18
8748 3
8749 0
8750 2
8751 2
8752 6
8753 8
8754 22
8755 0
8756 15
8757 9
8758 0
8759 15
8760 11
8761 6
8762 3
8763 4
8764 6
8765 19
8766 2
8767 0
8768 17
8769 9
8770 2
8771 19
8772 4
8773 9
8774 9
8775 9
8776 15
8777 1
8778 1
8779 23
8780 20
8781 15
8782 2
8783 0
8784 1
8785 8
8786 12
8787 11
8788 0
8789 6
8790 12
8791 2
8792 0
8793 0
8794 2
8795 8
8796 14
8797 0
8798 14
8799 15
8800 2
8801 23
8802 2
8803 9
8804 9
8805 9
8806 20
8807 17
8808 11
8809 2
8810 2
8811 2
8812 9
8813 0
8814 2
8815 4
8816 4
8817 8
8818 3
8819 9
8820 0
8821 8
8822 9
8823 0
8824 7
8825 2
8826 8
8827 7
8828 11
8829 23
8830 2
8831 0
8832 2
8833 23
8834 0
8835 2
8836 9
8837 17
8838 9
8839 1
8840 15
8841 26
8842 9
8843 0
8844 0
8845 3
8846 1
8847 3
8848 5
8849 9
8850 11
8851 2
8852 2
8853 8
8854 0
8855 0
8856 20
8857 3
8858 0
8859 3
8860 0
8861 11
8862 0
8863 2
8864 0
8865 0
8866 16
8867 9
8868 11
8869 2
8870 9
8871 15
8872 7
8873 21
8874 11
8875 12
8876 2
8877 3
8878 9
8879 15
8880 15
8881 11
8882 2
8883 2
8884 8
8885 11
8886 2
8887 3
8888 2
8889 7
8890 18
8891 6
8892 2
8893 2
8894 2
8895 21
8896 1
8897 8
8898 2
8899 15
8900 0
8901 8
8902 11
8903 24
8904 15
8905 7
8906 9
8907 13
8908 13
8909 2
8910 2
8911 0
8912 2
8913 8
8914 18
8915 2
8916 2
8917 2
8918 9
8919 1
8920 2
8921 2
8922 0
8923 23
8924 0
8925 9
8926 8
8927 21
8928 9
8929 21
8930 3
8931 0
8932 2
8933 13
8934 8
8935 18
8936 2
8937 23
8938 8
8939 1
8940 4
8941 2
8942 9
8943 0
8944 2
8945 24
8946 12
8947 7
8948 9
8949 15
8950 14
8951 6
8952 9
8953 2
8954 9
8955 13
8956 12
8957 9
8958 21
8959 2
8960 9
8961 9
8962 4
8963 9
8964 15
8965 4
8966 0
8967 4
8968 8
8969 2
8970 10
8971 8
8972 2
8973 7
8974 2
8975 0
8976 0
8977 6
8978 15
8979 2
8980 6
8981 9
8982 0
8983 18
8984 2
8985 3
8986 0
8987 2
8988 11
8989 10
8990 2
8991 7
8992 2
8993 9
8994 3
8995 11
8996 2
8997 0
8998 9
8999 9
9000 20
9001 9
9002 2
9003 2
9004 9
9005 15
9006 16
9007 2
9008 0
9009 8
9010 2
9011 8
9012 11
9013 23
9014 0
9015 2
9016 0
9017 15
9018 9
9019 18
9020 8
9021 19
9022 0
9023 9
9024 4
9025 2
9026 2
9027 18
9028 3
9029 15
9030 13
9031 6
9032 0
9033 3
9034 9
9035 6
9036 2
9037 4
9038 4
9039 0
9040 10
9041 0
9042 0
9043 2
9044 15
9045 18
9046 0
9047 2
9048 13
9049 2
9050 8
9051 6
9052 2
9053 8
9054 18
9055 21
9056 0
9057 6
9058 8
9059 9
9060 6
9061 11
9062 18
9063 3
9064 15
9065 23
9066 9
9067 2
9068 11
9069 3
9070 3
9071 19
9072 4
9073 9
9074 0
9075 9
9076 0
9077 3
9078 4
9079 2
9080 16
9081 2
9082 9
9083 9
9084 2
9085 2
9086 23
9087 8
9088 9
9089 8
9090 15
9091 14
9092 2
9093 15
9094 3
9095 9
9096 0
9097 0
9098 2
9099 9
9100 9
9101 19
9102 0
9103 19
9104 19
9105 9
9106 9
9107 0
9108 8
9109 2
9110 17
9111 2
9112 15
9113 16
9114 9
9115 21
9116 11
9117 12
9118 0
9119 2
9120 0
9121 12
9122 15
9123 20
9124 12
9125 9
9126 11
9127 4
9128 0
9129 9
9130 8
9131 6
9132 15
9133 20
9134 9
9135 0
9136 2
9137 7
9138 2
9139 9
9140 19
9141 19
9142 15
9143 15
9144 15
9145 2
9146 2
9147 8
9148 0
9149 19
9150 9
9151 21
9152 2
9153 21
9154 4
9155 9
9156 10
9157 21
9158 16
9159 13
9160 19
9161 2
9162 14
9163 9
9164 19
9165 15
9166 2
9167 0
9168 18
9169 16
9170 9
9171 15
9172 18
9173 15
9174 18
9175 9
9176 0
9177 2
9178 23
9179 11
9180 15
9181 2
9182 9
9183 23
9184 9
9185 0
9186 4
9187 6
9188 6
9189 0
9190 0
9191 2
9192 24
9193 2
9194 8
9195 19
9196 2
9197 3
9198 2
9199 15
9200 9
9201 9
9202 2
9203 2
9204 21
9205 0
9206 23
9207 3
9208 12
9209 0
9210 15
9211 2
9212 13
9213 0
9214 7
9215 11
9216 11
9217 11
9218 21
9219 2
9220 9
9221 2
9222 8
9223 15
9224 9
9225 4
9226 12
9227 8
9228 8
9229 2
9230 8
9231 1
9232 9
9233 0
9234 8
9235 2
9236 24
9237 18
9238 7
9239 8
9240 1
9241 15
9242 2
9243 2
9244 0
9245 9
9246 0
9247 8
9248 9
9249 24
9250 23
9251 19
9252 2
9253 2
9254 0
9255 4
9256 15
9257 22
9258 8
9259 20
9260 15
9261 21
9262 3
9263 0
9264 0
9265 11
9266 3
9267 1
9268 15
9269 15
9270 15
9271 0
9272 1
9273 2
9274 15
9275 14
9276 8
9277 0
9278 2
9279 2
9280 15
9281 21
9282 11
9283 8
9284 6
9285 2
9286 8
9287 20
9288 20
9289 24
9290 19
9291 11
9292 2
9293 2
9294 3
9295 8
9296 4
9297 23
9298 11
9299 23
9300 0
9301 0
9302 11
9303 0
9304 19
9305 8
9306 15
9307 13
9308 18
9309 2
9310 11
9311 15
9312 3
9313 0
9314 23
9315 19
9316 2
9317 8
9318 0
9319 11
9320 3
9321 21
9322 2
9323 14
9324 9
9325 2
9326 8
9327 9
9328 16
9329 2
9330 1
9331 0
9332 24
9333 11
9334 8
9335 15
9336 23
9337 18
9338 17
9339 4
9340 7
9341 2
9342 1
9343 6
9344 16
9345 3
9346 0
9347 23
9348 14
9349 12
9350 8
9351 18
9352 9
9353 21
9354 15
9355 18
9356 17
9357 12
9358 0
9359 8
9360 25
9361 16
9362 19
9363 2
9364 0
9365 8
9366 0
9367 12
9368 0
9369 20
9370 2
9371 3
9372 16
9373 11
9374 0
9375 0
9376 12
9377 3
9378 15
9379 2
9380 8
9381 9
9382 9
9383 16
9384 17
9385 9
9386 7
9387 2
9388 9
9389 8
9390 0
9391 0
9392 18
9393 2
9394 1
9395 20
9396 3
9397 3
9398 8
9399 1
9400 0
9401 2
9402 2
9403 12
9404 4
9405 22
9406 11
9407 15
9408 0
9409 2
9410 8
9411 2
9412 13
9413 4
9414 8
9415 15
9416 0
9417 17
9418 20
9419 9
9420 3
9421 26
9422 9
9423 18
9424 3
9425 1
9426 11
9427 15
9428 8
9429 17
9430 22
9431 18
9432 0
9433 2
9434 9
9435 19
9436 9
9437 2
9438 8
9439 3
9440 9
9441 22
9442 9
9443 0
9444 0
9445 15
9446 12
9447 26
9448 21
9449 0
9450 0
9451 16
9452 11
9453 2
9454 8
9455 19
9456 9
9457 11
9458 15
9459 9
9460 9
9461 11
9462 8
9463 23
9464 0
9465 0
9466 3
9467 9
9468 9
9469 0
9470 14
9471 4
9472 26
9473 9
9474 6
9475 10
9476 23
9477 9
9478 24
9479 21
9480 3
9481 9
9482 2
9483 0
9484 8
9485 20
9486 3
9487 2
9488 17
9489 0
9490 0
9491 16
9492 23
9493 15
9494 2
9495 0
9496 26
9497 7
9498 2
9499 0
9500 18
9501 0
9502 2
9503 9
9504 3
9505 7
9506 11
9507 16
9508 9
9509 6
9510 12
9511 1
9512 2
9513 22
9514 16
9515 9
9516 9
9517 2
9518 9
9519 2
9520 12
9521 7
9522 2
9523 0
9524 9
9525 21
9526 8
9527 3
9528 2
9529 0
9530 4
9531 2
9532 8
9533 0
9534 9
9535 2
9536 0
9537 8
9538 15
9539 2
9540 7
9541 2
9542 11
9543 7
9544 0
9545 2
9546 2
9547 8
9548 9
9549 24
9550 2
9551 8
9552 2
9553 15
9554 8
9555 9
9556 14
9557 17
9558 15
9559 13
9560 9
9561 8
9562 6
9563 11
9564 0
9565 16
9566 19
9567 2
9568 2
9569 11
9570 4
9571 18
9572 15
9573 2
9574 5
9575 12
9576 11
9577 25
9578 14
9579 8
9580 8
9581 14
9582 8
9583 18
9584 0
9585 16
9586 1
9587 9
9588 0
9589 0
9590 15
9591 0
9592 9
9593 6
9594 0
9595 8
9596 9
9597 15
9598 9
9599 0
9600 0
9601 2
9602 8
9603 15
9604 15
9605 2
9606 0
9607 14
9608 15
9609 2
9610 12
9611 21
9612 0
9613 0
9614 18
9615 0
9616 9
9617 1
9618 24
9619 2
9620 2
9621 0
9622 13
9623 9
9624 8
9625 23
9626 19
9627 9
9628 0
9629 10
9630 16
9631 21
9632 0
9633 21
9634 11
9635 11
9636 20
9637 8
9638 15
9639 3
9640 8
9641 9
9642 2
9643 3
9644 18
9645 2
9646 6
9647 13
9648 22
9649 22
9650 11
9651 17
9652 8
9653 2
9654 2
9655 0
9656 0
9657 15
9658 18
9659 19
9660 15
9661 16
9662 9
9663 15
9664 9
9665 1
9666 16
9667 8
9668 15
9669 15
9670 2
9671 11
9672 3
9673 4
9674 1
9675 2
9676 18
9677 16
9678 15
9679 10
9680 0
9681 13
9682 0
9683 12
9684 26
9685 2
9686 14
9687 9
9688 0
9689 6
9690 14
9691 18
9692 14
9693 13
9694 3
9695 9
9696 0
9697 0
9698 9
9699 0
9700 15
9701 2
9702 3
9703 6
9704 11
9705 11
9706 15
9707 11
9708 0
9709 2
9710 18
9711 13
9712 15
9713 0
9714 3
9715 14
9716 8
9717 15
9718 13
9719 0
9720 17
9721 4
9722 2
9723 21
9724 23
9725 9
9726 2
9727 2
9728 6
9729 1
9730 0
9731 8
9732 15
9733 11
9734 2
9735 9
9736 14
9737 11
9738 18
9739 11
9740 17
9741 15
9742 0
9743 0
9744 2
9745 8
9746 0
9747 12
9748 20
9749 0
9750 0
9751 13
9752 9
9753 3
9754 1
9755 2
9756 6
9757 9
9758 0
9759 2
9760 26
9761 2
9762 9
9763 9
9764 3
9765 21
9766 11
9767 4
9768 14
9769 0
9770 7
9771 8
9772 15
9773 11
9774 7
9775 0
9776 11
9777 1
9778 0
9779 2
9780 4
9781 9
9782 0
9783 9
9784 14
9785 21
9786 13
9787 1
9788 2
9789 15
9790 12
9791 23
9792 8
9793 3
9794 2
9795 2
9796 0
9797 11
9798 19
9799 21
9800 2
9801 15
9802 15
9803 9
9804 4
9805 0
9806 2
9807 4
9808 14
9809 11
9810 8
9811 2
9812 8
9813 8
9814 7
9815 13
9816 2
9817 20
9818 0
9819 22
9820 0
9821 4
9822 9
9823 7
9824 2
9825 7
9826 15
9827 15
9828 1
9829 7
9830 19
9831 11
9832 25
9833 11
9834 0
9835 18
9836 2
9837 0
9838 9
9839 2
9840 0
9841 0
9842 4
9843 24
9844 24
9845 1
9846 8
9847 4
9848 2
9849 17
9850 9
9851 2
9852 7
9853 2
9854 2
9855 4
9856 13
9857 9
9858 17
9859 18
9860 2
9861 6
9862 11
9863 0
9864 9
9865 10
9866 1
9867 9
9868 2
9869 21
9870 2
9871 9
9872 11
9873 1
9874 18
9875 19
9876 14
9877 15
9878 2
9879 0
9880 11
9881 14
9882 12
9883 0
9884 8
9885 11
9886 24
9887 2
9888 2
9889 9
9890 15
9891 11
9892 0
9893 15
9894 0
9895 9
9896 2
9897 2
9898 16
9899 15
9900 0
9901 8
9902 9
9903 3
9904 2
9905 9
9906 8
9907 8
9908 15
9909 1
9910 2
9911 15
9912 21
9913 19
9914 2
9915 3
9916 18
9917 11
9918 8
9919 13
9920 2
9921 6
9922 0
9923 19
9924 3
9925 2
9926 15
9927 11
9928 20
9929 8
9930 9
9931 23
9932 3
9933 2
9934 9
9935 11
9936 25
9937 19
9938 2
9939 9
9940 18
9941 1
9942 0
9943 2
9944 20
9945 20
9946 9
9947 15
9948 2
9949 0
9950 0
9951 0
9952 2
9953 11
9954 8
9955 15
9956 13
9957 20
9958 2
9959 0
9960 1
9961 0
9962 0
9963 15
9964 15
9965 0
9966 0
9967 0
9968 0
9969 9
9970 12
9971 1
9972 14
9973 2
9974 4
9975 6
9976 2
9977 15
9978 9
9979 8
9980 9
9981 0
9982 9
9983 3
9984 21
9985 2
9986 14
9987 2
9988 11
9989 9
9990 4
9991 11
9992 11
9993 1
9994 17
9995 9
9996 9
9997 2
9998 2
9999 8
