0 0
1 1
2 2
3 1
4 3
5 1
6 4
7 5
8 1
9 6
10 7
11 8
12 9
13 10
14 11
15 12
16 5
17 7
18 13
19 11
20 1
21 11
22 14
23 15
24 16
25 8
26 16
27 13
28 1
29 8
30 17
31 11
32 7
33 1
34 16
35 1
36 11
37 11
38 9
39 5
40 18
41 9
42 11
43 1
44 9
45 12
46 4
47 8
48 15
49 12
50 17
51 1
52 9
53 0
54 16
55 19
56 1
57 17
58 11
59 11
60 17
61 11
62 11
63 8
64 4
65 20
66 9
67 17
68 10
69 10
70 9
71 16
72 13
73 16
74 9
75 10
76 5
77 12
78 14
79 1
80 21
81 1
82 20
83 17
84 7
85 16
86 8
87 22
88 0
89 0
90 16
91 8
92 11
93 8
94 0
95 18
96 9
97 11
98 8
99 11
100 15
101 23
102 11
103 11
104 17
105 9
106 12
107 9
108 6
109 12
110 7
111 9
112 21
113 17
114 2
115 11
116 7
117 1
118 9
119 16
120 1
121 8
122 15
123 20
124 13
125 1
126 8
127 1
128 5
129 10
130 5
131 17
132 12
133 7
134 16
135 21
136 9
137 17
138 13
139 0
140 16
141 5
142 15
143 17
144 7
145 16
146 5
147 13
148 10
149 24
150 1
151 1
152 2
153 16
154 19
155 16
156 17
157 5
158 1
159 5
160 2
161 1
162 11
163 10
164 9
165 17
166 8
167 15
168 13
169 4
170 17
171 11
172 4
173 9
174 10
175 17
176 11
177 5
178 2
179 23
180 11
181 1
182 7
183 2
184 1
185 11
186 18
187 0
188 9
189 11
190 13
191 11
192 8
193 9
194 16
195 7
196 21
197 17
198 9
199 1
200 7
201 11
202 2
203 13
204 8
205 16
206 3
207 9
208 8
209 16
210 6
211 20
212 11
213 2
214 16
215 8
216 5
217 1
218 25
219 24
220 11
221 3
222 9
223 16
224 9
225 1
226 26
227 8
228 15
229 10
230 11
231 11
232 0
233 15
234 11
235 16
236 16
237 1
238 14
239 4
240 11
241 10
242 11
243 13
244 8
245 11
246 27
247 22
248 0
249 9
250 17
251 16
252 9
253 16
254 16
255 0
256 3
257 9
258 14
259 2
260 12
261 1
262 9
263 1
264 7
265 15
266 11
267 9
268 24
269 12
270 13
271 5
272 14
273 17
274 14
275 9
276 16
277 4
278 23
279 23
280 4
281 13
282 0
283 17
284 11
285 4
286 3
287 2
288 13
289 17
290 17
291 11
292 8
293 1
294 11
295 13
296 16
297 1
298 1
299 9
300 13
301 1
302 6
303 11
304 8
305 1
306 2
307 11
308 16
309 16
310 11
311 8
312 2
313 9
314 5
315 8
316 1
317 11
318 13
319 8
320 11
321 8
322 21
323 27
324 9
325 11
326 14
327 25
328 16
329 24
330 16
331 4
332 2
333 16
334 1
335 2
336 17
337 27
338 1
339 17
340 9
341 1
342 18
343 7
344 16
345 2
346 3
347 4
348 9
349 1
350 1
351 18
352 9
353 9
354 18
355 1
356 16
357 10
358 7
359 9
360 15
361 5
362 19
363 17
364 11
365 1
366 16
367 24
368 5
369 9
370 9
371 2
372 13
373 16
374 4
375 7
376 15
377 0
378 13
379 9
380 4
381 16
382 11
383 13
384 15
385 16
386 23
387 9
388 9
389 11
390 17
391 3
392 9
393 9
394 16
395 2
396 11
397 1
398 11
399 17
400 1
401 9
402 9
403 14
404 10
405 23
406 11
407 25
408 13
409 9
410 4
411 11
412 11
413 22
414 13
415 6
416 24
417 17
418 1
419 9
420 25
421 9
422 11
423 1
424 9
425 3
426 3
427 19
428 23
429 7
430 11
431 16
432 16
433 16
434 7
435 17
436 15
437 2
438 8
439 8
440 3
441 1
442 17
443 7
444 9
445 11
446 17
447 6
448 1
449 1
450 9
451 23
452 11
453 11
454 8
455 11
456 16
457 16
458 20
459 9
460 1
461 17
462 14
463 16
464 11
465 4
466 11
467 8
468 12
469 10
470 1
471 9
472 8
473 23
474 11
475 8
476 4
477 13
478 25
479 13
480 17
481 10
482 17
483 2
484 27
485 16
486 21
487 18
488 16
489 16
490 9
491 17
492 11
493 11
494 11
495 1
496 18
497 27
498 18
499 1
500 17
501 8
502 17
503 1
504 8
505 25
506 13
507 22
508 9
509 1
510 2
511 7
512 7
513 16
514 16
515 16
516 2
517 17
518 25
519 11
520 9
521 0
522 3
523 11
524 12
525 1
526 2
527 16
528 9
529 11
530 17
531 3
532 11
533 9
534 7
535 7
536 16
537 17
538 10
539 13
540 1
541 6
542 0
543 1
544 11
545 8
546 11
547 17
548 1
549 16
550 26
551 16
552 11
553 23
554 16
555 19
556 14
557 11
558 20
559 2
560 9
561 1
562 22
563 1
564 17
565 17
566 8
567 16
568 0
569 18
570 13
571 8
572 8
573 12
574 9
575 16
576 15
577 16
578 1
579 9
580 16
581 9
582 7
583 22
584 16
585 20
586 15
587 11
588 9
589 6
590 9
591 22
592 10
593 16
594 15
595 0
596 21
597 4
598 9
599 15
600 1
601 7
602 1
603 17
604 16
605 24
606 11
607 5
608 11
609 9
610 9
611 11
612 2
613 8
614 2
615 1
616 18
617 15
618 4
619 13
620 11
621 21
622 17
623 27
624 9
625 11
626 20
627 13
628 17
629 7
630 10
631 8
632 12
633 11
634 8
635 5
636 16
637 8
638 17
639 1
640 3
641 16
642 14
643 14
644 7
645 21
646 9
647 9
648 16
649 0
650 18
651 5
652 16
653 11
654 11
655 9
656 9
657 10
658 13
659 8
660 11
661 17
662 15
663 16
664 9
665 12
666 17
667 1
668 17
669 5
670 16
671 0
672 15
673 11
674 23
675 16
676 6
677 21
678 24
679 16
680 0
681 8
682 8
683 7
684 11
685 13
686 11
687 3
688 2
689 10
690 9
691 8
692 1
693 10
694 11
695 11
696 13
697 15
698 11
699 17
700 0
701 17
702 9
703 10
704 27
705 23
706 7
707 1
708 13
709 1
710 11
711 10
712 17
713 8
714 17
715 5
716 3
717 24
718 3
719 1
720 11
721 11
722 9
723 15
724 7
725 12
726 24
727 0
728 14
729 11
730 10
731 13
732 26
733 11
734 12
735 11
736 3
737 11
738 9
739 1
740 11
741 5
742 23
743 8
744 6
745 14
746 26
747 16
748 11
749 1
750 23
751 7
752 5
753 16
754 11
755 12
756 1
757 17
758 9
759 17
760 11
761 9
762 4
763 1
764 6
765 11
766 11
767 24
768 20
769 9
770 9
771 11
772 1
773 16
774 1
775 9
776 13
777 15
778 2
779 24
780 1
781 16
782 12
783 1
784 10
785 11
786 9
787 11
788 11
789 9
790 10
791 14
792 1
793 15
794 8
795 0
796 15
797 16
798 16
799 16
800 6
801 11
802 9
803 1
804 9
805 17
806 9
807 9
808 9
809 8
810 11
811 24
812 13
813 23
814 24
815 1
816 1
817 9
818 9
819 9
820 8
821 11
822 15
823 18
824 0
825 9
826 9
827 16
828 8
829 8
830 16
831 11
832 1
833 22
834 16
835 17
836 16
837 1
838 8
839 14
840 9
841 17
842 17
843 13
844 17
845 8
846 23
847 4
848 11
849 11
850 1
851 21
852 9
853 1
854 20
855 14
856 22
857 10
858 25
859 19
860 13
861 8
862 9
863 5
864 13
865 8
866 1
867 1
868 1
869 14
870 1
871 18
872 9
873 11
874 11
875 7
876 11
877 9
878 27
879 12
880 11
881 16
882 3
883 17
884 9
885 5
886 9
887 2
888 23
889 16
890 11
891 1
892 17
893 19
894 1
895 13
896 27
897 12
898 9
899 13
900 11
901 9
902 11
903 16
904 1
905 8
906 2
907 11
908 24
909 1
910 20
911 11
912 13
913 17
914 23
915 17
916 16
917 9
918 16
919 1
920 17
921 0
922 17
923 17
924 5
925 11
926 8
927 10
928 3
929 9
930 11
931 16
932 11
933 8
934 10
935 21
936 9
937 4
938 16
939 11
940 14
941 17
942 17
943 23
944 2
945 1
946 11
947 10
948 11
949 16
950 10
951 23
952 3
953 11
954 11
955 1
956 1
957 27
958 13
959 2
960 9
961 11
962 9
963 17
964 16
965 2
966 17
967 9
968 17
969 13
970 16
971 16
972 9
973 6
974 18
975 5
976 8
977 13
978 16
979 8
980 4
981 11
982 10
983 9
984 9
985 12
986 1
987 23
988 11
989 10
990 8
991 17
992 13
993 9
994 22
995 16
996 16
997 13
998 6
999 1
1000 9
1001 9
1002 6
1003 16
1004 16
1005 9
1006 17
1007 12
1008 16
1009 25
1010 15
1011 14
1012 6
1013 11
1014 13
1015 16
1016 11
1017 11
1018 9
1019 18
1020 16
1021 4
1022 0
1023 11
1024 17
1025 17
1026 12
1027 4
1028 8
1029 9
1030 8
1031 7
1032 1
1033 14
1034 2
1035 16
1036 14
1037 1
1038 1
1039 2
1040 1
1041 13
1042 21
1043 5
1044 11
1045 1
1046 11
1047 22
1048 1
1049 1
1050 9
1051 16
1052 11
1053 11
1054 7
1055 2
1056 20
1057 9
1058 5
1059 18
1060 1
1061 9
1062 16
1063 5
1064 1
1065 21
1066 7
1067 16
1068 11
1069 11
1070 8
1071 7
1072 0
1073 25
1074 17
1075 11
1076 19
1077 11
1078 11
1079 17
1080 3
1081 11
1082 19
1083 1
1084 8
1085 8
1086 11
1087 11
1088 20
1089 15
1090 4
1091 1
1092 11
1093 9
1094 23
1095 21
1096 10
1097 2
1098 23
1099 23
1100 11
1101 26
1102 11
1103 17
1104 17
1105 24
1106 2
1107 8
1108 13
1109 1
1110 12
1111 17
1112 8
1113 9
1114 4
1115 12
1116 16
1117 1
1118 16
1119 5
1120 13
1121 2
1122 7
1123 1
1124 16
1125 1
1126 10
1127 23
1128 16
1129 12
1130 10
1131 9
1132 9
1133 3
1134 13
1135 16
1136 1
1137 1
1138 18
1139 16
1140 17
1141 2
1142 8
1143 2
1144 18
1145 4
1146 16
1147 17
1148 10
1149 1
1150 8
1151 17
1152 8
1153 16
1154 9
1155 17
1156 16
1157 22
1158 9
1159 2
1160 10
1161 1
1162 4
1163 22
1164 2
1165 16
1166 19
1167 1
1168 10
1169 16
1170 8
1171 13
1172 8
1173 4
1174 2
1175 15
1176 9
1177 7
1178 11
1179 1
1180 15
1181 24
1182 7
1183 1
1184 11
1185 15
1186 16
1187 24
1188 5
1189 0
1190 1
1191 16
1192 11
1193 1
1194 9
1195 9
1196 1
1197 7
1198 9
1199 23
1200 1
1201 11
1202 9
1203 0
1204 9
1205 5
1206 8
1207 16
1208 2
1209 8
1210 16
1211 11
1212 7
1213 1
1214 7
1215 13
1216 1
1217 6
1218 7
1219 11
1220 11
1221 3
1222 2
1223 6
1224 17
1225 16
1226 10
1227 9
1228 9
1229 13
1230 8
1231 23
1232 16
1233 8
1234 16
1235 11
1236 16
1237 10
1238 5
1239 1
1240 10
1241 13
1242 16
1243 16
1244 17
1245 16
1246 6
1247 9
1248 20
1249 17
1250 16
1251 23
1252 1
1253 1
1254 9
1255 13
1256 20
1257 7
1258 23
1259 11
1260 9
1261 11
1262 10
1263 1
1264 11
1265 1
1266 1
1267 18
1268 3
1269 13
1270 16
1271 1
1272 8
1273 7
1274 0
1275 2
1276 9
1277 6
1278 11
1279 10
1280 12
1281 16
1282 11
1283 9
1284 3
1285 16
1286 16
1287 24
1288 12
1289 4
1290 10
1291 4
1292 0
1293 17
1294 16
1295 16
1296 18
1297 1
1298 9
1299 3
1300 8
1301 24
1302 1
1303 5
1304 12
1305 1
1306 13
1307 1
1308 23
1309 17
1310 1
1311 8
1312 11
1313 11
1314 9
1315 15
1316 16
1317 11
1318 16
1319 8
1320 17
1321 9
1322 16
1323 8
1324 16
1325 17
1326 16
1327 20
1328 0
1329 9
1330 8
1331 9
1332 11
1333 23
1334 7
1335 11
1336 11
1337 25
1338 9
1339 8
1340 3
1341 10
1342 27
1343 16
1344 7
1345 11
1346 2
1347 14
1348 17
1349 16
1350 1
1351 13
1352 17
1353 16
1354 9
1355 4
1356 15
1357 17
1358 1
1359 13
1360 11
1361 16
1362 16
1363 23
1364 26
1365 9
1366 16
1367 16
1368 17
1369 4
1370 11
1371 11
1372 16
1373 11
1374 1
1375 16
1376 0
1377 9
1378 11
1379 9
1380 5
1381 9
1382 9
1383 9
1384 1
1385 25
1386 9
1387 11
1388 1
1389 17
1390 16
1391 9
1392 1
1393 9
1394 16
1395 9
1396 9
1397 0
1398 23
1399 13
1400 11
1401 12
1402 11
1403 14
1404 1
1405 11
1406 17
1407 16
1408 19
1409 11
1410 1
1411 10
1412 8
1413 12
1414 5
1415 9
1416 7
1417 24
1418 9
1419 1
1420 8
1421 22
1422 16
1423 11
1424 11
1425 4
1426 1
1427 9
1428 16
1429 8
1430 21
1431 11
1432 1
1433 10
1434 23
1435 11
1436 4
1437 0
1438 21
1439 0
1440 1
1441 11
1442 13
1443 16
1444 4
1445 7
1446 11
1447 7
1448 7
1449 9
1450 9
1451 27
1452 11
1453 8
1454 17
1455 13
1456 1
1457 9
1458 3
1459 1
1460 8
1461 16
1462 25
1463 9
1464 11
1465 16
1466 11
1467 16
1468 1
1469 8
1470 17
1471 1
1472 18
1473 9
1474 9
1475 11
1476 12
1477 2
1478 13
1479 10
1480 17
1481 4
1482 7
1483 18
1484 8
1485 11
1486 16
1487 9
1488 1
1489 13
1490 2
1491 16
1492 25
1493 16
1494 18
1495 14
1496 8
1497 8
1498 9
1499 17
1500 9
1501 16
1502 2
1503 20
1504 0
1505 17
1506 14
1507 11
1508 11
1509 20
1510 13
1511 11
1512 1
1513 25
1514 9
1515 10
1516 18
1517 7
1518 11
1519 13
1520 9
1521 27
1522 5
1523 16
1524 17
1525 11
1526 1
1527 1
1528 7
1529 16
1530 16
1531 1
1532 8
1533 1
1534 0
1535 17
1536 16
1537 22
1538 17
1539 13
1540 1
1541 18
1542 7
1543 17
1544 7
1545 17
1546 12
1547 12
1548 24
1549 24
1550 7
1551 8
1552 1
1553 9
1554 0
1555 25
1556 0
1557 1
1558 1
1559 3
1560 9
1561 12
1562 1
1563 17
1564 16
1565 19
1566 11
1567 2
1568 10
1569 16
1570 26
1571 1
1572 1
1573 11
1574 17
1575 15
1576 27
1577 17
1578 3
1579 5
1580 18
1581 19
1582 16
1583 8
1584 16
1585 15
1586 23
1587 13
1588 17
1589 10
1590 13
1591 9
1592 6
1593 7
1594 11
1595 10
1596 1
1597 0
1598 9
1599 11
1600 12
1601 13
1602 8
1603 2
1604 11
1605 0
1606 1
1607 13
1608 17
1609 18
1610 11
1611 18
1612 4
1613 5
1614 11
1615 9
1616 6
1617 5
1618 11
1619 1
1620 13
1621 9
1622 1
1623 15
1624 9
1625 9
1626 18
1627 9
1628 8
1629 11
1630 5
1631 1
1632 2
1633 10
1634 16
1635 8
1636 1
1637 8
1638 12
1639 16
1640 8
1641 17
1642 9
1643 9
1644 16
1645 12
1646 7
1647 16
1648 16
1649 11
1650 11
1651 14
1652 13
1653 9
1654 22
1655 11
1656 5
1657 9
1658 24
1659 16
1660 9
1661 11
1662 11
1663 17
1664 17
1665 8
1666 16
1667 9
1668 17
1669 1
1670 16
1671 11
1672 13
1673 2
1674 16
1675 14
1676 7
1677 11
1678 12
1679 11
1680 11
1681 11
1682 0
1683 2
1684 17
1685 10
1686 17
1687 1
1688 17
1689 17
1690 19
1691 16
1692 7
1693 2
1694 12
1695 17
1696 18
1697 2
1698 8
1699 16
1700 9
1701 15
1702 1
1703 11
1704 15
1705 16
1706 2
1707 16
1708 3
1709 8
1710 16
1711 2
1712 11
1713 10
1714 16
1715 1
1716 16
1717 14
1718 17
1719 9
1720 19
1721 8
1722 8
1723 17
1724 18
1725 13
1726 17
1727 17
1728 13
1729 2
1730 27
1731 8
1732 1
1733 9
1734 17
1735 13
1736 1
1737 23
1738 16
1739 11
1740 4
1741 16
1742 8
1743 11
1744 16
1745 1
1746 16
1747 13
1748 9
1749 3
1750 22
1751 1
1752 8
1753 11
1754 11
1755 9
1756 11
1757 5
1758 1
1759 12
1760 1
1761 7
1762 11
1763 1
1764 10
1765 11
1766 18
1767 16
1768 7
1769 9
1770 16
1771 17
1772 24
1773 20
1774 5
1775 24
1776 7
1777 7
1778 11
1779 1
1780 16
1781 9
1782 1
1783 25
1784 17
1785 12
1786 11
1787 5
1788 17
1789 23
1790 1
1791 26
1792 11
1793 16
1794 7
1795 10
1796 8
1797 10
1798 15
1799 4
1800 10
1801 15
1802 22
1803 2
1804 0
1805 9
1806 11
1807 11
1808 9
1809 5
1810 7
1811 16
1812 14
1813 16
1814 4
1815 17
1816 16
1817 21
1818 10
1819 17
1820 15
1821 8
1822 5
1823 11
1824 1
1825 8
1826 11
1827 9
1828 22
1829 1
1830 1
1831 11
1832 1
1833 5
1834 11
1835 6
1836 11
1837 10
1838 21
1839 1
1840 21
1841 16
1842 22
1843 11
1844 9
1845 14
1846 8
1847 9
1848 8
1849 16
1850 11
1851 11
1852 25
1853 7
1854 24
1855 0
1856 11
1857 17
1858 13
1859 1
1860 8
1861 23
1862 8
1863 26
1864 16
1865 18
1866 17
1867 11
1868 11
1869 9
1870 16
1871 15
1872 9
1873 16
1874 8
1875 16
1876 8
1877 21
1878 3
1879 9
1880 1
1881 12
1882 23
1883 5
1884 11
1885 11
1886 20
1887 3
1888 9
1889 4
1890 9
1891 8
1892 13
1893 11
1894 1
1895 13
1896 1
1897 13
1898 27
1899 22
1900 4
1901 0
1902 5
1903 5
1904 9
1905 9
1906 11
1907 16
1908 3
1909 17
1910 16
1911 23
1912 11
1913 9
1914 11
1915 15
1916 1
1917 15
1918 11
1919 11
1920 3
1921 11
1922 5
1923 17
1924 23
1925 9
1926 7
1927 10
1928 9
1929 1
1930 15
1931 16
1932 10
1933 17
1934 10
1935 18
1936 16
1937 11
1938 11
1939 16
1940 11
1941 13
1942 23
1943 16
1944 11
1945 9
1946 3
1947 10
1948 10
1949 10
1950 0
1951 9
1952 13
1953 22
1954 21
1955 8
1956 11
1957 11
1958 8
1959 10
1960 8
1961 4
1962 9
1963 17
1964 13
1965 23
1966 16
1967 11
1968 17
1969 9
1970 4
1971 17
1972 7
1973 11
1974 11
1975 0
1976 9
1977 11
1978 10
1979 9
1980 1
1981 10
1982 11
1983 9
1984 15
1985 11
1986 1
1987 3
1988 0
1989 11
1990 12
1991 11
1992 1
1993 2
1994 12
1995 11
1996 11
1997 11
1998 8
1999 1
2000 10
2001 8
2002 16
2003 9
2004 13
2005 22
2006 13
2007 24
2008 9
2009 9
2010 21
2011 8
2012 16
2013 16
2014 13
2015 5
2016 5
2017 9
2018 13
2019 5
2020 11
2021 8
2022 1
2023 11
2024 27
2025 16
2026 8
2027 11
2028 17
2029 9
2030 11
2031 9
2032 7
2033 22
2034 11
2035 1
2036 1
2037 1
2038 7
2039 16
2040 19
2041 19
2042 0
2043 11
2044 1
2045 4
2046 16
2047 9
2048 1
2049 11
2050 13
2051 7
2052 1
2053 1
2054 11
2055 3
2056 17
2057 23
2058 16
2059 11
2060 1
2061 16
2062 8
2063 11
2064 13
2065 1
2066 2
2067 13
2068 8
2069 1
2070 12
2071 8
2072 17
2073 11
2074 8
2075 11
2076 16
2077 16
2078 8
2079 17
2080 16
2081 16
2082 13
2083 1
2084 6
2085 13
2086 1
2087 0
2088 11
2089 9
2090 18
2091 17
2092 23
2093 15
2094 16
2095 8
2096 23
2097 16
2098 5
2099 0
2100 0
2101 11
2102 1
2103 5
2104 22
2105 1
2106 26
2107 1
2108 11
2109 4
2110 8
2111 1
2112 8
2113 3
2114 16
2115 8
2116 8
2117 13
2118 1
2119 1
2120 13
2121 18
2122 18
2123 5
2124 5
2125 16
2126 15
2127 2
2128 4
2129 11
2130 9
2131 21
2132 11
2133 1
2134 1
2135 1
2136 17
2137 11
2138 9
2139 11
2140 0
2141 9
2142 11
2143 11
2144 9
2145 16
2146 18
2147 20
2148 11
2149 8
2150 9
2151 19
2152 11
2153 9
2154 8
2155 5
2156 17
2157 16
2158 26
2159 11
2160 23
2161 17
2162 8
2163 14
2164 13
2165 1
2166 1
2167 15
2168 11
2169 13
2170 9
2171 9
2172 26
2173 16
2174 19
2175 16
2176 11
2177 24
2178 5
2179 22
2180 9
2181 19
2182 4
2183 11
2184 4
2185 17
2186 17
2187 16
2188 1
2189 17
2190 17
2191 5
2192 13
2193 8
2194 8
2195 16
2196 9
2197 16
2198 12
2199 20
2200 9
2201 9
2202 16
2203 0
2204 12
2205 1
2206 26
2207 16
2208 4
2209 9
2210 16
2211 16
2212 18
2213 11
2214 9
2215 4
2216 9
2217 8
2218 19
2219 16
2220 5
2221 16
2222 24
2223 22
2224 16
2225 11
2226 1
2227 6
2228 16
2229 9
2230 23
2231 9
2232 9
2233 4
2234 10
2235 9
2236 16
2237 16
2238 11
2239 12
2240 9
2241 27
2242 20
2243 11
2244 9
2245 13
2246 10
2247 24
2248 10
2249 9
2250 17
2251 1
2252 9
2253 17
2254 14
2255 9
2256 16
2257 11
2258 17
2259 3
2260 16
2261 5
2262 9
2263 9
2264 8
2265 17
2266 9
2267 13
2268 1
2269 16
2270 11
2271 11
2272 4
2273 9
2274 27
2275 8
2276 19
2277 23
2278 5
2279 24
2280 23
2281 16
2282 11
2283 11
2284 17
2285 22
2286 23
2287 8
2288 11
2289 17
2290 9
2291 9
2292 13
2293 1
2294 12
2295 2
2296 8
2297 11
2298 3
2299 1
2300 27
2301 18
2302 9
2303 8
2304 17
2305 11
2306 5
2307 1
2308 13
2309 12
2310 15
2311 16
2312 11
2313 17
2314 9
2315 1
2316 1
2317 10
2318 8
2319 1
2320 16
2321 3
2322 8
2323 12
2324 12
2325 18
2326 16
2327 10
2328 21
2329 1
2330 7
2331 24
2332 11
2333 2
2334 8
2335 11
2336 17
2337 16
2338 13
2339 17
2340 16
2341 10
2342 9
2343 20
2344 4
2345 18
2346 0
2347 1
2348 11
2349 16
2350 5
2351 9
2352 1
2353 17
2354 2
2355 10
2356 9
2357 5
2358 13
2359 14
2360 10
2361 16
2362 1
2363 22
2364 8
2365 12
2366 11
2367 21
2368 16
2369 13
2370 23
2371 18
2372 1
2373 26
2374 9
2375 0
2376 8
2377 7
2378 11
2379 15
2380 5
2381 12
2382 15
2383 7
2384 17
2385 9
2386 17
2387 11
2388 9
2389 10
2390 5
2391 5
2392 17
2393 1
2394 14
2395 9
2396 20
2397 1
2398 1
2399 0
2400 0
2401 17
2402 17
2403 9
2404 9
2405 10
2406 15
2407 1
2408 18
2409 17
2410 9
2411 25
2412 8
2413 17
2414 0
2415 9
2416 9
2417 8
2418 11
2419 16
2420 5
2421 0
2422 27
2423 11
2424 11
2425 24
2426 17
2427 15
2428 9
2429 2
2430 5
2431 0
2432 20
2433 24
2434 8
2435 0
2436 9
2437 4
2438 9
2439 2
2440 9
2441 18
2442 15
2443 17
2444 10
2445 9
2446 11
2447 21
2448 9
2449 17
2450 23
2451 11
2452 5
2453 17
2454 17
2455 9
2456 17
2457 23
2458 9
2459 11
2460 9
2461 16
2462 17
2463 2
2464 1
2465 8
2466 11
2467 21
2468 11
2469 16
2470 10
2471 9
2472 16
2473 13
2474 1
2475 1
2476 24
2477 14
2478 2
2479 8
2480 17
2481 4
2482 18
2483 9
2484 5
2485 10
2486 13
2487 16
2488 16
2489 16
2490 1
2491 13
2492 9
2493 14
2494 17
2495 8
2496 8
2497 24
2498 8
2499 9
2500 15
2501 8
2502 11
2503 16
2504 10
2505 16
2506 8
2507 8
2508 1
2509 16
2510 11
2511 11
2512 2
2513 16
2514 8
2515 8
2516 1
2517 1
2518 10
2519 15
2520 9
2521 16
2522 10
2523 7
2524 12
2525 9
2526 1
2527 26
2528 2
2529 9
2530 7
2531 16
2532 9
2533 2
2534 11
2535 16
2536 11
2537 16
2538 16
2539 1
2540 9
2541 15
2542 0
2543 18
2544 9
2545 11
2546 1
2547 11
2548 17
2549 15
2550 12
2551 1
2552 1
2553 9
2554 13
2555 18
2556 17
2557 16
2558 16
2559 4
2560 23
2561 9
2562 24
2563 21
2564 1
2565 13
2566 24
2567 11
2568 9
2569 10
2570 0
2571 8
2572 10
2573 23
2574 17
2575 24
2576 7
2577 14
2578 17
2579 17
2580 13
2581 11
2582 10
2583 23
2584 8
2585 9
2586 14
2587 23
2588 9
2589 16
2590 1
2591 16
2592 17
2593 4
2594 11
2595 8
2596 27
2597 17
2598 18
2599 0
2600 16
2601 13
2602 19
2603 1
2604 1
2605 17
2606 15
2607 17
2608 11
2609 11
2610 8
2611 1
2612 16
2613 10
2614 8
2615 19
2616 1
2617 6
2618 4
2619 5
2620 4
2621 8
2622 16
2623 11
2624 8
2625 1
2626 23
2627 17
2628 1
2629 1
2630 3
2631 11
2632 12
2633 9
2634 1
2635 9
2636 17
2637 16
2638 5
2639 11
2640 9
2641 16
2642 2
2643 13
2644 8
2645 12
2646 11
2647 9
2648 11
2649 8
2650 11
2651 12
2652 21
2653 15
2654 5
2655 19
2656 16
2657 9
2658 11
2659 5
2660 11
2661 17
2662 16
2663 16
2664 12
2665 11
2666 15
2667 9
2668 1
2669 1
2670 27
2671 8
2672 9
2673 9
2674 23
2675 11
2676 5
2677 1
2678 15
2679 9
2680 10
2681 16
2682 18
2683 13
2684 9
2685 5
2686 9
2687 8
2688 2
2689 15
2690 16
2691 8
2692 15
2693 9
2694 16
2695 5
2696 9
2697 25
2698 12
2699 1
2700 15
2701 2
2702 11
2703 11
2704 11
2705 16
2706 22
2707 3
2708 24
2709 15
2710 8
2711 11
2712 9
2713 9
2714 15
2715 27
2716 11
2717 23
2718 9
2719 9
2720 12
2721 18
2722 20
2723 13
2724 1
2725 26
2726 11
2727 13
2728 16
2729 11
2730 3
2731 22
2732 11
2733 11
2734 9
2735 6
2736 14
2737 8
2738 3
2739 11
2740 1
2741 8
2742 16
2743 1
2744 16
2745 1
2746 14
2747 0
2748 9
2749 12
2750 12
2751 16
2752 5
2753 12
2754 17
2755 6
2756 16
2757 3
2758 16
2759 8
2760 20
2761 14
2762 11
2763 1
2764 24
2765 20
2766 22
2767 18
2768 17
2769 17
2770 16
2771 11
2772 11
2773 9
2774 17
2775 1
2776 1
2777 13
2778 8
2779 8
2780 2
2781 11
2782 17
2783 11
2784 8
2785 20
2786 16
2787 13
2788 21
2789 16
2790 9
2791 15
2792 25
2793 16
2794 17
2795 16
2796 20
2797 18
2798 1
2799 11
2800 7
2801 13
2802 16
2803 16
2804 19
2805 10
2806 20
2807 10
2808 1
2809 18
2810 14
2811 6
2812 9
2813 13
2814 2
2815 11
2816 2
2817 10
2818 9
2819 9
2820 23
2821 9
2822 1
2823 11
2824 2
2825 7
2826 11
2827 16
2828 3
2829 16
2830 11
2831 17
2832 14
2833 26
2834 27
2835 18
2836 0
2837 9
2838 11
2839 17
2840 11
2841 16
2842 16
2843 9
2844 11
2845 11
2846 18
2847 7
2848 11
2849 11
2850 16
2851 5
2852 11
2853 11
2854 2
2855 10
2856 5
2857 11
2858 3
2859 8
2860 11
2861 9
2862 21
2863 8
2864 23
2865 17
2866 15
2867 9
2868 12
2869 9
2870 2
2871 14
2872 9
2873 18
2874 12
2875 26
2876 15
2877 9
2878 23
2879 0
2880 9
2881 20
2882 9
2883 1
2884 9
2885 17
2886 5
2887 7
2888 9
2889 22
2890 26
2891 5
2892 21
2893 4
2894 1
2895 8
2896 2
2897 4
2898 9
2899 11
2900 11
2901 9
2902 1
2903 10
2904 17
2905 21
2906 8
2907 11
2908 13
2909 1
2910 12
2911 27
2912 25
2913 8
2914 6
2915 16
2916 11
2917 18
2918 16
2919 9
2920 8
2921 1
2922 1
2923 9
2924 23
2925 12
2926 10
2927 13
2928 1
2929 1
2930 27
2931 17
2932 1
2933 15
2934 9
2935 11
2936 11
2937 9
2938 16
2939 2
2940 21
2941 14
2942 23
2943 11
2944 23
2945 17
2946 11
2947 10
2948 8
2949 1
2950 22
2951 16
2952 16
2953 9
2954 16
2955 0
2956 11
2957 17
2958 10
2959 11
2960 22
2961 9
2962 17
2963 1
2964 16
2965 21
2966 18
2967 9
2968 13
2969 17
2970 16
2971 9
2972 0
2973 8
2974 1
2975 9
2976 9
2977 11
2978 1
2979 17
2980 1
2981 3
2982 18
2983 1
2984 15
2985 9
2986 8
2987 16
2988 22
2989 16
2990 11
2991 9
2992 11
2993 16
2994 27
2995 1
2996 24
2997 9
2998 9
2999 9
3000 21
3001 10
3002 1
3003 17
3004 17
3005 18
3006 8
3007 16
3008 11
3009 1
3010 17
3011 17
3012 8
3013 23
3014 17
3015 9
3016 1
3017 26
3018 17
3019 9
3020 8
3021 1
3022 2
3023 4
3024 16
3025 11
3026 17
3027 15
3028 10
3029 11
3030 4
3031 8
3032 13
3033 11
3034 23
3035 22
3036 17
3037 18
3038 8
3039 11
3040 7
3041 10
3042 23
3043 18
3044 12
3045 8
3046 6
3047 17
3048 16
3049 9
3050 14
3051 26
3052 6
3053 18
3054 9
3055 10
3056 13
3057 11
3058 1
3059 4
3060 11
3061 1
3062 8
3063 4
3064 17
3065 9
3066 17
3067 8
3068 1
3069 19
3070 9
3071 25
3072 16
3073 22
3074 23
3075 11
3076 11
3077 20
3078 16
3079 14
3080 24
3081 16
3082 8
3083 12
3084 1
3085 11
3086 8
3087 0
3088 11
3089 16
3090 17
3091 8
3092 1
3093 17
3094 8
3095 8
3096 2
3097 18
3098 9
3099 15
3100 23
3101 1
3102 9
3103 5
3104 1
3105 21
3106 8
3107 17
3108 10
3109 16
3110 23
3111 16
3112 12
3113 10
3114 12
3115 9
3116 11
3117 11
3118 9
3119 9
3120 1
3121 18
3122 11
3123 9
3124 9
3125 21
3126 9
3127 11
3128 17
3129 12
3130 2
3131 8
3132 10
3133 10
3134 8
3135 16
3136 16
3137 16
3138 13
3139 9
3140 5
3141 6
3142 4
3143 9
3144 16
3145 8
3146 5
3147 11
3148 5
3149 10
3150 8
3151 16
3152 1
3153 14
3154 0
3155 10
3156 5
3157 18
3158 0
3159 1
3160 11
3161 9
3162 11
3163 16
3164 16
3165 9
3166 22
3167 10
3168 17
3169 0
3170 4
3171 1
3172 20
3173 18
3174 24
3175 0
3176 21
3177 15
3178 26
3179 14
3180 9
3181 1
3182 7
3183 17
3184 16
3185 11
3186 27
3187 17
3188 11
3189 23
3190 1
3191 16
3192 11
3193 21
3194 16
3195 10
3196 9
3197 10
3198 10
3199 1
3200 27
3201 16
3202 17
3203 9
3204 14
3205 7
3206 9
3207 1
3208 13
3209 9
3210 16
3211 8
3212 9
3213 8
3214 11
3215 9
3216 1
3217 18
3218 1
3219 9
3220 1
3221 2
3222 2
3223 17
3224 0
3225 5
3226 2
3227 9
3228 9
3229 1
3230 16
3231 9
3232 4
3233 12
3234 8
3235 9
3236 16
3237 8
3238 16
3239 16
3240 9
3241 13
3242 11
3243 9
3244 16
3245 2
3246 4
3247 16
3248 16
3249 16
3250 7
3251 11
3252 11
3253 12
3254 21
3255 17
3256 10
3257 8
3258 15
3259 9
3260 5
3261 15
3262 23
3263 8
3264 16
3265 0
3266 16
3267 16
3268 9
3269 16
3270 7
3271 18
3272 9
3273 13
3274 11
3275 16
3276 12
3277 24
3278 23
3279 11
3280 9
3281 2
3282 19
3283 24
3284 25
3285 13
3286 8
3287 16
3288 7
3289 10
3290 8
3291 10
3292 13
3293 16
3294 1
3295 16
3296 9
3297 1
3298 11
3299 18
3300 12
3301 1
3302 17
3303 1
3304 10
3305 6
3306 18
3307 24
3308 17
3309 8
3310 16
3311 8
3312 4
3313 15
3314 8
3315 8
3316 3
3317 1
3318 9
3319 16
3320 14
3321 4
3322 8
3323 16
3324 17
3325 7
3326 8
3327 18
3328 16
3329 1
3330 18
3331 26
3332 12
3333 20
3334 23
3335 11
3336 17
3337 9
3338 7
3339 17
3340 14
3341 16
3342 21
3343 25
3344 8
3345 21
3346 11
3347 2
3348 11
3349 1
3350 1
3351 9
3352 2
3353 16
3354 11
3355 11
3356 1
3357 9
3358 1
3359 11
3360 7
3361 9
3362 24
3363 11
3364 17
3365 8
3366 8
3367 16
3368 11
3369 8
3370 17
3371 9
3372 8
3373 17
3374 12
3375 0
3376 1
3377 16
3378 22
3379 7
3380 9
3381 2
3382 7
3383 3
3384 2
3385 7
3386 1
3387 6
3388 6
3389 6
3390 16
3391 16
3392 9
3393 9
3394 1
3395 15
3396 7
3397 10
3398 10
3399 8
3400 7
3401 11
3402 11
3403 16
3404 24
3405 1
3406 11
3407 16
3408 17
3409 12
3410 21
3411 16
3412 13
3413 13
3414 1
3415 4
3416 18
3417 23
3418 16
3419 8
3420 17
3421 16
3422 11
3423 2
3424 5
3425 8
3426 25
3427 18
3428 20
3429 18
3430 16
3431 12
3432 8
3433 15
3434 16
3435 8
3436 11
3437 19
3438 1
3439 11
3440 10
3441 23
3442 17
3443 9
3444 15
3445 8
3446 16
3447 13
3448 15
3449 11
3450 1
3451 16
3452 10
3453 11
3454 13
3455 9
3456 3
3457 21
3458 24
3459 16
3460 7
3461 4
3462 17
3463 11
3464 9
3465 16
3466 10
3467 9
3468 2
3469 8
3470 9
3471 1
3472 13
3473 6
3474 17
3475 11
3476 20
3477 18
3478 17
3479 11
3480 1
3481 9
3482 13
3483 9
3484 4
3485 20
3486 1
3487 9
3488 13
3489 5
3490 9
3491 9
3492 17
3493 11
3494 19
3495 18
3496 8
3497 11
3498 12
3499 0
3500 9
3501 8
3502 16
3503 1
3504 26
3505 11
3506 17
3507 23
3508 15
3509 27
3510 10
3511 15
3512 1
3513 2
3514 11
3515 8
3516 11
3517 24
3518 8
3519 18
3520 8
3521 5
3522 17
3523 1
3524 15
3525 16
3526 1
3527 16
3528 16
3529 9
3530 9
3531 1
3532 10
3533 1
3534 11
3535 9
3536 1
3537 1
3538 11
3539 9
3540 4
3541 8
3542 17
3543 15
3544 8
3545 13
3546 13
3547 0
3548 10
3549 9
3550 15
3551 26
3552 4
3553 1
3554 12
3555 1
3556 17
3557 9
3558 1
3559 9
3560 21
3561 1
3562 25
3563 23
3564 5
3565 1
3566 9
3567 8
3568 16
3569 8
3570 2
3571 24
3572 1
3573 0
3574 5
3575 16
3576 4
3577 9
3578 5
3579 5
3580 1
3581 2
3582 9
3583 17
3584 14
3585 2
3586 11
3587 12
3588 11
3589 16
3590 12
3591 9
3592 1
3593 16
3594 15
3595 17
3596 18
3597 11
3598 16
3599 16
3600 15
3601 14
3602 12
3603 8
3604 11
3605 1
3606 17
3607 9
3608 11
3609 16
3610 22
3611 11
3612 0
3613 12
3614 9
3615 1
3616 4
3617 16
3618 9
3619 1
3620 17
3621 10
3622 12
3623 7
3624 17
3625 2
3626 11
3627 1
3628 20
3629 2
3630 9
3631 11
3632 5
3633 15
3634 26
3635 17
3636 16
3637 1
3638 17
3639 1
3640 19
3641 1
3642 11
3643 16
3644 9
3645 9
3646 1
3647 16
3648 4
3649 3
3650 13
3651 9
3652 14
3653 9
3654 10
3655 11
3656 8
3657 16
3658 16
3659 22
3660 9
3661 4
3662 4
3663 7
3664 17
3665 10
3666 8
3667 23
3668 1
3669 6
3670 2
3671 10
3672 21
3673 7
3674 4
3675 11
3676 8
3677 9
3678 13
3679 2
3680 8
3681 17
3682 1
3683 9
3684 9
3685 13
3686 3
3687 13
3688 22
3689 9
3690 15
3691 9
3692 24
3693 13
3694 7
3695 10
3696 8
3697 26
3698 1
3699 5
3700 10
3701 5
3702 10
3703 7
3704 0
3705 1
3706 18
3707 1
3708 10
3709 9
3710 11
3711 12
3712 16
3713 10
3714 2
3715 9
3716 13
3717 1
3718 0
3719 1
3720 19
3721 12
3722 11
3723 11
3724 0
3725 0
3726 10
3727 9
3728 11
3729 1
3730 12
3731 12
3732 11
3733 1
3734 11
3735 8
3736 17
3737 5
3738 20
3739 11
3740 15
3741 11
3742 1
3743 21
3744 10
3745 7
3746 9
3747 1
3748 23
3749 1
3750 16
3751 24
3752 1
3753 17
3754 9
3755 14
3756 17
3757 16
3758 16
3759 10
3760 7
3761 17
3762 6
3763 24
3764 1
3765 9
3766 8
3767 15
3768 0
3769 10
3770 1
3771 0
3772 9
3773 10
3774 16
3775 1
3776 9
3777 2
3778 10
3779 16
3780 2
3781 17
3782 9
3783 1
3784 8
3785 1
3786 18
3787 9
3788 9
3789 11
3790 14
3791 11
3792 9
3793 9
3794 9
3795 1
3796 17
3797 13
3798 3
3799 9
3800 9
3801 15
3802 17
3803 15
3804 17
3805 3
3806 15
3807 1
3808 8
3809 17
3810 1
3811 11
3812 13
3813 1
3814 17
3815 11
3816 12
3817 9
3818 24
3819 1
3820 9
3821 5
3822 17
3823 11
3824 7
3825 1
3826 1
3827 11
3828 18
3829 2
3830 16
3831 9
3832 9
3833 16
3834 9
3835 5
3836 13
3837 11
3838 1
3839 9
3840 15
3841 9
3842 2
3843 21
3844 12
3845 5
3846 5
3847 11
3848 11
3849 16
3850 5
3851 2
3852 11
3853 10
3854 9
3855 17
3856 11
3857 9
3858 1
3859 0
3860 12
3861 17
3862 14
3863 1
3864 9
3865 20
3866 16
3867 18
3868 6
3869 15
3870 10
3871 9
3872 11
3873 23
3874 18
3875 1
3876 18
3877 16
3878 12
3879 12
3880 2
3881 16
3882 11
3883 1
3884 0
3885 8
3886 5
3887 2
3888 9
3889 12
3890 17
3891 13
3892 11
3893 9
3894 9
3895 11
3896 11
3897 8
3898 13
3899 8
3900 11
3901 16
3902 9
3903 9
3904 1
3905 5
3906 17
3907 17
3908 16
3909 1
3910 8
3911 12
3912 24
3913 3
3914 11
3915 7
3916 9
3917 8
3918 17
3919 7
3920 15
3921 24
3922 11
3923 15
3924 8
3925 1
3926 23
3927 8
3928 6
3929 15
3930 11
3931 0
3932 23
3933 11
3934 11
3935 8
3936 5
3937 12
3938 16
3939 16
3940 16
3941 25
3942 9
3943 25
3944 12
3945 16
3946 12
3947 3
3948 17
3949 16
3950 11
3951 5
3952 26
3953 16
3954 11
3955 23
3956 2
3957 16
3958 17
3959 13
3960 5
3961 17
3962 17
3963 8
3964 8
3965 1
3966 17
3967 8
3968 2
3969 11
3970 3
3971 6
3972 7
3973 5
3974 11
3975 3
3976 12
3977 9
3978 8
3979 11
3980 9
3981 8
3982 21
3983 11
3984 11
3985 1
3986 11
3987 11
3988 11
3989 9
3990 10
3991 16
3992 9
3993 10
3994 1
3995 3
3996 9
3997 8
3998 9
3999 13
4000 9
4001 9
4002 1
4003 9
4004 8
4005 24
4006 16
4007 1
4008 1
4009 17
4010 11
4011 19
4012 11
4013 16
4014 16
4015 20
4016 1
4017 10
4018 16
4019 11
4020 1
4021 11
4022 16
4023 16
4024 11
4025 3
4026 5
4027 17
4028 23
4029 23
4030 1
4031 2
4032 2
4033 11
4034 18
4035 4
4036 24
4037 16
4038 13
4039 5
4040 7
4041 16
4042 15
4043 0
4044 24
4045 11
4046 16
4047 1
4048 16
4049 11
4050 1
4051 1
4052 11
4053 5
4054 9
4055 11
4056 4
4057 10
4058 27
4059 11
4060 16
4061 17
4062 18
4063 1
4064 21
4065 2
4066 11
4067 9
4068 1
4069 10
4070 1
4071 1
4072 17
4073 11
4074 2
4075 12
4076 20
4077 1
4078 23
4079 18
4080 1
4081 18
4082 21
4083 14
4084 8
4085 1
4086 11
4087 2
4088 23
4089 10
4090 7
4091 11
4092 9
4093 9
4094 16
4095 2
4096 1
4097 8
4098 11
4099 17
4100 9
4101 1
4102 16
4103 16
4104 13
4105 12
4106 16
4107 17
4108 16
4109 11
4110 12
4111 9
4112 1
4113 2
4114 18
4115 26
4116 17
4117 9
4118 23
4119 9
4120 5
4121 15
4122 1
4123 11
4124 8
4125 1
4126 16
4127 5
4128 10
4129 16
4130 17
4131 11
4132 9
4133 18
4134 23
4135 16
4136 1
4137 9
4138 4
4139 1
4140 16
4141 16
4142 20
4143 1
4144 11
4145 1
4146 18
4147 0
4148 1
4149 9
4150 8
4151 16
4152 11
4153 4
4154 9
4155 11
4156 1
4157 16
4158 21
4159 8
4160 18
4161 17
4162 5
4163 24
4164 11
4165 18
4166 13
4167 2
4168 1
4169 4
4170 9
4171 13
4172 11
4173 13
4174 9
4175 17
4176 11
4177 11
4178 17
4179 10
4180 11
4181 16
4182 16
4183 11
4184 8
4185 17
4186 16
4187 0
4188 0
4189 5
4190 9
4191 1
4192 15
4193 1
4194 7
4195 10
4196 16
4197 17
4198 5
4199 11
4200 9
4201 10
4202 16
4203 22
4204 17
4205 5
4206 9
4207 20
4208 15
4209 7
4210 17
4211 12
4212 14
4213 13
4214 1
4215 17
4216 13
4217 5
4218 0
4219 25
4220 17
4221 17
4222 13
4223 20
4224 13
4225 16
4226 3
4227 16
4228 9
4229 17
4230 11
4231 11
4232 0
4233 9
4234 17
4235 14
4236 1
4237 0
4238 7
4239 16
4240 1
4241 9
4242 18
4243 8
4244 9
4245 21
4246 7
4247 11
4248 14
4249 4
4250 8
4251 16
4252 16
4253 19
4254 27
4255 1
4256 19
4257 1
4258 13
4259 1
4260 11
4261 9
4262 11
4263 11
4264 9
4265 9
4266 2
4267 17
4268 8
4269 6
4270 20
4271 11
4272 1
4273 24
4274 1
4275 11
4276 13
4277 11
4278 16
4279 7
4280 7
4281 17
4282 16
4283 12
4284 9
4285 17
4286 6
4287 13
4288 8
4289 8
4290 2
4291 1
4292 20
4293 13
4294 11
4295 23
4296 1
4297 16
4298 8
4299 2
4300 1
4301 12
4302 9
4303 1
4304 16
4305 7
4306 13
4307 2
4308 16
4309 21
4310 8
4311 7
4312 14
4313 9
4314 0
4315 14
4316 20
4317 11
4318 1
4319 12
4320 11
4321 0
4322 11
4323 18
4324 2
4325 3
4326 8
4327 2
4328 9
4329 9
4330 3
4331 11
4332 22
4333 2
4334 9
4335 9
4336 1
4337 18
4338 15
4339 16
4340 17
4341 9
4342 8
4343 19
4344 16
4345 1
4346 5
4347 10
4348 1
4349 1
4350 24
4351 11
4352 1
4353 1
4354 23
4355 13
4356 17
4357 27
4358 16
4359 16
4360 8
4361 9
4362 9
4363 16
4364 3
4365 15
4366 2
4367 16
4368 0
4369 23
4370 17
4371 20
4372 9
4373 13
4374 13
4375 11
4376 11
4377 1
4378 11
4379 1
4380 17
4381 9
4382 8
4383 9
4384 13
4385 11
4386 15
4387 10
4388 27
4389 18
4390 12
4391 3
4392 5
4393 11
4394 4
4395 10
4396 11
4397 13
4398 9
4399 19
4400 9
4401 12
4402 7
4403 17
4404 1
4405 11
4406 9
4407 11
4408 1
4409 24
4410 8
4411 1
4412 11
4413 4
4414 16
4415 2
4416 17
4417 12
4418 9
4419 0
4420 5
4421 17
4422 17
4423 11
4424 3
4425 16
4426 11
4427 13
4428 9
4429 1
4430 17
4431 9
4432 11
4433 9
4434 11
4435 7
4436 4
4437 8
4438 1
4439 9
4440 17
4441 9
4442 16
4443 16
4444 9
4445 11
4446 24
4447 21
4448 11
4449 24
4450 12
4451 23
4452 12
4453 11
4454 9
4455 18
4456 16
4457 9
4458 16
4459 9
4460 8
4461 16
4462 9
4463 2
4464 3
4465 24
4466 9
4467 13
4468 9
4469 24
4470 9
4471 11
4472 9
4473 2
4474 23
4475 5
4476 1
4477 11
4478 2
4479 17
4480 11
4481 18
4482 11
4483 5
4484 11
4485 9
4486 17
4487 1
4488 16
4489 9
4490 11
4491 11
4492 3
4493 6
4494 11
4495 25
4496 21
4497 13
4498 1
4499 11
4500 9
4501 11
4502 9
4503 16
4504 16
4505 7
4506 20
4507 16
4508 10
4509 16
4510 6
4511 17
4512 0
4513 11
4514 22
4515 9
4516 1
4517 11
4518 4
4519 17
4520 10
4521 0
4522 16
4523 16
4524 16
4525 17
4526 11
4527 6
4528 4
4529 3
4530 3
4531 14
4532 11
4533 1
4534 16
4535 21
4536 9
4537 16
4538 8
4539 11
4540 1
4541 9
4542 11
4543 1
4544 1
4545 16
4546 12
4547 1
4548 2
4549 11
4550 11
4551 25
4552 16
4553 10
4554 9
4555 25
4556 9
4557 16
4558 1
4559 16
4560 2
4561 9
4562 8
4563 8
4564 9
4565 17
4566 1
4567 16
4568 1
4569 15
4570 0
4571 18
4572 20
4573 11
4574 11
4575 3
4576 16
4577 17
4578 9
4579 8
4580 18
4581 9
4582 3
4583 9
4584 3
4585 8
4586 8
4587 11
4588 25
4589 7
4590 0
4591 11
4592 11
4593 13
4594 9
4595 16
4596 6
4597 1
4598 5
4599 16
4600 1
4601 17
4602 2
4603 5
4604 24
4605 16
4606 1
4607 2
4608 9
4609 9
4610 13
4611 9
4612 13
4613 11
4614 1
4615 15
4616 24
4617 8
4618 9
4619 1
4620 1
4621 1
4622 9
4623 13
4624 17
4625 8
4626 17
4627 1
4628 1
4629 16
4630 8
4631 8
4632 11
4633 16
4634 18
4635 9
4636 11
4637 8
4638 9
4639 3
4640 1
4641 8
4642 14
4643 13
4644 9
4645 12
4646 9
4647 8
4648 14
4649 23
4650 3
4651 7
4652 17
4653 11
4654 3
4655 11
4656 5
4657 11
4658 11
4659 11
4660 12
4661 13
4662 11
4663 16
4664 0
4665 2
4666 9
4667 17
4668 13
4669 23
4670 1
4671 16
4672 1
4673 4
4674 11
4675 11
4676 10
4677 8
4678 14
4679 11
4680 16
4681 13
4682 5
4683 13
4684 16
4685 1
4686 1
4687 16
4688 9
4689 17
4690 23
4691 15
4692 11
4693 9
4694 23
4695 13
4696 2
4697 1
4698 9
4699 18
4700 3
4701 9
4702 15
4703 5
4704 17
4705 9
4706 9
4707 8
4708 9
4709 22
4710 16
4711 18
4712 2
4713 17
4714 16
4715 9
4716 17
4717 8
4718 17
4719 1
4720 18
4721 19
4722 13
4723 11
4724 17
4725 1
4726 16
4727 16
4728 15
4729 8
4730 17
4731 2
4732 11
4733 11
4734 20
4735 9
4736 12
4737 24
4738 16
4739 8
4740 18
4741 3
4742 13
4743 11
4744 9
4745 16
4746 17
4747 13
4748 11
4749 8
4750 1
4751 8
4752 2
4753 25
4754 8
4755 11
4756 11
4757 13
4758 16
4759 13
4760 14
4761 13
4762 19
4763 4
4764 12
4765 16
4766 11
4767 9
4768 2
4769 1
4770 2
4771 9
4772 11
4773 5
4774 9
4775 13
4776 21
4777 9
4778 0
4779 4
4780 9
4781 8
4782 5
4783 17
4784 16
4785 0
4786 9
4787 13
4788 7
4789 8
4790 16
4791 9
4792 15
4793 3
4794 11
4795 1
4796 18
4797 8
4798 5
4799 16
4800 6
4801 9
4802 2
4803 1
4804 2
4805 14
4806 13
4807 18
4808 9
4809 17
4810 11
4811 1
4812 13
4813 5
4814 11
4815 16
4816 18
4817 9
4818 11
4819 13
4820 17
4821 8
4822 14
4823 9
4824 9
4825 3
4826 17
4827 13
4828 9
4829 1
4830 16
4831 10
4832 13
4833 8
4834 1
4835 10
4836 24
4837 9
4838 15
4839 8
4840 1
4841 1
4842 11
4843 9
4844 9
4845 17
4846 16
4847 14
4848 16
4849 23
4850 1
4851 1
4852 15
4853 1
4854 12
4855 21
4856 10
4857 0
4858 13
4859 16
4860 12
4861 10
4862 9
4863 9
4864 25
4865 9
4866 1
4867 1
4868 2
4869 17
4870 23
4871 16
4872 24
4873 9
4874 16
4875 1
4876 15
4877 13
4878 11
4879 2
4880 13
4881 24
4882 8
4883 2
4884 9
4885 12
4886 2
4887 9
4888 8
4889 11
4890 10
4891 17
4892 1
4893 8
4894 14
4895 9
4896 9
4897 7
4898 17
4899 10
4900 14
4901 8
4902 4
4903 11
4904 9
4905 9
4906 16
4907 7
4908 4
4909 16
4910 9
4911 16
4912 9
4913 16
4914 17
4915 7
4916 18
4917 9
4918 8
4919 1
4920 17
4921 5
4922 1
4923 16
4924 5
4925 4
4926 0
4927 7
4928 13
4929 9
4930 9
4931 4
4932 16
4933 10
4934 16
4935 16
4936 7
4937 16
4938 10
4939 20
4940 2
4941 21
4942 9
4943 11
4944 9
4945 4
4946 16
4947 16
4948 7
4949 17
4950 9
4951 25
4952 24
4953 10
4954 10
4955 11
4956 16
4957 3
4958 17
4959 13
4960 11
4961 14
4962 13
4963 9
4964 21
4965 23
4966 18
4967 14
4968 9
4969 13
4970 17
4971 11
4972 9
4973 21
4974 9
4975 11
4976 16
4977 1
4978 23
4979 17
4980 9
4981 11
4982 1
4983 11
4984 23
4985 11
4986 8
4987 9
4988 24
4989 11
4990 1
4991 8
4992 23
4993 17
4994 11
4995 8
4996 9
4997 1
4998 8
4999 9
5000 1
5001 9
5002 9
5003 1
5004 14
5005 9
5006 17
5007 4
5008 0
5009 18
5010 9
5011 4
5012 10
5013 5
5014 1
5015 15
5016 2
5017 22
5018 11
5019 26
5020 1
5021 27
5022 1
5023 2
5024 13
5025 9
5026 11
5027 1
5028 2
5029 4
5030 15
5031 18
5032 9
5033 16
5034 21
5035 13
5036 21
5037 24
5038 9
5039 11
5040 16
5041 21
5042 10
5043 13
5044 18
5045 19
5046 8
5047 11
5048 18
5049 17
5050 9
5051 14
5052 16
5053 24
5054 7
5055 11
5056 14
5057 4
5058 24
5059 18
5060 9
5061 13
5062 16
5063 3
5064 15
5065 16
5066 8
5067 11
5068 2
5069 22
5070 11
5071 8
5072 16
5073 9
5074 12
5075 7
5076 16
5077 8
5078 23
5079 4
5080 22
5081 9
5082 9
5083 9
5084 9
5085 13
5086 11
5087 11
5088 16
5089 16
5090 1
5091 15
5092 8
5093 11
5094 13
5095 17
5096 9
5097 14
5098 3
5099 16
5100 9
5101 18
5102 8
5103 11
5104 1
5105 17
5106 1
5107 12
5108 16
5109 1
5110 25
5111 9
5112 15
5113 8
5114 13
5115 1
5116 16
5117 1
5118 18
5119 11
5120 2
5121 20
5122 1
5123 2
5124 17
5125 1
5126 19
5127 9
5128 15
5129 8
5130 4
5131 4
5132 10
5133 21
5134 25
5135 17
5136 13
5137 5
5138 17
5139 17
5140 1
5141 11
5142 9
5143 9
5144 11
5145 11
5146 13
5147 11
5148 9
5149 12
5150 12
5151 9
5152 3
5153 18
5154 24
5155 9
5156 11
5157 11
5158 1
5159 11
5160 13
5161 15
5162 17
5163 1
5164 9
5165 1
5166 17
5167 16
5168 16
5169 2
5170 17
5171 19
5172 9
5173 10
5174 20
5175 26
5176 22
5177 17
5178 8
5179 0
5180 17
5181 11
5182 2
5183 1
5184 17
5185 7
5186 23
5187 7
5188 9
5189 18
5190 27
5191 25
5192 12
5193 11
5194 1
5195 16
5196 16
5197 11
5198 20
5199 11
5200 9
5201 19
5202 9
5203 11
5204 16
5205 12
5206 4
5207 1
5208 13
5209 17
5210 7
5211 13
5212 7
5213 8
5214 11
5215 8
5216 16
5217 11
5218 17
5219 11
5220 1
5221 9
5222 23
5223 23
5224 11
5225 16
5226 12
5227 3
5228 1
5229 7
5230 9
5231 15
5232 11
5233 1
5234 1
5235 18
5236 7
5237 9
5238 21
5239 8
5240 2
5241 9
5242 9
5243 13
5244 10
5245 13
5246 13
5247 9
5248 16
5249 12
5250 17
5251 10
5252 24
5253 9
5254 11
5255 18
5256 3
5257 11
5258 16
5259 0
5260 1
5261 10
5262 17
5263 23
5264 24
5265 20
5266 9
5267 9
5268 16
5269 18
5270 11
5271 10
5272 21
5273 10
5274 9
5275 12
5276 25
5277 8
5278 2
5279 9
5280 21
5281 15
5282 9
5283 9
5284 9
5285 1
5286 23
5287 9
5288 11
5289 11
5290 11
5291 13
5292 1
5293 8
5294 11
5295 2
5296 1
5297 11
5298 5
5299 1
5300 0
5301 1
5302 9
5303 13
5304 1
5305 2
5306 11
5307 17
5308 23
5309 17
5310 13
5311 9
5312 1
5313 1
5314 1
5315 12
5316 17
5317 8
5318 9
5319 10
5320 10
5321 2
5322 21
5323 8
5324 7
5325 9
5326 3
5327 11
5328 17
5329 27
5330 12
5331 23
5332 17
5333 1
5334 16
5335 17
5336 1
5337 8
5338 1
5339 1
5340 0
5341 0
5342 24
5343 13
5344 16
5345 11
5346 16
5347 9
5348 11
5349 8
5350 18
5351 11
5352 15
5353 7
5354 16
5355 0
5356 8
5357 23
5358 17
5359 10
5360 18
5361 11
5362 9
5363 11
5364 10
5365 17
5366 16
5367 8
5368 19
5369 17
5370 11
5371 8
5372 6
5373 9
5374 14
5375 11
5376 5
5377 16
5378 0
5379 9
5380 21
5381 1
5382 10
5383 5
5384 5
5385 11
5386 11
5387 4
5388 4
5389 16
5390 9
5391 16
5392 11
5393 12
5394 8
5395 17
5396 1
5397 13
5398 0
5399 23
5400 9
5401 11
5402 2
5403 10
5404 16
5405 9
5406 11
5407 1
5408 1
5409 20
5410 16
5411 5
5412 11
5413 11
5414 13
5415 13
5416 1
5417 11
5418 11
5419 5
5420 9
5421 11
5422 17
5423 0
5424 10
5425 10
5426 24
5427 16
5428 7
5429 7
5430 16
5431 8
5432 1
5433 12
5434 11
5435 11
5436 9
5437 11
5438 17
5439 16
5440 11
5441 9
5442 1
5443 11
5444 11
5445 7
5446 15
5447 4
5448 9
5449 11
5450 10
5451 11
5452 15
5453 16
5454 9
5455 11
5456 9
5457 8
5458 16
5459 11
5460 11
5461 9
5462 22
5463 9
5464 11
5465 4
5466 17
5467 14
5468 9
5469 8
5470 11
5471 1
5472 9
5473 5
5474 17
5475 11
5476 10
5477 17
5478 9
5479 2
5480 18
5481 11
5482 10
5483 11
5484 11
5485 11
5486 7
5487 15
5488 4
5489 10
5490 2
5491 18
5492 16
5493 9
5494 16
5495 21
5496 1
5497 9
5498 11
5499 17
5500 8
5501 10
5502 20
5503 9
5504 7
5505 10
5506 1
5507 16
5508 9
5509 17
5510 8
5511 21
5512 21
5513 15
5514 1
5515 9
5516 19
5517 16
5518 19
5519 8
5520 11
5521 5
5522 8
5523 11
5524 17
5525 9
5526 11
5527 16
5528 7
5529 11
5530 27
5531 16
5532 16
5533 13
5534 6
5535 15
5536 0
5537 16
5538 8
5539 9
5540 17
5541 11
5542 6
5543 11
5544 16
5545 21
5546 9
5547 17
5548 15
5549 5
5550 9
5551 13
5552 17
5553 27
5554 16
5555 9
5556 17
5557 18
5558 1
5559 16
5560 16
5561 19
5562 0
5563 11
5564 10
5565 24
5566 9
5567 17
5568 16
5569 9
5570 11
5571 11
5572 8
5573 25
5574 21
5575 9
5576 8
5577 20
5578 16
5579 16
5580 27
5581 10
5582 11
5583 12
5584 8
5585 5
5586 0
5587 15
5588 17
5589 7
5590 1
5591 1
5592 20
5593 1
5594 4
5595 16
5596 8
5597 13
5598 16
5599 13
5600 9
5601 9
5602 11
5603 18
5604 17
5605 17
5606 4
5607 18
5608 18
5609 0
5610 8
5611 23
5612 17
5613 8
5614 1
5615 0
5616 1
5617 16
5618 8
5619 9
5620 7
5621 15
5622 9
5623 4
5624 25
5625 9
5626 2
5627 16
5628 8
5629 13
5630 15
5631 16
5632 5
5633 16
5634 25
5635 11
5636 18
5637 9
5638 0
5639 10
5640 8
5641 3
5642 10
5643 9
5644 10
5645 2
5646 9
5647 4
5648 9
5649 9
5650 2
5651 16
5652 9
5653 23
5654 11
5655 11
5656 17
5657 13
5658 27
5659 2
5660 9
5661 23
5662 24
5663 1
5664 0
5665 7
5666 13
5667 13
5668 11
5669 7
5670 1
5671 12
5672 16
5673 7
5674 18
5675 25
5676 16
5677 16
5678 10
5679 8
5680 23
5681 10
5682 11
5683 11
5684 11
5685 0
5686 16
5687 16
5688 2
5689 0
5690 15
5691 12
5692 8
5693 8
5694 12
5695 3
5696 2
5697 16
5698 24
5699 9
5700 11
5701 17
5702 9
5703 9
5704 1
5705 22
5706 11
5707 8
5708 11
5709 1
5710 10
5711 1
5712 11
5713 11
5714 12
5715 8
5716 7
5717 16
5718 18
5719 0
5720 4
5721 1
5722 16
5723 8
5724 7
5725 13
5726 21
5727 3
5728 16
5729 13
5730 1
5731 16
5732 24
5733 11
5734 16
5735 4
5736 7
5737 3
5738 8
5739 9
5740 8
5741 11
5742 10
5743 13
5744 17
5745 16
5746 1
5747 10
5748 7
5749 9
5750 12
5751 13
5752 7
5753 11
5754 23
5755 3
5756 3
5757 1
5758 18
5759 10
5760 9
5761 16
5762 1
5763 16
5764 9
5765 23
5766 17
5767 16
5768 16
5769 6
5770 8
5771 20
5772 20
5773 1
5774 11
5775 11
5776 11
5777 11
5778 17
5779 23
5780 5
5781 11
5782 11
5783 11
5784 21
5785 1
5786 13
5787 5
5788 9
5789 4
5790 8
5791 8
5792 1
5793 9
5794 0
5795 16
5796 17
5797 4
5798 1
5799 1
5800 12
5801 0
5802 5
5803 8
5804 16
5805 11
5806 16
5807 11
5808 1
5809 5
5810 9
5811 18
5812 8
5813 5
5814 11
5815 11
5816 2
5817 23
5818 11
5819 9
5820 9
5821 15
5822 9
5823 18
5824 16
5825 9
5826 5
5827 15
5828 11
5829 25
5830 16
5831 16
5832 2
5833 11
5834 10
5835 11
5836 11
5837 2
5838 9
5839 22
5840 16
5841 16
5842 13
5843 9
5844 7
5845 18
5846 23
5847 16
5848 15
5849 8
5850 13
5851 11
5852 16
5853 0
5854 4
5855 16
5856 10
5857 15
5858 1
5859 1
5860 11
5861 5
5862 22
5863 11
5864 3
5865 14
5866 9
5867 1
5868 9
5869 18
5870 16
5871 5
5872 1
5873 0
5874 1
5875 11
5876 22
5877 5
5878 8
5879 13
5880 11
5881 11
5882 17
5883 1
5884 11
5885 9
5886 9
5887 0
5888 27
5889 11
5890 9
5891 9
5892 16
5893 1
5894 5
5895 2
5896 10
5897 24
5898 11
5899 17
5900 7
5901 22
5902 8
5903 11
5904 4
5905 17
5906 18
5907 10
5908 15
5909 8
5910 9
5911 15
5912 1
5913 11
5914 1
5915 3
5916 17
5917 16
5918 1
5919 10
5920 1
5921 9
5922 18
5923 16
5924 9
5925 17
5926 17
5927 4
5928 9
5929 0
5930 1
5931 20
5932 11
5933 17
5934 17
5935 7
5936 11
5937 1
5938 16
5939 8
5940 9
5941 1
5942 1
5943 16
5944 1
5945 9
5946 22
5947 1
5948 4
5949 9
5950 9
5951 10
5952 4
5953 13
5954 23
5955 17
5956 17
5957 9
5958 10
5959 11
5960 11
5961 14
5962 8
5963 17
5964 5
5965 18
5966 14
5967 11
5968 16
5969 10
5970 19
5971 9
5972 25
5973 17
5974 8
5975 4
5976 9
5977 1
5978 11
5979 5
5980 9
5981 8
5982 16
5983 1
5984 16
5985 17
5986 11
5987 7
5988 13
5989 2
5990 11
5991 20
5992 9
5993 16
5994 9
5995 16
5996 11
5997 3
5998 16
5999 8
6000 21
6001 16
6002 11
6003 10
6004 13
6005 11
6006 12
6007 11
6008 15
6009 2
6010 13
6011 17
6012 1
6013 16
6014 18
6015 11
6016 24
6017 26
6018 9
6019 24
6020 14
6021 0
6022 26
6023 1
6024 11
6025 1
6026 8
6027 13
6028 15
6029 11
6030 17
6031 20
6032 16
6033 9
6034 11
6035 16
6036 9
6037 18
6038 11
6039 11
6040 11
6041 11
6042 11
6043 11
6044 9
6045 15
6046 1
6047 16
6048 11
6049 7
6050 9
6051 18
6052 12
6053 7
6054 21
6055 10
6056 2
6057 23
6058 0
6059 9
6060 8
6061 10
6062 3
6063 17
6064 9
6065 17
6066 11
6067 9
6068 13
6069 11
6070 16
6071 9
6072 11
6073 23
6074 13
6075 8
6076 9
6077 24
6078 11
6079 16
6080 11
6081 13
6082 8
6083 11
6084 11
6085 0
6086 1
6087 11
6088 9
6089 17
6090 1
6091 9
6092 11
6093 3
6094 15
6095 17
6096 5
6097 12
6098 10
6099 23
6100 0
6101 10
6102 0
6103 1
6104 15
6105 8
6106 11
6107 16
6108 6
6109 15
6110 10
6111 11
6112 9
6113 8
6114 17
6115 16
6116 22
6117 1
6118 23
6119 12
6120 9
6121 5
6122 9
6123 9
6124 18
6125 16
6126 0
6127 8
6128 16
6129 13
6130 23
6131 3
6132 14
6133 17
6134 9
6135 11
6136 7
6137 5
6138 10
6139 13
6140 8
6141 9
6142 1
6143 10
6144 9
6145 8
6146 10
6147 9
6148 27
6149 1
6150 3
6151 13
6152 7
6153 1
6154 11
6155 11
6156 10
6157 16
6158 9
6159 3
6160 11
6161 13
6162 21
6163 1
6164 11
6165 4
6166 9
6167 11
6168 9
6169 11
6170 17
6171 17
6172 21
6173 8
6174 11
6175 2
6176 16
6177 11
6178 13
6179 1
6180 11
6181 0
6182 16
6183 16
6184 9
6185 13
6186 14
6187 13
6188 17
6189 4
6190 16
6191 17
6192 1
6193 11
6194 1
6195 17
6196 15
6197 10
6198 1
6199 8
6200 16
6201 8
6202 13
6203 1
6204 1
6205 10
6206 20
6207 12
6208 23
6209 1
6210 4
6211 9
6212 7
6213 0
6214 9
6215 4
6216 10
6217 16
6218 11
6219 1
6220 12
6221 16
6222 4
6223 8
6224 12
6225 10
6226 9
6227 16
6228 27
6229 9
6230 9
6231 9
6232 5
6233 11
6234 8
6235 12
6236 10
6237 6
6238 14
6239 17
6240 22
6241 0
6242 17
6243 9
6244 4
6245 11
6246 10
6247 24
6248 8
6249 2
6250 16
6251 1
6252 1
6253 0
6254 4
6255 17
6256 1
6257 11
6258 8
6259 9
6260 8
6261 2
6262 17
6263 16
6264 1
6265 11
6266 17
6267 11
6268 17
6269 13
6270 9
6271 13
6272 26
6273 16
6274 15
6275 8
6276 12
6277 16
6278 8
6279 1
6280 16
6281 9
6282 14
6283 8
6284 12
6285 12
6286 11
6287 15
6288 2
6289 21
6290 11
6291 5
6292 9
6293 1
6294 11
6295 12
6296 17
6297 3
6298 1
6299 1
6300 11
6301 3
6302 5
6303 11
6304 17
6305 7
6306 5
6307 21
6308 7
6309 15
6310 9
6311 1
6312 1
6313 23
6314 11
6315 13
6316 11
6317 1
6318 11
6319 17
6320 20
6321 9
6322 1
6323 11
6324 18
6325 9
6326 15
6327 8
6328 8
6329 8
6330 17
6331 13
6332 3
6333 5
6334 11
6335 1
6336 20
6337 15
6338 1
6339 16
6340 4
6341 17
6342 12
6343 11
6344 21
6345 12
6346 11
6347 1
6348 8
6349 16
6350 15
6351 11
6352 4
6353 11
6354 22
6355 17
6356 8
6357 3
6358 9
6359 23
6360 27
6361 10
6362 15
6363 12
6364 9
6365 0
6366 13
6367 18
6368 4
6369 0
6370 10
6371 13
6372 1
6373 0
6374 1
6375 4
6376 2
6377 9
6378 12
6379 23
6380 16
6381 13
6382 0
6383 2
6384 16
6385 16
6386 4
6387 16
6388 0
6389 12
6390 0
6391 11
6392 16
6393 24
6394 11
6395 16
6396 13
6397 18
6398 16
6399 9
6400 9
6401 1
6402 7
6403 13
6404 16
6405 11
6406 13
6407 10
6408 11
6409 13
6410 1
6411 11
6412 16
6413 1
6414 9
6415 18
6416 1
6417 7
6418 7
6419 9
6420 10
6421 17
6422 17
6423 23
6424 1
6425 17
6426 22
6427 16
6428 11
6429 16
6430 9
6431 16
6432 11
6433 11
6434 8
6435 16
6436 11
6437 9
6438 17
6439 3
6440 3
6441 23
6442 1
6443 11
6444 2
6445 9
6446 11
6447 13
6448 11
6449 22
6450 11
6451 9
6452 16
6453 26
6454 4
6455 23
6456 9
6457 1
6458 20
6459 16
6460 23
6461 1
6462 8
6463 9
6464 13
6465 15
6466 12
6467 12
6468 17
6469 11
6470 1
6471 23
6472 11
6473 9
6474 13
6475 26
6476 27
6477 11
6478 0
6479 10
6480 8
6481 1
6482 17
6483 13
6484 11
6485 16
6486 19
6487 8
6488 12
6489 4
6490 8
6491 1
6492 5
6493 16
6494 24
6495 7
6496 3
6497 8
6498 11
6499 2
6500 3
6501 2
6502 16
6503 17
6504 2
6505 0
6506 9
6507 9
6508 26
6509 8
6510 13
6511 9
6512 11
6513 13
6514 17
6515 11
6516 23
6517 16
6518 15
6519 9
6520 17
6521 16
6522 17
6523 9
6524 1
6525 17
6526 11
6527 1
6528 17
6529 1
6530 7
6531 11
6532 9
6533 11
6534 7
6535 21
6536 11
6537 13
6538 16
6539 23
6540 23
6541 5
6542 11
6543 16
6544 11
6545 1
6546 12
6547 17
6548 5
6549 9
6550 16
6551 16
6552 1
6553 16
6554 5
6555 13
6556 6
6557 8
6558 16
6559 8
6560 24
6561 9
6562 23
6563 9
6564 1
6565 8
6566 9
6567 8
6568 16
6569 9
6570 9
6571 1
6572 11
6573 10
6574 17
6575 4
6576 11
6577 9
6578 16
6579 12
6580 21
6581 4
6582 20
6583 9
6584 11
6585 4
6586 17
6587 1
6588 1
6589 0
6590 9
6591 11
6592 1
6593 14
6594 10
6595 1
6596 1
6597 27
6598 12
6599 9
6600 19
6601 11
6602 0
6603 17
6604 15
6605 3
6606 1
6607 1
6608 3
6609 9
6610 1
6611 9
6612 9
6613 4
6614 1
6615 11
6616 11
6617 18
6618 9
6619 11
6620 8
6621 14
6622 6
6623 21
6624 11
6625 20
6626 9
6627 8
6628 9
6629 1
6630 16
6631 9
6632 12
6633 11
6634 7
6635 16
6636 23
6637 16
6638 17
6639 15
6640 8
6641 8
6642 17
6643 13
6644 1
6645 16
6646 1
6647 16
6648 17
6649 19
6650 23
6651 2
6652 13
6653 9
6654 1
6655 9
6656 1
6657 5
6658 24
6659 10
6660 2
6661 16
6662 1
6663 27
6664 11
6665 1
6666 1
6667 16
6668 1
6669 24
6670 11
6671 16
6672 14
6673 17
6674 1
6675 21
6676 1
6677 27
6678 11
6679 9
6680 13
6681 4
6682 13
6683 20
6684 13
6685 18
6686 11
6687 11
6688 2
6689 18
6690 18
6691 16
6692 2
6693 13
6694 23
6695 23
6696 8
6697 3
6698 1
6699 1
6700 9
6701 11
6702 0
6703 17
6704 5
6705 8
6706 17
6707 15
6708 11
6709 1
6710 10
6711 1
6712 3
6713 5
6714 15
6715 1
6716 21
6717 16
6718 16
6719 8
6720 20
6721 3
6722 10
6723 5
6724 1
6725 9
6726 6
6727 8
6728 12
6729 11
6730 5
6731 23
6732 0
6733 1
6734 20
6735 17
6736 13
6737 17
6738 23
6739 9
6740 11
6741 18
6742 9
6743 8
6744 2
6745 1
6746 2
6747 12
6748 25
6749 16
6750 7
6751 9
6752 11
6753 16
6754 24
6755 11
6756 1
6757 10
6758 17
6759 20
6760 9
6761 12
6762 20
6763 24
6764 23
6765 12
6766 1
6767 12
6768 22
6769 13
6770 1
6771 3
6772 11
6773 11
6774 16
6775 11
6776 1
6777 8
6778 8
6779 9
6780 10
6781 14
6782 23
6783 9
6784 12
6785 11
6786 26
6787 7
6788 10
6789 14
6790 11
6791 11
6792 16
6793 13
6794 9
6795 16
6796 3
6797 13
6798 9
6799 18
6800 16
6801 5
6802 10
6803 9
6804 4
6805 3
6806 23
6807 11
6808 2
6809 11
6810 11
6811 1
6812 17
6813 1
6814 0
6815 16
6816 11
6817 9
6818 3
6819 23
6820 11
6821 13
6822 8
6823 13
6824 5
6825 2
6826 4
6827 11
6828 9
6829 9
6830 11
6831 3
6832 12
6833 0
6834 9
6835 1
6836 16
6837 9
6838 19
6839 4
6840 2
6841 23
6842 11
6843 1
6844 1
6845 1
6846 8
6847 9
6848 1
6849 8
6850 2
6851 17
6852 9
6853 11
6854 14
6855 0
6856 1
6857 4
6858 11
6859 16
6860 8
6861 23
6862 16
6863 21
6864 4
6865 23
6866 12
6867 11
6868 11
6869 16
6870 16
6871 4
6872 11
6873 14
6874 16
6875 1
6876 9
6877 16
6878 16
6879 16
6880 0
6881 10
6882 11
6883 10
6884 23
6885 9
6886 9
6887 1
6888 16
6889 9
6890 10
6891 8
6892 12
6893 16
6894 16
6895 1
6896 1
6897 9
6898 9
6899 9
6900 12
6901 1
6902 22
6903 4
6904 10
6905 9
6906 4
6907 8
6908 9
6909 1
6910 18
6911 7
6912 23
6913 13
6914 7
6915 17
6916 16
6917 9
6918 2
6919 15
6920 8
6921 13
6922 1
6923 11
6924 23
6925 4
6926 7
6927 11
6928 7
6929 21
6930 19
6931 8
6932 13
6933 20
6934 9
6935 1
6936 1
6937 16
6938 8
6939 20
6940 10
6941 7
6942 1
6943 16
6944 1
6945 16
6946 5
6947 13
6948 8
6949 11
6950 8
6951 9
6952 8
6953 8
6954 5
6955 2
6956 8
6957 16
6958 1
6959 15
6960 12
6961 12
6962 8
6963 11
6964 13
6965 10
6966 14
6967 12
6968 11
6969 13
6970 17
6971 9
6972 17
6973 9
6974 9
6975 24
6976 16
6977 10
6978 1
6979 17
6980 17
6981 13
6982 8
6983 9
6984 12
6985 16
6986 9
6987 11
6988 9
6989 9
6990 3
6991 0
6992 9
6993 16
6994 11
6995 2
6996 4
6997 20
6998 1
6999 2
7000 16
7001 16
7002 23
7003 6
7004 8
7005 11
7006 11
7007 9
7008 16
7009 5
7010 17
7011 16
7012 16
7013 11
7014 16
7015 4
7016 13
7017 16
7018 9
7019 2
7020 0
7021 10
7022 9
7023 7
7024 23
7025 18
7026 13
7027 8
7028 1
7029 11
7030 16
7031 3
7032 16
7033 11
7034 11
7035 1
7036 10
7037 9
7038 1
7039 5
7040 16
7041 5
7042 16
7043 2
7044 23
7045 18
7046 11
7047 9
7048 15
7049 2
7050 13
7051 11
7052 11
7053 11
7054 9
7055 11
7056 8
7057 17
7058 9
7059 17
7060 22
7061 4
7062 9
7063 16
7064 15
7065 11
7066 7
7067 5
7068 17
7069 9
7070 23
7071 2
7072 9
7073 2
7074 7
7075 16
7076 5
7077 12
7078 2
7079 8
7080 12
7081 16
7082 9
7083 4
7084 16
7085 1
7086 5
7087 13
7088 16
7089 18
7090 9
7091 27
7092 9
7093 16
7094 15
7095 1
7096 3
7097 11
7098 23
7099 13
7100 8
7101 6
7102 9
7103 11
7104 22
7105 4
7106 3
7107 8
7108 27
7109 16
7110 9
7111 12
7112 11
7113 1
7114 26
7115 11
7116 11
7117 2
7118 5
7119 13
7120 8
7121 13
7122 13
7123 8
7124 7
7125 10
7126 9
7127 12
7128 1
7129 11
7130 1
7131 17
7132 9
7133 12
7134 13
7135 1
7136 1
7137 21
7138 2
7139 1
7140 1
7141 1
7142 17
7143 16
7144 23
7145 1
7146 15
7147 1
7148 5
7149 11
7150 11
7151 3
7152 24
7153 18
7154 18
7155 20
7156 25
7157 4
7158 2
7159 13
7160 17
7161 14
7162 16
7163 17
7164 3
7165 15
7166 16
7167 11
7168 9
7169 11
7170 12
7171 23
7172 4
7173 0
7174 8
7175 11
7176 13
7177 16
7178 11
7179 17
7180 1
7181 3
7182 11
7183 11
7184 1
7185 15
7186 17
7187 16
7188 9
7189 1
7190 23
7191 13
7192 18
7193 11
7194 2
7195 9
7196 2
7197 18
7198 9
7199 5
7200 16
7201 11
7202 13
7203 18
7204 27
7205 24
7206 14
7207 9
7208 1
7209 1
7210 11
7211 11
7212 1
7213 12
7214 8
7215 5
7216 1
7217 26
7218 11
7219 0
7220 5
7221 16
7222 10
7223 9
7224 8
7225 15
7226 16
7227 16
7228 11
7229 8
7230 6
7231 4
7232 2
7233 16
7234 9
7235 13
7236 11
7237 1
7238 12
7239 11
7240 12
7241 23
7242 11
7243 11
7244 24
7245 21
7246 17
7247 8
7248 9
7249 16
7250 16
7251 12
7252 11
7253 26
7254 9
7255 11
7256 3
7257 14
7258 7
7259 11
7260 8
7261 1
7262 5
7263 9
7264 11
7265 8
7266 1
7267 1
7268 18
7269 17
7270 16
7271 17
7272 13
7273 11
7274 9
7275 9
7276 17
7277 25
7278 23
7279 13
7280 17
7281 4
7282 17
7283 17
7284 9
7285 0
7286 11
7287 7
7288 9
7289 16
7290 5
7291 11
7292 24
7293 8
7294 8
7295 9
7296 2
7297 5
7298 11
7299 2
7300 16
7301 11
7302 13
7303 9
7304 23
7305 21
7306 1
7307 16
7308 11
7309 16
7310 1
7311 0
7312 20
7313 21
7314 12
7315 0
7316 11
7317 6
7318 9
7319 1
7320 11
7321 3
7322 1
7323 17
7324 17
7325 11
7326 17
7327 6
7328 21
7329 1
7330 8
7331 21
7332 9
7333 18
7334 16
7335 16
7336 1
7337 27
7338 24
7339 11
7340 8
7341 9
7342 11
7343 2
7344 11
7345 7
7346 1
7347 11
7348 0
7349 8
7350 16
7351 13
7352 8
7353 1
7354 11
7355 12
7356 12
7357 16
7358 1
7359 9
7360 1
7361 9
7362 0
7363 23
7364 8
7365 11
7366 3
7367 5
7368 11
7369 1
7370 24
7371 9
7372 17
7373 7
7374 17
7375 18
7376 13
7377 21
7378 8
7379 18
7380 9
7381 11
7382 4
7383 10
7384 17
7385 8
7386 17
7387 9
7388 9
7389 9
7390 9
7391 21
7392 1
7393 1
7394 4
7395 10
7396 16
7397 1
7398 23
7399 1
7400 21
7401 21
7402 1
7403 0
7404 11
7405 12
7406 1
7407 22
7408 8
7409 21
7410 13
7411 17
7412 15
7413 10
7414 8
7415 13
7416 1
7417 25
7418 7
7419 13
7420 13
7421 17
7422 0
7423 11
7424 13
7425 18
7426 3
7427 5
7428 10
7429 11
7430 24
7431 0
7432 11
7433 10
7434 23
7435 11
7436 8
7437 8
7438 9
7439 1
7440 20
7441 9
7442 17
7443 9
7444 13
7445 11
7446 9
7447 23
7448 1
7449 1
7450 20
7451 23
7452 0
7453 22
7454 1
7455 11
7456 0
7457 12
7458 11
7459 18
7460 8
7461 10
7462 9
7463 12
7464 5
7465 16
7466 11
7467 7
7468 1
7469 2
7470 3
7471 23
7472 20
7473 20
7474 13
7475 9
7476 21
7477 2
7478 1
7479 15
7480 11
7481 13
7482 16
7483 11
7484 9
7485 1
7486 1
7487 11
7488 23
7489 16
7490 0
7491 24
7492 2
7493 8
7494 23
7495 1
7496 8
7497 16
7498 4
7499 9
7500 16
7501 13
7502 11
7503 11
7504 12
7505 13
7506 20
7507 11
7508 20
7509 9
7510 17
7511 1
7512 10
7513 18
7514 10
7515 12
7516 8
7517 14
7518 11
7519 9
7520 5
7521 23
7522 14
7523 8
7524 5
7525 18
7526 16
7527 16
7528 15
7529 11
7530 5
7531 3
7532 4
7533 11
7534 1
7535 3
7536 11
7537 18
7538 16
7539 9
7540 8
7541 16
7542 10
7543 9
7544 24
7545 9
7546 11
7547 9
7548 8
7549 17
7550 26
7551 3
7552 11
7553 23
7554 18
7555 13
7556 16
7557 16
7558 11
7559 9
7560 1
7561 27
7562 9
7563 2
7564 12
7565 11
7566 13
7567 24
7568 16
7569 8
7570 8
7571 1
7572 11
7573 16
7574 5
7575 10
7576 9
7577 26
7578 8
7579 9
7580 16
7581 8
7582 3
7583 13
7584 18
7585 0
7586 21
7587 17
7588 1
7589 17
7590 4
7591 0
7592 11
7593 17
7594 16
7595 18
7596 20
7597 11
7598 12
7599 7
7600 14
7601 13
7602 5
7603 17
7604 4
7605 4
7606 0
7607 3
7608 26
7609 2
7610 8
7611 16
7612 17
7613 8
7614 10
7615 16
7616 1
7617 20
7618 9
7619 10
7620 11
7621 12
7622 9
7623 16
7624 14
7625 9
7626 8
7627 9
7628 0
7629 9
7630 16
7631 9
7632 1
7633 1
7634 4
7635 4
7636 2
7637 11
7638 10
7639 11
7640 4
7641 6
7642 17
7643 21
7644 1
7645 11
7646 1
7647 15
7648 18
7649 17
7650 14
7651 16
7652 17
7653 2
7654 10
7655 8
7656 11
7657 4
7658 15
7659 9
7660 16
7661 1
7662 0
7663 8
7664 17
7665 8
7666 10
7667 16
7668 18
7669 20
7670 15
7671 8
7672 8
7673 9
7674 9
7675 1
7676 15
7677 18
7678 10
7679 11
7680 1
7681 9
7682 9
7683 5
7684 14
7685 20
7686 1
7687 11
7688 11
7689 8
7690 12
7691 9
7692 18
7693 9
7694 2
7695 11
7696 13
7697 9
7698 16
7699 23
7700 10
7701 8
7702 15
7703 16
7704 5
7705 2
7706 9
7707 11
7708 7
7709 13
7710 11
7711 9
7712 10
7713 11
7714 2
7715 14
7716 0
7717 14
7718 8
7719 8
7720 9
7721 13
7722 11
7723 1
7724 8
7725 9
7726 8
7727 10
7728 1
7729 8
7730 14
7731 11
7732 8
7733 3
7734 1
7735 1
7736 1
7737 9
7738 16
7739 10
7740 9
7741 17
7742 18
7743 9
7744 9
7745 2
7746 16
7747 17
7748 11
7749 13
7750 9
7751 7
7752 11
7753 11
7754 21
7755 19
7756 16
7757 0
7758 2
7759 1
7760 8
7761 2
7762 8
7763 1
7764 1
7765 13
7766 21
7767 1
7768 8
7769 11
7770 17
7771 2
7772 23
7773 14
7774 7
7775 11
7776 1
7777 17
7778 1
7779 17
7780 11
7781 26
7782 13
7783 9
7784 7
7785 11
7786 11
7787 1
7788 10
7789 9
7790 15
7791 8
7792 11
7793 0
7794 16
7795 10
7796 0
7797 9
7798 8
7799 21
7800 1
7801 9
7802 9
7803 8
7804 1
7805 15
7806 1
7807 10
7808 11
7809 1
7810 8
7811 10
7812 8
7813 11
7814 11
7815 21
7816 22
7817 11
7818 7
7819 16
7820 16
7821 15
7822 11
7823 16
7824 8
7825 7
7826 11
7827 13
7828 9
7829 5
7830 5
7831 11
7832 13
7833 11
7834 11
7835 14
7836 11
7837 11
7838 11
7839 19
7840 5
7841 1
7842 17
7843 11
7844 11
7845 23
7846 17
7847 8
7848 5
7849 1
7850 15
7851 11
7852 16
7853 9
7854 9
7855 16
7856 17
7857 16
7858 12
7859 11
7860 4
7861 26
7862 3
7863 11
7864 5
7865 14
7866 10
7867 17
7868 5
7869 16
7870 16
7871 9
7872 6
7873 11
7874 11
7875 1
7876 3
7877 11
7878 9
7879 5
7880 1
7881 16
7882 9
7883 25
7884 10
7885 4
7886 12
7887 0
7888 11
7889 11
7890 17
7891 16
7892 9
7893 17
7894 4
7895 17
7896 9
7897 13
7898 3
7899 11
7900 8
7901 23
7902 11
7903 5
7904 1
7905 21
7906 8
7907 21
7908 8
7909 1
7910 5
7911 0
7912 4
7913 11
7914 10
7915 5
7916 11
7917 0
7918 3
7919 1
7920 7
7921 2
7922 2
7923 10
7924 5
7925 17
7926 13
7927 0
7928 10
7929 5
7930 12
7931 11
7932 11
7933 13
7934 9
7935 5
7936 1
7937 1
7938 19
7939 11
7940 7
7941 5
7942 11
7943 13
7944 16
7945 16
7946 1
7947 11
7948 24
7949 21
7950 5
7951 17
7952 1
7953 11
7954 7
7955 5
7956 9
7957 17
7958 7
7959 24
7960 9
7961 5
7962 3
7963 5
7964 9
7965 10
7966 11
7967 9
7968 8
7969 21
7970 1
7971 9
7972 18
7973 8
7974 11
7975 12
7976 15
7977 18
7978 3
7979 4
7980 17
7981 11
7982 8
7983 16
7984 17
7985 16
7986 24
7987 10
7988 12
7989 16
7990 23
7991 9
7992 11
7993 1
7994 1
7995 11
7996 2
7997 1
7998 18
7999 11
8000 3
8001 15
8002 1
8003 5
8004 14
8005 1
8006 17
8007 23
8008 11
8009 9
8010 11
8011 12
8012 21
8013 14
8014 16
8015 16
8016 10
8017 9
8018 11
8019 10
8020 11
8021 1
8022 9
8023 11
8024 18
8025 0
8026 9
8027 11
8028 9
8029 16
8030 8
8031 18
8032 9
8033 11
8034 2
8035 13
8036 17
8037 5
8038 9
8039 20
8040 10
8041 11
8042 10
8043 1
8044 11
8045 8
8046 19
8047 16
8048 8
8049 9
8050 18
8051 5
8052 15
8053 11
8054 9
8055 3
8056 8
8057 16
8058 25
8059 1
8060 13
8061 9
8062 2
8063 10
8064 11
8065 11
8066 7
8067 1
8068 13
8069 11
8070 1
8071 16
8072 8
8073 1
8074 13
8075 7
8076 15
8077 5
8078 10
8079 1
8080 19
8081 1
8082 11
8083 22
8084 9
8085 9
8086 13
8087 1
8088 9
8089 22
8090 15
8091 18
8092 1
8093 16
8094 17
8095 16
8096 1
8097 7
8098 6
8099 15
8100 11
8101 13
8102 11
8103 16
8104 9
8105 1
8106 10
8107 21
8108 16
8109 9
8110 20
8111 10
8112 12
8113 0
8114 17
8115 5
8116 0
8117 0
8118 24
8119 1
8120 1
8121 18
8122 14
8123 9
8124 11
8125 8
8126 1
8127 2
8128 9
8129 9
8130 9
8131 1
8132 1
8133 18
8134 26
8135 9
8136 3
8137 11
8138 12
8139 1
8140 18
8141 11
8142 9
8143 7
8144 1
8145 9
8146 6
8147 9
8148 9
8149 17
8150 1
8151 16
8152 11
8153 16
8154 17
8155 24
8156 11
8157 9
8158 17
8159 16
8160 8
8161 10
8162 11
8163 9
8164 8
8165 20
8166 8
8167 12
8168 16
8169 9
8170 11
8171 22
8172 1
8173 8
8174 8
8175 18
8176 15
8177 11
8178 16
8179 16
8180 17
8181 4
8182 11
8183 1
8184 11
8185 15
8186 3
8187 16
8188 1
8189 16
8190 5
8191 24
8192 5
8193 11
8194 17
8195 7
8196 16
8197 16
8198 9
8199 11
8200 1
8201 11
8202 17
8203 16
8204 8
8205 17
8206 3
8207 8
8208 16
8209 8
8210 5
8211 5
8212 5
8213 8
8214 1
8215 20
8216 9
8217 0
8218 24
8219 22
8220 8
8221 16
8222 22
8223 17
8224 3
8225 1
8226 11
8227 11
8228 1
8229 10
8230 11
8231 20
8232 15
8233 16
8234 8
8235 11
8236 11
8237 1
8238 8
8239 20
8240 9
8241 9
8242 9
8243 12
8244 1
8245 22
8246 0
8247 4
8248 9
8249 10
8250 7
8251 1
8252 8
8253 19
8254 1
8255 1
8256 2
8257 16
8258 11
8259 8
8260 16
8261 20
8262 7
8263 11
8264 2
8265 13
8266 9
8267 21
8268 9
8269 1
8270 8
8271 16
8272 20
8273 19
8274 9
8275 16
8276 6
8277 16
8278 23
8279 17
8280 8
8281 11
8282 12
8283 1
8284 9
8285 5
8286 16
8287 12
8288 2
8289 27
8290 11
8291 23
8292 9
8293 1
8294 24
8295 1
8296 17
8297 10
8298 16
8299 8
8300 11
8301 1
8302 2
8303 17
8304 16
8305 11
8306 14
8307 16
8308 13
8309 23
8310 10
8311 3
8312 23
8313 20
8314 16
8315 1
8316 15
8317 11
8318 17
8319 13
8320 20
8321 7
8322 11
8323 9
8324 9
8325 8
8326 0
8327 4
8328 17
8329 19
8330 15
8331 9
8332 8
8333 9
8334 10
8335 1
8336 12
8337 3
8338 3
8339 7
8340 14
8341 17
8342 18
8343 9
8344 11
8345 16
8346 7
8347 8
8348 9
8349 23
8350 17
8351 25
8352 27
8353 2
8354 17
8355 5
8356 16
8357 11
8358 11
8359 7
8360 1
8361 1
8362 15
8363 1
8364 9
8365 7
8366 11
8367 9
8368 2
8369 9
8370 18
8371 8
8372 5
8373 19
8374 27
8375 16
8376 14
8377 15
8378 9
8379 23
8380 16
8381 1
8382 10
8383 10
8384 5
8385 8
8386 1
8387 23
8388 9
8389 27
8390 21
8391 11
8392 16
8393 24
8394 5
8395 1
8396 1
8397 0
8398 7
8399 11
8400 11
8401 11
8402 8
8403 11
8404 10
8405 9
8406 8
8407 9
8408 14
8409 7
8410 9
8411 4
8412 1
8413 11
8414 8
8415 1
8416 16
8417 9
8418 18
8419 3
8420 13
8421 6
8422 1
8423 8
8424 9
8425 14
8426 18
8427 2
8428 23
8429 6
8430 13
8431 9
8432 11
8433 16
8434 1
8435 0
8436 11
8437 1
8438 1
8439 11
8440 16
8441 1
8442 11
8443 7
8444 7
8445 10
8446 23
8447 20
8448 3
8449 9
8450 1
8451 9
8452 13
8453 17
8454 12
8455 9
8456 9
8457 27
8458 13
8459 16
8460 13
8461 17
8462 16
8463 3
8464 6
8465 23
8466 17
8467 1
8468 17
8469 18
8470 16
8471 24
8472 7
8473 20
8474 10
8475 9
8476 11
8477 11
8478 4
8479 11
8480 11
8481 13
8482 0
8483 22
8484 18
8485 18
8486 1
8487 23
8488 9
8489 7
8490 9
8491 8
8492 8
8493 1
8494 8
8495 7
8496 10
8497 27
8498 15
8499 11
8500 4
8501 12
8502 8
8503 15
8504 9
8505 17
8506 20
8507 12
8508 12
8509 8
8510 1
8511 9
8512 24
8513 11
8514 21
8515 9
8516 17
8517 19
8518 11
8519 11
8520 11
8521 16
8522 11
8523 20
8524 8
8525 5
8526 1
8527 17
8528 3
8529 8
8530 8
8531 22
8532 19
8533 17
8534 8
8535 11
8536 1
8537 17
8538 11
8539 13
8540 8
8541 8
8542 15
8543 0
8544 11
8545 16
8546 8
8547 16
8548 8
8549 9
8550 9
8551 4
8552 13
8553 11
8554 11
8555 18
8556 1
8557 11
8558 15
8559 10
8560 1
8561 10
8562 8
8563 23
8564 3
8565 8
8566 7
8567 9
8568 11
8569 8
8570 16
8571 1
8572 11
8573 15
8574 11
8575 19
8576 1
8577 9
8578 16
8579 11
8580 9
8581 4
8582 8
8583 17
8584 9
8585 11
8586 9
8587 9
8588 13
8589 0
8590 16
8591 9
8592 11
8593 11
8594 24
8595 1
8596 10
8597 19
8598 9
8599 11
8600 7
8601 10
8602 11
8603 8
8604 9
8605 1
8606 9
8607 23
8608 23
8609 3
8610 16
8611 23
8612 16
8613 17
8614 11
8615 14
8616 0
8617 22
8618 9
8619 9
8620 8
8621 16
8622 27
8623 17
8624 23
8625 10
8626 11
8627 1
8628 8
8629 8
8630 7
8631 11
8632 13
8633 1
8634 14
8635 0
8636 11
8637 8
8638 16
8639 20
8640 11
8641 16
8642 20
8643 4
8644 11
8645 21
8646 27
8647 4
8648 1
8649 1
8650 9
8651 8
8652 1
8653 21
8654 9
8655 11
8656 24
8657 13
8658 20
8659 11
8660 3
8661 26
8662 18
8663 9
8664 16
8665 1
8666 1
8667 16
8668 24
8669 13
8670 5
8671 5
8672 3
8673 8
8674 17
8675 11
8676 11
8677 23
8678 2
8679 1
8680 16
8681 11
8682 9
8683 8
8684 16
8685 1
8686 5
8687 2
8688 1
8689 21
8690 1
8691 11
8692 22
8693 17
8694 13
8695 8
8696 2
8697 17
8698 9
8699 9
8700 16
8701 6
8702 2
8703 1
8704 17
8705 21
8706 16
8707 2
8708 21
8709 11
8710 17
8711 11
8712 1
8713 2
8714 9
8715 11
8716 16
8717 9
8718 17
8719 9
8720 8
8721 8
8722 20
8723 0
8724 9
8725 17
8726 1
8727 17
8728 11
8729 11
8730 16
8731 10
8732 6
8733 9
8734 1
8735 7
8736 16
8737 13
8738 18
8739 8
8740 17
8741 9
8742 11
8743 9
8744 27
8745 4
8746 26
8747 5
8748 1
8749 1
8750 13
8751 14
8752 16
8753 23
8754 18
8755 1
8756 5
8757 16
8758 9
8759 17
8760 11
8761 1
8762 1
8763 16
8764 15
8765 14
8766 23
8767 8
8768 16
8769 17
8770 10
8771 4
8772 2
8773 11
8774 1
8775 21
8776 1
8777 9
8778 17
8779 13
8780 6
8781 24
8782 11
8783 8
8784 20
8785 9
8786 13
8787 6
8788 9
8789 9
8790 12
8791 17
8792 3
8793 13
8794 11
8795 4
8796 23
8797 2
8798 11
8799 13
8800 14
8801 11
8802 4
8803 9
8804 1
8805 1
8806 5
8807 14
8808 9
8809 4
8810 11
8811 11
8812 17
8813 9
8814 8
8815 1
8816 1
8817 8
8818 13
8819 1
8820 0
8821 9
8822 21
8823 9
8824 9
8825 1
8826 8
8827 2
8828 12
8829 23
8830 11
8831 9
8832 8
8833 1
8834 16
8835 11
8836 1
8837 14
8838 16
8839 9
8840 11
8841 17
8842 15
8843 13
8844 3
8845 7
8846 4
8847 9
8848 24
8849 17
8850 7
8851 8
8852 11
8853 8
8854 9
8855 8
8856 16
8857 1
8858 1
8859 16
8860 17
8861 1
8862 5
8863 17
8864 10
8865 8
8866 8
8867 2
8868 16
8869 7
8870 11
8871 4
8872 1
8873 8
8874 1
8875 10
8876 9
8877 1
8878 12
8879 16
8880 15
8881 7
8882 11
8883 15
8884 20
8885 3
8886 21
8887 1
8888 11
8889 15
8890 1
8891 11
8892 10
8893 11
8894 17
8895 4
8896 2
8897 8
8898 16
8899 8
8900 9
8901 1
8902 13
8903 8
8904 16
8905 16
8906 7
8907 2
8908 1
8909 9
8910 17
8911 7
8912 12
8913 17
8914 13
8915 11
8916 11
8917 11
8918 15
8919 2
8920 9
8921 11
8922 1
8923 22
8924 9
8925 9
8926 11
8927 23
8928 17
8929 10
8930 5
8931 2
8932 11
8933 12
8934 18
8935 23
8936 16
8937 9
8938 10
8939 20
8940 16
8941 3
8942 17
8943 17
8944 11
8945 1
8946 9
8947 1
8948 16
8949 25
8950 9
8951 1
8952 18
8953 27
8954 1
8955 1
8956 18
8957 11
8958 15
8959 11
8960 8
8961 0
8962 1
8963 7
8964 16
8965 10
8966 9
8967 2
8968 8
8969 11
8970 16
8971 27
8972 11
8973 1
8974 9
8975 21
8976 3
8977 11
8978 10
8979 11
8980 11
8981 0
8982 3
8983 13
8984 8
8985 16
8986 17
8987 16
8988 11
8989 16
8990 11
8991 7
8992 11
8993 15
8994 1
8995 13
8996 11
8997 13
8998 21
8999 16
9000 15
9001 3
9002 11
9003 11
9004 5
9005 2
9006 16
9007 23
9008 8
9009 8
9010 9
9011 0
9012 13
9013 16
9014 9
9015 2
9016 9
9017 18
9018 1
9019 10
9020 9
9021 23
9022 24
9023 1
9024 7
9025 11
9026 23
9027 24
9028 1
9029 5
9030 17
9031 17
9032 9
9033 23
9034 2
9035 16
9036 11
9037 1
9038 9
9039 9
9040 17
9041 1
9042 8
9043 11
9044 16
9045 11
9046 9
9047 10
9048 0
9049 25
9050 17
9051 11
9052 11
9053 8
9054 11
9055 17
9056 11
9057 19
9058 23
9059 1
9060 17
9061 0
9062 11
9063 1
9064 24
9065 17
9066 16
9067 12
9068 14
9069 4
9070 1
9071 2
9072 1
9073 9
9074 16
9075 7
9076 7
9077 25
9078 17
9079 4
9080 1
9081 11
9082 1
9083 1
9084 3
9085 11
9086 11
9087 1
9088 18
9089 0
9090 11
9091 6
9092 20
9093 12
9094 1
9095 10
9096 15
9097 9
9098 0
9099 27
9100 25
9101 7
9102 9
9103 9
9104 16
9105 9
9106 1
9107 6
9108 5
9109 17
9110 8
9111 7
9112 24
9113 11
9114 1
9115 10
9116 11
9117 8
9118 1
9119 9
9120 9
9121 0
9122 16
9123 15
9124 1
9125 11
9126 13
9127 9
9128 13
9129 18
9130 11
9131 11
9132 16
9133 4
9134 1
9135 5
9136 23
9137 13
9138 8
9139 1
9140 27
9141 1
9142 17
9143 0
9144 9
9145 11
9146 11
9147 8
9148 11
9149 16
9150 9
9151 9
9152 21
9153 11
9154 8
9155 11
9156 11
9157 17
9158 9
9159 23
9160 7
9161 11
9162 14
9163 25
9164 17
9165 24
9166 9
9167 8
9168 17
9169 1
9170 11
9171 0
9172 22
9173 8
9174 9
9175 11
9176 9
9177 15
9178 23
9179 16
9180 11
9181 0
9182 7
9183 13
9184 1
9185 1
9186 1
9187 9
9188 8
9189 1
9190 9
9191 2
9192 16
9193 14
9194 24
9195 1
9196 16
9197 11
9198 14
9199 9
9200 16
9201 17
9202 24
9203 18
9204 7
9205 17
9206 0
9207 10
9208 9
9209 7
9210 25
9211 3
9212 3
9213 9
9214 12
9215 16
9216 11
9217 12
9218 23
9219 11
9220 16
9221 17
9222 3
9223 20
9224 9
9225 1
9226 9
9227 8
9228 9
9229 11
9230 26
9231 17
9232 27
9233 22
9234 15
9235 12
9236 15
9237 11
9238 1
9239 24
9240 2
9241 11
9242 11
9243 1
9244 9
9245 20
9246 5
9247 10
9248 1
9249 16
9250 16
9251 17
9252 11
9253 11
9254 3
9255 18
9256 1
9257 20
9258 25
9259 13
9260 16
9261 19
9262 1
9263 9
9264 9
9265 15
9266 17
9267 1
9268 7
9269 16
9270 16
9271 16
9272 2
9273 8
9274 16
9275 11
9276 11
9277 16
9278 13
9279 2
9280 18
9281 10
9282 13
9283 11
9284 8
9285 13
9286 12
9287 1
9288 10
9289 8
9290 9
9291 3
9292 16
9293 11
9294 0
9295 4
9296 11
9297 8
9298 11
9299 9
9300 5
9301 9
9302 1
9303 1
9304 2
9305 8
9306 1
9307 1
9308 14
9309 9
9310 15
9311 13
9312 1
9313 9
9314 13
9315 3
9316 9
9317 23
9318 24
9319 8
9320 21
9321 11
9322 11
9323 11
9324 26
9325 11
9326 8
9327 1
9328 19
9329 22
9330 22
9331 1
9332 4
9333 17
9334 3
9335 1
9336 13
9337 5
9338 8
9339 16
9340 9
9341 2
9342 8
9343 17
9344 16
9345 9
9346 9
9347 11
9348 16
9349 15
9350 17
9351 16
9352 16
9353 18
9354 17
9355 24
9356 2
9357 18
9358 16
9359 17
9360 18
9361 10
9362 14
9363 7
9364 21
9365 16
9366 6
9367 1
9368 6
9369 11
9370 10
9371 15
9372 5
9373 13
9374 13
9375 8
9376 11
9377 11
9378 21
9379 0
9380 3
9381 6
9382 18
9383 0
9384 14
9385 13
9386 1
9387 17
9388 9
9389 11
9390 1
9391 16
9392 16
9393 11
9394 12
9395 5
9396 1
9397 10
9398 8
9399 6
9400 9
9401 16
9402 0
9403 20
9404 13
9405 16
9406 13
9407 16
9408 17
9409 11
9410 14
9411 13
9412 9
9413 16
9414 23
9415 15
9416 11
9417 9
9418 13
9419 8
9420 25
9421 17
9422 1
9423 16
9424 11
9425 8
9426 17
9427 8
9428 8
9429 11
9430 11
9431 17
9432 9
9433 12
9434 1
9435 11
9436 16
9437 11
9438 1
9439 24
9440 0
9441 18
9442 16
9443 13
9444 9
9445 21
9446 8
9447 17
9448 23
9449 1
9450 9
9451 12
9452 3
9453 11
9454 8
9455 14
9456 1
9457 1
9458 16
9459 20
9460 1
9461 6
9462 24
9463 10
9464 11
9465 13
9466 24
9467 1
9468 7
9469 4
9470 9
9471 18
9472 17
9473 1
9474 24
9475 12
9476 1
9477 11
9478 7
9479 11
9480 15
9481 1
9482 11
9483 7
9484 23
9485 12
9486 10
9487 27
9488 14
9489 16
9490 17
9491 21
9492 16
9493 11
9494 10
9495 9
9496 17
9497 1
9498 11
9499 9
9500 9
9501 4
9502 14
9503 1
9504 7
9505 17
9506 18
9507 1
9508 1
9509 5
9510 22
9511 23
9512 10
9513 20
9514 5
9515 27
9516 13
9517 11
9518 5
9519 13
9520 2
9521 12
9522 27
9523 11
9524 11
9525 23
9526 11
9527 13
9528 16
9529 9
9530 1
9531 11
9532 10
9533 26
9534 11
9535 11
9536 9
9537 9
9538 16
9539 11
9540 9
9541 8
9542 13
9543 17
9544 10
9545 11
9546 11
9547 8
9548 11
9549 25
9550 6
9551 8
9552 21
9553 7
9554 8
9555 1
9556 11
9557 11
9558 5
9559 14
9560 12
9561 8
9562 9
9563 18
9564 17
9565 10
9566 9
9567 11
9568 24
9569 9
9570 5
9571 8
9572 6
9573 9
9574 17
9575 17
9576 21
9577 18
9578 11
9579 8
9580 22
9581 8
9582 18
9583 20
9584 3
9585 10
9586 9
9587 21
9588 9
9589 14
9590 16
9591 21
9592 6
9593 20
9594 9
9595 9
9596 15
9597 11
9598 4
9599 13
9600 7
9601 11
9602 22
9603 23
9604 1
9605 11
9606 9
9607 8
9608 2
9609 10
9610 0
9611 16
9612 16
9613 9
9614 27
9615 11
9616 10
9617 11
9618 7
9619 15
9620 11
9621 9
9622 9
9623 1
9624 11
9625 11
9626 17
9627 1
9628 15
9629 11
9630 10
9631 18
9632 9
9633 18
9634 16
9635 20
9636 8
9637 13
9638 9
9639 5
9640 8
9641 2
9642 4
9643 11
9644 11
9645 9
9646 17
9647 14
9648 16
9649 20
9650 1
9651 16
9652 8
9653 11
9654 11
9655 7
9656 21
9657 24
9658 11
9659 5
9660 9
9661 10
9662 16
9663 13
9664 1
9665 1
9666 10
9667 16
9668 16
9669 7
9670 11
9671 1
9672 1
9673 16
9674 11
9675 21
9676 1
9677 5
9678 16
9679 16
9680 7
9681 4
9682 9
9683 22
9684 17
9685 18
9686 9
9687 17
9688 9
9689 13
9690 9
9691 16
9692 2
9693 1
9694 12
9695 13
9696 8
9697 9
9698 12
9699 17
9700 10
9701 1
9702 23
9703 16
9704 1
9705 16
9706 11
9707 5
9708 8
9709 4
9710 24
9711 17
9712 21
9713 9
9714 1
9715 1
9716 8
9717 0
9718 8
9719 9
9720 5
9721 12
9722 11
9723 8
9724 11
9725 1
9726 11
9727 18
9728 15
9729 2
9730 7
9731 10
9732 5
9733 1
9734 23
9735 1
9736 16
9737 10
9738 13
9739 17
9740 9
9741 16
9742 9
9743 9
9744 11
9745 8
9746 9
9747 11
9748 12
9749 0
9750 9
9751 12
9752 15
9753 11
9754 17
9755 11
9756 16
9757 17
9758 15
9759 12
9760 17
9761 8
9762 11
9763 16
9764 9
9765 23
9766 7
9767 17
9768 11
9769 9
9770 7
9771 1
9772 16
9773 23
9774 23
9775 9
9776 13
9777 20
9778 17
9779 10
9780 16
9781 1
9782 17
9783 1
9784 8
9785 15
9786 16
9787 3
9788 23
9789 16
9790 11
9791 10
9792 15
9793 25
9794 16
9795 23
9796 1
9797 1
9798 17
9799 19
9800 7
9801 14
9802 16
9803 7
9804 16
9805 7
9806 4
9807 15
9808 16
9809 13
9810 5
9811 16
9812 24
9813 8
9814 13
9815 14
9816 9
9817 11
9818 9
9819 1
9820 9
9821 17
9822 1
9823 27
9824 11
9825 16
9826 21
9827 13
9828 17
9829 11
9830 21
9831 20
9832 18
9833 10
9834 9
9835 12
9836 12
9837 3
9838 1
9839 10
9840 9
9841 9
9842 8
9843 11
9844 17
9845 7
9846 13
9847 16
9848 11
9849 13
9850 2
9851 0
9852 9
9853 3
9854 11
9855 12
9856 25
9857 1
9858 11
9859 4
9860 17
9861 16
9862 13
9863 20
9864 1
9865 11
9866 1
9867 1
9868 8
9869 10
9870 16
9871 11
9872 8
9873 8
9874 3
9875 17
9876 1
9877 1
9878 11
9879 23
9880 9
9881 9
9882 1
9883 9
9884 8
9885 7
9886 11
9887 2
9888 17
9889 1
9890 7
9891 13
9892 9
9893 16
9894 9
9895 20
9896 23
9897 11
9898 7
9899 16
9900 4
9901 8
9902 22
9903 9
9904 14
9905 10
9906 11
9907 4
9908 1
9909 11
9910 17
9911 3
9912 23
9913 1
9914 0
9915 21
9916 17
9917 17
9918 11
9919 13
9920 1
9921 23
9922 9
9923 2
9924 11
9925 17
9926 13
9927 6
9928 16
9929 12
9930 15
9931 16
9932 9
9933 8
9934 10
9935 10
9936 18
9937 17
9938 9
9939 1
9940 1
9941 1
9942 7
9943 11
9944 3
9945 7
9946 21
9947 0
9948 11
9949 7
9950 9
9951 5
9952 10
9953 8
9954 23
9955 24
9956 27
9957 1
9958 11
9959 8
9960 1
9961 9
9962 8
9963 11
9964 24
9965 24
9966 16
9967 16
9968 11
9969 16
9970 2
9971 9
9972 16
9973 11
9974 11
9975 8
9976 11
9977 16
9978 7
9979 18
9980 16
9981 24
9982 1
9983 1
9984 16
9985 14
9986 11
9987 21
9988 13
9989 12
9990 12
9991 5
9992 2
9993 10
9994 1
9995 1
9996 1
9997 12
9998 4
9999 8
