0 0
1 1
2 2
3 3
4 4
5 1
6 5
7 3
8 5
9 3
10 6
11 6
12 7
13 3
14 3
15 4
16 0
17 8
18 8
19 3
20 8
21 1
22 9
23 4
24 7
25 6
26 10
27 11
28 1
29 12
30 7
31 10
32 8
33 6
34 13
35 4
36 4
37 14
38 3
39 6
40 3
41 8
42 3
43 4
44 7
45 9
46 8
47 8
48 15
49 2
50 16
51 9
52 15
53 17
54 15
55 13
56 3
57 17
58 8
59 4
60 15
61 16
62 15
63 6
64 5
65 9
66 8
67 7
68 10
69 3
70 10
71 0
72 10
73 3
74 8
75 13
76 6
77 10
78 18
79 4
80 8
81 4
82 9
83 10
84 9
85 10
86 3
87 0
88 3
89 10
90 1
91 1
92 3
93 6
94 8
95 17
96 0
97 7
98 10
99 10
100 6
101 19
102 18
103 3
104 20
105 8
106 1
107 8
108 12
109 21
110 6
111 8
112 3
113 17
114 13
115 10
116 16
117 4
118 20
119 10
120 4
121 6
122 2
123 12
124 12
125 16
126 10
127 10
128 8
129 6
130 8
131 15
132 17
133 8
134 9
135 16
136 4
137 3
138 3
139 3
140 3
141 6
142 6
143 15
144 6
145 1
146 10
147 10
148 9
149 11
150 17
151 22
152 1
153 1
154 4
155 4
156 7
157 9
158 9
159 3
160 10
161 4
162 19
163 10
164 8
165 15
166 22
167 6
168 9
169 15
170 3
171 3
172 4
173 4
174 3
175 8
176 4
177 14
178 10
179 6
180 10
181 4
182 4
183 15
184 4
185 3
186 2
187 6
188 10
189 8
190 6
191 1
192 12
193 15
194 15
195 6
196 9
197 6
198 9
199 4
200 1
201 10
202 2
203 6
204 1
205 10
206 14
207 8
208 16
209 4
210 8
211 7
212 15
213 7
214 10
215 6
216 10
217 23
218 14
219 4
220 4
221 14
222 13
223 8
224 8
225 8
226 4
227 6
228 16
229 16
230 3
231 17
232 6
233 9
234 6
235 4
236 10
237 4
238 14
239 4
240 12
241 4
242 0
243 16
244 10
245 10
246 20
247 4
248 8
249 10
250 8
251 10
252 6
253 10
254 3
255 10
256 1
257 3
258 2
259 4
260 3
261 4
262 4
263 4
264 3
265 10
266 0
267 3
268 3
269 3
270 12
271 11
272 4
273 7
274 18
275 8
276 4
277 8
278 10
279 3
280 3
281 4
282 8
283 1
284 3
285 16
286 22
287 4
288 3
289 0
290 9
291 16
292 6
293 4
294 18
295 16
296 6
297 15
298 1
299 8
300 16
301 19
302 8
303 3
304 22
305 3
306 8
307 3
308 15
309 0
310 10
311 4
312 11
313 15
314 10
315 12
316 5
317 4
318 1
319 6
320 4
321 20
322 5
323 8
324 8
325 3
326 11
327 16
328 11
329 13
330 10
331 1
332 1
333 20
334 4
335 7
336 6
337 3
338 4
339 9
340 4
341 4
342 3
343 15
344 0
345 3
346 2
347 6
348 8
349 4
350 9
351 15
352 4
353 8
354 21
355 4
356 9
357 6
358 9
359 12
360 4
361 10
362 20
363 9
364 2
365 10
366 3
367 13
368 8
369 0
370 10
371 5
372 6
373 6
374 3
375 10
376 1
377 1
378 16
379 9
380 4
381 13
382 3
383 12
384 6
385 10
386 3
387 8
388 10
389 4
390 10
391 10
392 20
393 8
394 17
395 6
396 3
397 0
398 3
399 10
400 10
401 3
402 0
403 6
404 6
405 3
406 3
407 10
408 16
409 10
410 4
411 23
412 0
413 5
414 7
415 12
416 13
417 14
418 4
419 0
420 0
421 3
422 2
423 9
424 4
425 1
426 3
427 3
428 19
429 9
430 13
431 0
432 11
433 4
434 16
435 7
436 6
437 2
438 0
439 6
440 15
441 4
442 10
443 3
444 6
445 3
446 15
447 11
448 4
449 4
450 8
451 19
452 11
453 15
454 8
455 3
456 15
457 9
458 9
459 8
460 14
461 8
462 6
463 10
464 8
465 4
466 0
467 8
468 19
469 6
470 6
471 20
472 1
473 1
474 1
475 14
476 1
477 7
478 17
479 3
480 8
481 6
482 9
483 22
484 14
485 4
486 3
487 18
488 23
489 7
490 0
491 1
492 3
493 3
494 4
495 16
496 21
497 4
498 23
499 4
500 8
501 10
502 8
503 16
504 10
505 10
506 8
507 5
508 8
509 12
510 8
511 8
512 13
513 10
514 10
515 10
516 22
517 15
518 4
519 3
520 6
521 0
522 14
523 3
524 6
525 10
526 4
527 9
528 4
529 3
530 4
531 8
532 1
533 8
534 17
535 4
536 4
537 7
538 3
539 17
540 4
541 17
542 14
543 4
544 3
545 16
546 3
547 3
548 19
549 16
550 2
551 10
552 11
553 13
554 11
555 3
556 10
557 4
558 0
559 2
560 8
561 4
562 0
563 4
564 7
565 9
566 4
567 10
568 23
569 22
570 11
571 16
572 6
573 20
574 15
575 10
576 4
577 10
578 4
579 4
580 4
581 8
582 0
583 13
584 10
585 6
586 6
587 3
588 8
589 10
590 8
591 15
592 9
593 4
594 10
595 4
596 6
597 8
598 22
599 8
600 17
601 8
602 1
603 3
604 8
605 1
606 10
607 9
608 8
609 8
610 8
611 2
612 10
613 3
614 8
615 1
616 19
617 10
618 4
619 4
620 8
621 10
622 14
623 8
624 8
625 3
626 9
627 14
628 3
629 16
630 12
631 6
632 14
633 3
634 6
635 10
636 9
637 10
638 6
639 10
640 6
641 4
642 8
643 19
644 17
645 8
646 23
647 8
648 4
649 10
650 3
651 22
652 10
653 2
654 20
655 4
656 7
657 7
658 1
659 6
660 4
661 3
662 14
663 10
664 8
665 9
666 7
667 7
668 4
669 17
670 3
671 1
672 19
673 6
674 14
675 10
676 15
677 5
678 8
679 22
680 4
681 10
682 6
683 4
684 7
685 20
686 9
687 6
688 4
689 8
690 8
691 8
692 0
693 8
694 3
695 7
696 16
697 8
698 4
699 4
700 7
701 20
702 8
703 8
704 13
705 1
706 8
707 8
708 11
709 8
710 17
711 10
712 6
713 0
714 18
715 7
716 17
717 8
718 10
719 20
720 10
721 9
722 7
723 3
724 7
725 10
726 8
727 8
728 4
729 6
730 9
731 10
732 4
733 8
734 3
735 1
736 4
737 3
738 8
739 4
740 8
741 15
742 10
743 13
744 12
745 4
746 22
747 10
748 8
749 4
750 13
751 16
752 6
753 3
754 22
755 4
756 3
757 1
758 23
759 10
760 3
761 23
762 15
763 8
764 3
765 20
766 3
767 13
768 9
769 6
770 8
771 14
772 8
773 11
774 6
775 6
776 10
777 18
778 10
779 8
780 9
781 6
782 10
783 4
784 3
785 6
786 10
787 10
788 12
789 4
790 4
791 16
792 4
793 0
794 1
795 9
796 20
797 3
798 10
799 4
800 10
801 7
802 8
803 10
804 8
805 9
806 8
807 8
808 8
809 15
810 3
811 10
812 8
813 4
814 17
815 4
816 4
817 8
818 6
819 5
820 0
821 8
822 1
823 7
824 1
825 8
826 8
827 1
828 10
829 16
830 1
831 4
832 15
833 0
834 8
835 4
836 17
837 10
838 10
839 18
840 8
841 7
842 3
843 6
844 7
845 3
846 7
847 1
848 3
849 4
850 4
851 3
852 9
853 4
854 4
855 8
856 4
857 7
858 4
859 12
860 11
861 7
862 4
863 3
864 15
865 10
866 4
867 4
868 4
869 0
870 4
871 6
872 10
873 3
874 1
875 4
876 2
877 8
878 14
879 9
880 15
881 0
882 8
883 6
884 8
885 6
886 12
887 6
888 10
889 8
890 9
891 7
892 5
893 10
894 16
895 12
896 9
897 1
898 8
899 1
900 11
901 8
902 3
903 0
904 1
905 10
906 1
907 3
908 22
909 10
910 16
911 3
912 3
913 8
914 6
915 22
916 3
917 22
918 6
919 4
920 8
921 8
922 8
923 9
924 3
925 6
926 3
927 12
928 7
929 8
930 3
931 20
932 6
933 4
934 6
935 0
936 15
937 23
938 9
939 23
940 7
941 10
942 4
943 10
944 4
945 1
946 7
947 23
948 8
949 8
950 9
951 15
952 1
953 4
954 5
955 4
956 4
957 8
958 8
959 14
960 1
961 8
962 4
963 22
964 10
965 4
966 7
967 10
968 22
969 17
970 3
971 9
972 4
973 8
974 3
975 3
976 0
977 6
978 10
979 20
980 4
981 23
982 16
983 8
984 13
985 9
986 4
987 10
988 3
989 23
990 10
991 7
992 15
993 10
994 15
995 4
996 3
997 20
998 11
999 8
1000 4
1001 4
1002 20
1003 10
1004 4
1005 8
1006 8
1007 1
1008 4
1009 9
1010 8
1011 11
1012 12
1013 10
1014 7
1015 1
1016 8
1017 0
1018 8
1019 3
1020 10
1021 8
1022 10
1023 3
1024 10
1025 8
1026 23
1027 3
1028 6
1029 8
1030 3
1031 4
1032 8
1033 18
1034 10
1035 10
1036 3
1037 10
1038 4
1039 1
1040 22
1041 8
1042 22
1043 8
1044 23
1045 16
1046 4
1047 1
1048 1
1049 3
1050 8
1051 4
1052 3
1053 11
1054 16
1055 0
1056 6
1057 9
1058 6
1059 22
1060 4
1061 8
1062 6
1063 8
1064 8
1065 10
1066 10
1067 7
1068 10
1069 22
1070 3
1071 8
1072 10
1073 9
1074 17
1075 15
1076 10
1077 3
1078 3
1079 7
1080 4
1081 1
1082 3
1083 4
1084 6
1085 15
1086 8
1087 8
1088 9
1089 8
1090 11
1091 4
1092 1
1093 11
1094 4
1095 3
1096 6
1097 2
1098 19
1099 4
1100 3
1101 1
1102 4
1103 3
1104 23
1105 22
1106 0
1107 6
1108 16
1109 4
1110 16
1111 16
1112 6
1113 10
1114 1
1115 2
1116 9
1117 15
1118 4
1119 6
1120 8
1121 15
1122 3
1123 10
1124 17
1125 8
1126 6
1127 6
1128 12
1129 8
1130 15
1131 7
1132 8
1133 15
1134 10
1135 0
1136 12
1137 22
1138 21
1139 1
1140 3
1141 6
1142 0
1143 22
1144 3
1145 3
1146 22
1147 9
1148 1
1149 4
1150 6
1151 7
1152 3
1153 3
1154 8
1155 3
1156 10
1157 0
1158 8
1159 8
1160 8
1161 4
1162 3
1163 16
1164 11
1165 0
1166 10
1167 4
1168 12
1169 6
1170 6
1171 7
1172 10
1173 3
1174 1
1175 4
1176 1
1177 5
1178 4
1179 7
1180 11
1181 6
1182 10
1183 19
1184 3
1185 1
1186 20
1187 16
1188 10
1189 1
1190 15
1191 1
1192 3
1193 9
1194 15
1195 16
1196 3
1197 8
1198 8
1199 19
1200 3
1201 10
1202 4
1203 6
1204 21
1205 8
1206 6
1207 0
1208 3
1209 15
1210 10
1211 3
1212 1
1213 23
1214 8
1215 8
1216 6
1217 6
1218 4
1219 6
1220 6
1221 0
1222 22
1223 14
1224 7
1225 10
1226 8
1227 8
1228 8
1229 15
1230 10
1231 7
1232 14
1233 9
1234 15
1235 0
1236 14
1237 7
1238 0
1239 23
1240 8
1241 7
1242 3
1243 15
1244 4
1245 10
1246 10
1247 11
1248 4
1249 7
1250 1
1251 9
1252 3
1253 13
1254 3
1255 4
1256 8
1257 10
1258 4
1259 3
1260 20
1261 8
1262 16
1263 3
1264 1
1265 4
1266 23
1267 3
1268 12
1269 10
1270 10
1271 17
1272 19
1273 8
1274 2
1275 3
1276 3
1277 8
1278 16
1279 3
1280 8
1281 15
1282 6
1283 4
1284 23
1285 10
1286 11
1287 8
1288 22
1289 1
1290 15
1291 1
1292 7
1293 4
1294 1
1295 20
1296 9
1297 6
1298 8
1299 6
1300 8
1301 13
1302 17
1303 2
1304 20
1305 4
1306 6
1307 1
1308 3
1309 10
1310 4
1311 0
1312 3
1313 18
1314 9
1315 10
1316 7
1317 3
1318 10
1319 16
1320 7
1321 8
1322 23
1323 7
1324 8
1325 0
1326 9
1327 3
1328 1
1329 10
1330 7
1331 8
1332 3
1333 4
1334 16
1335 2
1336 3
1337 14
1338 8
1339 6
1340 4
1341 23
1342 3
1343 10
1344 0
1345 10
1346 4
1347 3
1348 7
1349 7
1350 4
1351 12
1352 0
1353 10
1354 4
1355 4
1356 6
1357 1
1358 4
1359 16
1360 7
1361 7
1362 10
1363 6
1364 1
1365 8
1366 6
1367 4
1368 9
1369 8
1370 6
1371 8
1372 8
1373 7
1374 9
1375 10
1376 4
1377 8
1378 23
1379 15
1380 15
1381 3
1382 4
1383 0
1384 4
1385 4
1386 8
1387 8
1388 4
1389 13
1390 9
1391 8
1392 4
1393 6
1394 13
1395 8
1396 14
1397 11
1398 10
1399 20
1400 3
1401 21
1402 6
1403 0
1404 4
1405 8
1406 7
1407 10
1408 4
1409 3
1410 5
1411 21
1412 4
1413 1
1414 2
1415 3
1416 8
1417 6
1418 8
1419 12
1420 6
1421 16
1422 3
1423 10
1424 7
1425 22
1426 4
1427 8
1428 14
1429 6
1430 3
1431 1
1432 4
1433 3
1434 23
1435 20
1436 4
1437 14
1438 10
1439 5
1440 4
1441 3
1442 10
1443 23
1444 8
1445 17
1446 6
1447 10
1448 15
1449 4
1450 4
1451 8
1452 1
1453 16
1454 7
1455 4
1456 4
1457 23
1458 3
1459 10
1460 11
1461 2
1462 4
1463 8
1464 5
1465 8
1466 1
1467 7
1468 3
1469 4
1470 6
1471 9
1472 1
1473 8
1474 8
1475 3
1476 2
1477 1
1478 3
1479 10
1480 7
1481 5
1482 7
1483 15
1484 15
1485 2
1486 4
1487 0
1488 8
1489 4
1490 3
1491 6
1492 4
1493 23
1494 7
1495 10
1496 6
1497 6
1498 8
1499 15
1500 8
1501 4
1502 6
1503 3
1504 9
1505 10
1506 14
1507 21
1508 3
1509 17
1510 17
1511 15
1512 4
1513 6
1514 8
1515 1
1516 3
1517 8
1518 6
1519 11
1520 11
1521 3
1522 9
1523 19
1524 15
1525 17
1526 8
1527 0
1528 15
1529 10
1530 15
1531 3
1532 4
1533 4
1534 11
1535 21
1536 3
1537 15
1538 0
1539 14
1540 4
1541 3
1542 13
1543 9
1544 8
1545 0
1546 6
1547 1
1548 4
1549 11
1550 3
1551 1
1552 4
1553 12
1554 9
1555 14
1556 6
1557 4
1558 3
1559 23
1560 8
1561 1
1562 9
1563 8
1564 11
1565 10
1566 15
1567 1
1568 3
1569 10
1570 6
1571 4
1572 10
1573 0
1574 6
1575 17
1576 16
1577 4
1578 6
1579 3
1580 10
1581 3
1582 10
1583 23
1584 10
1585 13
1586 16
1587 23
1588 3
1589 23
1590 16
1591 0
1592 0
1593 1
1594 3
1595 6
1596 4
1597 4
1598 8
1599 10
1600 15
1601 16
1602 6
1603 3
1604 6
1605 3
1606 6
1607 4
1608 19
1609 15
1610 21
1611 5
1612 5
1613 22
1614 1
1615 10
1616 3
1617 4
1618 9
1619 4
1620 10
1621 21
1622 4
1623 13
1624 6
1625 8
1626 9
1627 3
1628 6
1629 7
1630 20
1631 9
1632 3
1633 3
1634 10
1635 6
1636 6
1637 6
1638 3
1639 10
1640 10
1641 10
1642 6
1643 10
1644 10
1645 3
1646 1
1647 10
1648 10
1649 14
1650 0
1651 2
1652 16
1653 23
1654 5
1655 0
1656 8
1657 8
1658 8
1659 10
1660 8
1661 0
1662 3
1663 0
1664 3
1665 8
1666 3
1667 10
1668 15
1669 9
1670 10
1671 3
1672 8
1673 10
1674 3
1675 3
1676 3
1677 3
1678 9
1679 8
1680 16
1681 3
1682 11
1683 10
1684 8
1685 7
1686 4
1687 6
1688 14
1689 17
1690 23
1691 3
1692 6
1693 1
1694 8
1695 7
1696 21
1697 8
1698 13
1699 10
1700 1
1701 8
1702 4
1703 5
1704 7
1705 4
1706 7
1707 10
1708 8
1709 6
1710 10
1711 1
1712 8
1713 23
1714 1
1715 0
1716 3
1717 7
1718 22
1719 8
1720 10
1721 12
1722 6
1723 15
1724 21
1725 8
1726 4
1727 16
1728 8
1729 6
1730 0
1731 13
1732 15
1733 8
1734 7
1735 14
1736 10
1737 7
1738 10
1739 8
1740 5
1741 10
1742 6
1743 10
1744 3
1745 8
1746 10
1747 10
1748 8
1749 1
1750 3
1751 13
1752 0
1753 10
1754 4
1755 15
1756 8
1757 5
1758 12
1759 6
1760 9
1761 14
1762 14
1763 0
1764 3
1765 22
1766 11
1767 15
1768 23
1769 4
1770 10
1771 3
1772 8
1773 20
1774 4
1775 4
1776 8
1777 1
1778 3
1779 1
1780 10
1781 8
1782 4
1783 16
1784 15
1785 4
1786 7
1787 10
1788 3
1789 10
1790 2
1791 9
1792 14
1793 1
1794 0
1795 1
1796 16
1797 6
1798 17
1799 6
1800 20
1801 10
1802 1
1803 14
1804 4
1805 4
1806 3
1807 4
1808 3
1809 6
1810 7
1811 10
1812 18
1813 9
1814 1
1815 14
1816 10
1817 8
1818 9
1819 8
1820 6
1821 0
1822 4
1823 7
1824 6
1825 6
1826 7
1827 22
1828 11
1829 4
1830 10
1831 3
1832 4
1833 4
1834 4
1835 13
1836 9
1837 3
1838 3
1839 20
1840 1
1841 4
1842 5
1843 4
1844 8
1845 9
1846 6
1847 8
1848 11
1849 3
1850 23
1851 3
1852 16
1853 8
1854 6
1855 12
1856 3
1857 6
1858 20
1859 22
1860 15
1861 8
1862 6
1863 9
1864 10
1865 3
1866 7
1867 2
1868 3
1869 8
1870 16
1871 4
1872 8
1873 4
1874 0
1875 10
1876 8
1877 4
1878 8
1879 1
1880 3
1881 1
1882 13
1883 9
1884 11
1885 3
1886 4
1887 10
1888 8
1889 10
1890 8
1891 8
1892 16
1893 7
1894 4
1895 2
1896 17
1897 4
1898 10
1899 15
1900 1
1901 9
1902 9
1903 0
1904 8
1905 8
1906 4
1907 9
1908 15
1909 10
1910 10
1911 15
1912 23
1913 17
1914 10
1915 9
1916 5
1917 14
1918 10
1919 3
1920 8
1921 3
1922 7
1923 4
1924 3
1925 21
1926 8
1927 4
1928 8
1929 4
1930 8
1931 10
1932 3
1933 8
1934 5
1935 17
1936 10
1937 3
1938 8
1939 11
1940 3
1941 9
1942 16
1943 10
1944 8
1945 8
1946 0
1947 7
1948 2
1949 8
1950 6
1951 4
1952 8
1953 13
1954 16
1955 6
1956 3
1957 3
1958 4
1959 3
1960 6
1961 4
1962 10
1963 7
1964 4
1965 6
1966 3
1967 3
1968 11
1969 8
1970 6
1971 3
1972 6
1973 4
1974 3
1975 4
1976 1
1977 10
1978 3
1979 8
1980 4
1981 3
1982 3
1983 8
1984 6
1985 3
1986 0
1987 1
1988 6
1989 8
1990 8
1991 10
1992 4
1993 0
1994 21
1995 4
1996 23
1997 10
1998 3
1999 10
2000 6
2001 0
2002 6
2003 8
2004 10
2005 21
2006 10
2007 22
2008 8
2009 8
2010 17
2011 6
2012 4
2013 0
2014 4
2015 15
2016 17
2017 8
2018 10
2019 1
2020 10
2021 16
2022 3
2023 2
2024 14
2025 10
2026 3
2027 4
2028 0
2029 9
2030 3
2031 8
2032 1
2033 4
2034 3
2035 4
2036 4
2037 2
2038 1
2039 10
2040 1
2041 11
2042 4
2043 23
2044 10
2045 0
2046 6
2047 4
2048 15
2049 8
2050 14
2051 12
2052 5
2053 4
2054 0
2055 20
2056 10
2057 3
2058 4
2059 3
2060 4
2061 3
2062 5
2063 6
2064 8
2065 8
2066 4
2067 23
2068 10
2069 4
2070 6
2071 4
2072 3
2073 7
2074 23
2075 8
2076 13
2077 10
2078 8
2079 7
2080 1
2081 3
2082 15
2083 12
2084 10
2085 3
2086 4
2087 9
2088 3
2089 23
2090 15
2091 6
2092 20
2093 14
2094 3
2095 14
2096 9
2097 9
2098 2
2099 3
2100 12
2101 14
2102 8
2103 0
2104 5
2105 9
2106 20
2107 4
2108 10
2109 11
2110 22
2111 9
2112 6
2113 8
2114 20
2115 3
2116 6
2117 3
2118 4
2119 3
2120 6
2121 12
2122 15
2123 9
2124 2
2125 10
2126 4
2127 3
2128 8
2129 16
2130 8
2131 10
2132 3
2133 11
2134 8
2135 9
2136 8
2137 3
2138 8
2139 17
2140 16
2141 1
2142 3
2143 4
2144 17
2145 6
2146 6
2147 3
2148 3
2149 4
2150 14
2151 9
2152 6
2153 8
2154 6
2155 4
2156 7
2157 17
2158 0
2159 3
2160 19
2161 13
2162 6
2163 3
2164 12
2165 4
2166 4
2167 6
2168 16
2169 16
2170 8
2171 15
2172 9
2173 4
2174 14
2175 13
2176 4
2177 7
2178 0
2179 5
2180 10
2181 4
2182 7
2183 8
2184 1
2185 3
2186 16
2187 10
2188 5
2189 3
2190 3
2191 6
2192 15
2193 14
2194 4
2195 11
2196 3
2197 17
2198 10
2199 17
2200 8
2201 8
2202 10
2203 6
2204 4
2205 4
2206 22
2207 23
2208 2
2209 8
2210 8
2211 10
2212 13
2213 3
2214 8
2215 7
2216 8
2217 1
2218 6
2219 3
2220 6
2221 10
2222 4
2223 16
2224 9
2225 4
2226 4
2227 4
2228 10
2229 23
2230 5
2231 11
2232 4
2233 1
2234 1
2235 17
2236 10
2237 8
2238 3
2239 16
2240 22
2241 13
2242 4
2243 23
2244 8
2245 12
2246 0
2247 13
2248 0
2249 3
2250 3
2251 6
2252 8
2253 7
2254 1
2255 8
2256 4
2257 10
2258 6
2259 8
2260 6
2261 0
2262 6
2263 3
2264 10
2265 8
2266 10
2267 12
2268 4
2269 10
2270 3
2271 11
2272 13
2273 10
2274 2
2275 14
2276 8
2277 3
2278 3
2279 14
2280 10
2281 11
2282 3
2283 3
2284 7
2285 5
2286 19
2287 22
2288 4
2289 8
2290 4
2291 6
2292 15
2293 6
2294 1
2295 8
2296 6
2297 7
2298 4
2299 8
2300 2
2301 3
2302 3
2303 0
2304 7
2305 3
2306 8
2307 6
2308 17
2309 2
2310 8
2311 10
2312 0
2313 10
2314 8
2315 10
2316 11
2317 2
2318 6
2319 16
2320 10
2321 6
2322 8
2323 13
2324 8
2325 8
2326 10
2327 1
2328 3
2329 9
2330 7
2331 20
2332 1
2333 3
2334 6
2335 3
2336 6
2337 10
2338 9
2339 3
2340 10
2341 1
2342 3
2343 6
2344 15
2345 15
2346 3
2347 4
2348 7
2349 8
2350 10
2351 8
2352 5
2353 0
2354 8
2355 8
2356 8
2357 8
2358 2
2359 8
2360 3
2361 14
2362 11
2363 0
2364 13
2365 17
2366 3
2367 5
2368 11
2369 8
2370 10
2371 3
2372 20
2373 10
2374 13
2375 3
2376 11
2377 2
2378 3
2379 8
2380 10
2381 9
2382 22
2383 15
2384 7
2385 16
2386 7
2387 1
2388 4
2389 11
2390 6
2391 10
2392 15
2393 6
2394 8
2395 8
2396 23
2397 16
2398 10
2399 11
2400 0
2401 0
2402 7
2403 8
2404 8
2405 14
2406 10
2407 15
2408 8
2409 1
2410 13
2411 4
2412 16
2413 11
2414 8
2415 8
2416 23
2417 4
2418 3
2419 1
2420 23
2421 0
2422 3
2423 3
2424 0
2425 9
2426 9
2427 10
2428 9
2429 14
2430 18
2431 10
2432 9
2433 13
2434 3
2435 8
2436 23
2437 1
2438 11
2439 8
2440 0
2441 3
2442 8
2443 16
2444 9
2445 15
2446 8
2447 15
2448 10
2449 0
2450 10
2451 3
2452 3
2453 9
2454 8
2455 18
2456 4
2457 1
2458 10
2459 4
2460 10
2461 8
2462 3
2463 18
2464 1
2465 10
2466 2
2467 23
2468 3
2469 1
2470 4
2471 8
2472 11
2473 16
2474 3
2475 10
2476 13
2477 10
2478 3
2479 6
2480 16
2481 4
2482 22
2483 8
2484 4
2485 8
2486 4
2487 0
2488 16
2489 10
2490 4
2491 10
2492 8
2493 4
2494 8
2495 6
2496 10
2497 13
2498 6
2499 10
2500 13
2501 0
2502 3
2503 16
2504 1
2505 10
2506 9
2507 10
2508 4
2509 0
2510 8
2511 4
2512 4
2513 10
2514 17
2515 4
2516 6
2517 10
2518 21
2519 3
2520 8
2521 17
2522 6
2523 12
2524 8
2525 8
2526 12
2527 4
2528 4
2529 15
2530 4
2531 4
2532 10
2533 6
2534 11
2535 4
2536 3
2537 10
2538 19
2539 1
2540 8
2541 10
2542 1
2543 17
2544 8
2545 3
2546 4
2547 8
2548 3
2549 4
2550 17
2551 4
2552 4
2553 8
2554 3
2555 8
2556 7
2557 4
2558 10
2559 10
2560 5
2561 8
2562 13
2563 15
2564 3
2565 4
2566 6
2567 0
2568 12
2569 9
2570 16
2571 4
2572 3
2573 6
2574 10
2575 8
2576 3
2577 23
2578 9
2579 6
2580 1
2581 3
2582 3
2583 7
2584 3
2585 8
2586 18
2587 6
2588 16
2589 23
2590 3
2591 10
2592 3
2593 14
2594 10
2595 6
2596 6
2597 20
2598 15
2599 6
2600 9
2601 16
2602 8
2603 4
2604 4
2605 1
2606 8
2607 9
2608 4
2609 10
2610 11
2611 8
2612 10
2613 3
2614 6
2615 4
2616 20
2617 22
2618 9
2619 0
2620 8
2621 4
2622 10
2623 10
2624 3
2625 16
2626 0
2627 3
2628 4
2629 4
2630 0
2631 9
2632 18
2633 8
2634 4
2635 4
2636 3
2637 4
2638 15
2639 9
2640 8
2641 7
2642 4
2643 20
2644 6
2645 6
2646 3
2647 16
2648 3
2649 3
2650 4
2651 3
2652 3
2653 7
2654 4
2655 4
2656 4
2657 4
2658 6
2659 6
2660 3
2661 3
2662 6
2663 15
2664 0
2665 3
2666 9
2667 6
2668 6
2669 4
2670 1
2671 6
2672 17
2673 10
2674 11
2675 16
2676 4
2677 6
2678 6
2679 4
2680 3
2681 10
2682 11
2683 8
2684 8
2685 10
2686 1
2687 6
2688 1
2689 0
2690 10
2691 10
2692 10
2693 8
2694 10
2695 6
2696 3
2697 6
2698 23
2699 3
2700 9
2701 20
2702 11
2703 23
2704 6
2705 10
2706 0
2707 0
2708 8
2709 10
2710 16
2711 3
2712 8
2713 1
2714 14
2715 3
2716 5
2717 6
2718 13
2719 6
2720 17
2721 8
2722 4
2723 6
2724 4
2725 11
2726 23
2727 16
2728 3
2729 1
2730 3
2731 5
2732 15
2733 6
2734 6
2735 3
2736 11
2737 8
2738 3
2739 3
2740 10
2741 6
2742 10
2743 10
2744 3
2745 3
2746 4
2747 20
2748 8
2749 6
2750 1
2751 10
2752 0
2753 1
2754 7
2755 15
2756 10
2757 1
2758 11
2759 9
2760 9
2761 7
2762 8
2763 1
2764 6
2765 9
2766 15
2767 3
2768 6
2769 4
2770 10
2771 14
2772 3
2773 1
2774 1
2775 4
2776 17
2777 4
2778 10
2779 14
2780 20
2781 0
2782 3
2783 16
2784 5
2785 23
2786 6
2787 16
2788 8
2789 10
2790 8
2791 8
2792 4
2793 10
2794 14
2795 10
2796 9
2797 8
2798 6
2799 10
2800 6
2801 6
2802 8
2803 10
2804 1
2805 0
2806 6
2807 17
2808 3
2809 23
2810 18
2811 17
2812 8
2813 4
2814 8
2815 3
2816 1
2817 12
2818 7
2819 8
2820 19
2821 8
2822 4
2823 13
2824 10
2825 1
2826 4
2827 10
2828 4
2829 7
2830 3
2831 10
2832 13
2833 10
2834 2
2835 1
2836 11
2837 9
2838 3
2839 8
2840 1
2841 10
2842 10
2843 4
2844 3
2845 10
2846 11
2847 8
2848 3
2849 16
2850 10
2851 8
2852 3
2853 3
2854 3
2855 4
2856 16
2857 3
2858 3
2859 1
2860 19
2861 8
2862 3
2863 16
2864 10
2865 3
2866 3
2867 8
2868 17
2869 23
2870 1
2871 8
2872 2
2873 8
2874 22
2875 2
2876 8
2877 2
2878 8
2879 4
2880 8
2881 6
2882 4
2883 7
2884 3
2885 19
2886 4
2887 9
2888 1
2889 5
2890 6
2891 8
2892 16
2893 5
2894 4
2895 6
2896 13
2897 3
2898 8
2899 3
2900 13
2901 8
2902 4
2903 8
2904 7
2905 3
2906 23
2907 11
2908 16
2909 16
2910 22
2911 3
2912 4
2913 4
2914 17
2915 3
2916 15
2917 5
2918 13
2919 6
2920 6
2921 4
2922 4
2923 8
2924 6
2925 4
2926 3
2927 10
2928 10
2929 7
2930 10
2931 8
2932 4
2933 10
2934 8
2935 3
2936 3
2937 1
2938 4
2939 1
2940 8
2941 8
2942 10
2943 8
2944 6
2945 6
2946 3
2947 0
2948 16
2949 10
2950 3
2951 10
2952 19
2953 8
2954 8
2955 2
2956 3
2957 0
2958 3
2959 4
2960 4
2961 12
2962 8
2963 4
2964 2
2965 17
2966 23
2967 6
2968 11
2969 22
2970 6
2971 8
2972 8
2973 6
2974 6
2975 8
2976 8
2977 6
2978 4
2979 3
2980 4
2981 10
2982 20
2983 9
2984 14
2985 8
2986 1
2987 10
2988 0
2989 11
2990 4
2991 0
2992 3
2993 15
2994 6
2995 4
2996 13
2997 4
2998 7
2999 8
3000 2
3001 4
3002 4
3003 17
3004 7
3005 14
3006 15
3007 6
3008 8
3009 4
3010 10
3011 13
3012 13
3013 10
3014 14
3015 8
3016 10
3017 23
3018 10
3019 20
3020 13
3021 0
3022 6
3023 14
3024 11
3025 20
3026 7
3027 6
3028 0
3029 17
3030 12
3031 1
3032 10
3033 3
3034 4
3035 0
3036 8
3037 3
3038 13
3039 3
3040 8
3041 21
3042 8
3043 21
3044 4
3045 6
3046 3
3047 10
3048 3
3049 3
3050 4
3051 22
3052 3
3053 11
3054 6
3055 23
3056 12
3057 3
3058 10
3059 15
3060 10
3061 10
3062 13
3063 3
3064 16
3065 1
3066 7
3067 6
3068 10
3069 1
3070 8
3071 6
3072 10
3073 4
3074 9
3075 3
3076 17
3077 12
3078 8
3079 11
3080 10
3081 4
3082 4
3083 10
3084 12
3085 1
3086 4
3087 10
3088 4
3089 15
3090 10
3091 10
3092 15
3093 6
3094 9
3095 6
3096 4
3097 23
3098 8
3099 16
3100 19
3101 4
3102 8
3103 4
3104 1
3105 16
3106 6
3107 15
3108 17
3109 3
3110 0
3111 11
3112 4
3113 5
3114 16
3115 6
3116 3
3117 3
3118 23
3119 4
3120 4
3121 3
3122 4
3123 3
3124 0
3125 3
3126 8
3127 3
3128 4
3129 6
3130 22
3131 6
3132 1
3133 15
3134 0
3135 10
3136 6
3137 7
3138 10
3139 8
3140 0
3141 4
3142 1
3143 8
3144 3
3145 10
3146 17
3147 3
3148 21
3149 16
3150 10
3151 3
3152 8
3153 2
3154 9
3155 9
3156 6
3157 3
3158 4
3159 4
3160 23
3161 8
3162 4
3163 12
3164 10
3165 10
3166 0
3167 1
3168 1
3169 16
3170 11
3171 0
3172 10
3173 7
3174 4
3175 3
3176 8
3177 10
3178 6
3179 0
3180 8
3181 8
3182 10
3183 10
3184 15
3185 3
3186 3
3187 3
3188 20
3189 11
3190 12
3191 2
3192 10
3193 8
3194 6
3195 4
3196 8
3197 4
3198 16
3199 4
3200 3
3201 10
3202 5
3203 8
3204 3
3205 17
3206 8
3207 4
3208 11
3209 8
3210 9
3211 3
3212 8
3213 3
3214 3
3215 8
3216 10
3217 8
3218 7
3219 4
3220 20
3221 3
3222 8
3223 1
3224 6
3225 4
3226 3
3227 8
3228 8
3229 10
3230 4
3231 8
3232 5
3233 6
3234 12
3235 8
3236 16
3237 3
3238 4
3239 10
3240 23
3241 14
3242 3
3243 10
3244 11
3245 0
3246 6
3247 5
3248 9
3249 10
3250 4
3251 10
3252 1
3253 1
3254 21
3255 10
3256 1
3257 1
3258 22
3259 8
3260 10
3261 9
3262 3
3263 10
3264 11
3265 8
3266 12
3267 1
3268 8
3269 8
3270 20
3271 21
3272 8
3273 12
3274 1
3275 11
3276 4
3277 13
3278 6
3279 10
3280 1
3281 3
3282 3
3283 13
3284 8
3285 10
3286 8
3287 10
3288 16
3289 3
3290 4
3291 12
3292 10
3293 10
3294 4
3295 6
3296 8
3297 10
3298 23
3299 11
3300 14
3301 17
3302 1
3303 12
3304 10
3305 11
3306 23
3307 1
3308 7
3309 3
3310 3
3311 6
3312 3
3313 20
3314 4
3315 0
3316 6
3317 4
3318 15
3319 6
3320 17
3321 1
3322 3
3323 10
3324 7
3325 12
3326 6
3327 21
3328 10
3329 4
3330 3
3331 16
3332 3
3333 9
3334 10
3335 1
3336 1
3337 8
3338 8
3339 12
3340 15
3341 9
3342 3
3343 0
3344 0
3345 20
3346 0
3347 3
3348 6
3349 4
3350 7
3351 8
3352 4
3353 13
3354 12
3355 3
3356 23
3357 3
3358 7
3359 3
3360 8
3361 12
3362 4
3363 3
3364 6
3365 23
3366 3
3367 3
3368 8
3369 6
3370 7
3371 4
3372 6
3373 2
3374 3
3375 15
3376 9
3377 1
3378 16
3379 10
3380 8
3381 4
3382 14
3383 3
3384 18
3385 10
3386 6
3387 1
3388 3
3389 11
3390 3
3391 1
3392 4
3393 4
3394 4
3395 7
3396 16
3397 16
3398 0
3399 6
3400 10
3401 8
3402 1
3403 3
3404 13
3405 6
3406 6
3407 3
3408 9
3409 4
3410 3
3411 1
3412 17
3413 12
3414 8
3415 3
3416 16
3417 4
3418 11
3419 12
3420 0
3421 10
3422 4
3423 6
3424 0
3425 4
3426 10
3427 3
3428 8
3429 12
3430 1
3431 9
3432 15
3433 6
3434 10
3435 1
3436 3
3437 12
3438 4
3439 11
3440 8
3441 13
3442 4
3443 8
3444 7
3445 4
3446 14
3447 12
3448 10
3449 3
3450 9
3451 6
3452 0
3453 3
3454 16
3455 20
3456 13
3457 10
3458 10
3459 3
3460 1
3461 13
3462 3
3463 17
3464 8
3465 10
3466 10
3467 8
3468 8
3469 7
3470 8
3471 4
3472 9
3473 22
3474 13
3475 8
3476 4
3477 12
3478 3
3479 10
3480 8
3481 8
3482 8
3483 15
3484 3
3485 9
3486 4
3487 21
3488 17
3489 6
3490 9
3491 8
3492 16
3493 23
3494 3
3495 8
3496 6
3497 8
3498 6
3499 20
3500 10
3501 6
3502 6
3503 4
3504 9
3505 16
3506 6
3507 7
3508 4
3509 6
3510 2
3511 15
3512 1
3513 15
3514 2
3515 6
3516 3
3517 1
3518 6
3519 10
3520 4
3521 10
3522 0
3523 4
3524 0
3525 0
3526 3
3527 12
3528 9
3529 8
3530 8
3531 4
3532 6
3533 4
3534 10
3535 8
3536 11
3537 10
3538 4
3539 6
3540 1
3541 6
3542 3
3543 7
3544 6
3545 11
3546 9
3547 10
3548 6
3549 8
3550 18
3551 3
3552 1
3553 3
3554 10
3555 4
3556 9
3557 22
3558 4
3559 2
3560 3
3561 4
3562 1
3563 6
3564 13
3565 4
3566 8
3567 5
3568 10
3569 6
3570 13
3571 6
3572 4
3573 1
3574 6
3575 4
3576 5
3577 23
3578 6
3579 10
3580 10
3581 4
3582 3
3583 7
3584 1
3585 1
3586 10
3587 1
3588 3
3589 8
3590 4
3591 20
3592 3
3593 0
3594 7
3595 10
3596 21
3597 10
3598 22
3599 4
3600 8
3601 18
3602 20
3603 4
3604 3
3605 4
3606 7
3607 8
3608 6
3609 10
3610 14
3611 3
3612 6
3613 6
3614 4
3615 4
3616 5
3617 3
3618 9
3619 3
3620 7
3621 16
3622 0
3623 4
3624 3
3625 8
3626 6
3627 0
3628 23
3629 1
3630 16
3631 3
3632 7
3633 1
3634 10
3635 7
3636 15
3637 4
3638 15
3639 4
3640 8
3641 4
3642 3
3643 4
3644 17
3645 13
3646 8
3647 23
3648 8
3649 6
3650 14
3651 8
3652 4
3653 6
3654 4
3655 3
3656 14
3657 4
3658 10
3659 16
3660 10
3661 4
3662 8
3663 4
3664 0
3665 0
3666 9
3667 10
3668 11
3669 10
3670 10
3671 8
3672 8
3673 8
3674 8
3675 8
3676 6
3677 8
3678 22
3679 13
3680 8
3681 15
3682 4
3683 8
3684 8
3685 8
3686 1
3687 1
3688 7
3689 8
3690 10
3691 6
3692 4
3693 16
3694 16
3695 3
3696 6
3697 10
3698 8
3699 23
3700 1
3701 3
3702 4
3703 6
3704 10
3705 4
3706 8
3707 9
3708 10
3709 3
3710 9
3711 15
3712 10
3713 2
3714 8
3715 8
3716 11
3717 23
3718 10
3719 6
3720 3
3721 8
3722 4
3723 3
3724 4
3725 7
3726 4
3727 1
3728 3
3729 4
3730 6
3731 3
3732 9
3733 4
3734 8
3735 0
3736 8
3737 9
3738 7
3739 20
3740 10
3741 3
3742 9
3743 10
3744 13
3745 3
3746 8
3747 10
3748 3
3749 4
3750 10
3751 13
3752 3
3753 15
3754 3
3755 4
3756 1
3757 10
3758 6
3759 3
3760 3
3761 1
3762 9
3763 4
3764 3
3765 4
3766 6
3767 3
3768 7
3769 8
3770 21
3771 23
3772 8
3773 10
3774 10
3775 4
3776 8
3777 13
3778 3
3779 10
3780 3
3781 4
3782 8
3783 3
3784 6
3785 4
3786 3
3787 8
3788 8
3789 3
3790 0
3791 23
3792 8
3793 4
3794 8
3795 4
3796 15
3797 7
3798 6
3799 10
3800 6
3801 10
3802 17
3803 14
3804 15
3805 11
3806 6
3807 3
3808 6
3809 3
3810 4
3811 8
3812 20
3813 4
3814 10
3815 13
3816 9
3817 8
3818 8
3819 22
3820 22
3821 7
3822 10
3823 6
3824 9
3825 23
3826 8
3827 3
3828 22
3829 0
3830 8
3831 4
3832 8
3833 10
3834 8
3835 9
3836 3
3837 12
3838 6
3839 15
3840 5
3841 10
3842 8
3843 14
3844 1
3845 2
3846 15
3847 0
3848 8
3849 3
3850 4
3851 8
3852 8
3853 4
3854 8
3855 15
3856 10
3857 8
3858 4
3859 8
3860 10
3861 8
3862 2
3863 9
3864 15
3865 4
3866 10
3867 10
3868 10
3869 4
3870 9
3871 15
3872 3
3873 8
3874 8
3875 4
3876 4
3877 10
3878 17
3879 20
3880 3
3881 10
3882 8
3883 3
3884 20
3885 16
3886 8
3887 20
3888 8
3889 10
3890 3
3891 8
3892 8
3893 16
3894 8
3895 3
3896 3
3897 6
3898 7
3899 6
3900 3
3901 10
3902 8
3903 17
3904 4
3905 15
3906 8
3907 6
3908 1
3909 4
3910 6
3911 9
3912 8
3913 6
3914 2
3915 1
3916 8
3917 9
3918 8
3919 0
3920 1
3921 8
3922 4
3923 3
3924 8
3925 4
3926 22
3927 11
3928 3
3929 1
3930 3
3931 1
3932 15
3933 4
3934 8
3935 7
3936 5
3937 6
3938 10
3939 20
3940 20
3941 6
3942 8
3943 17
3944 3
3945 0
3946 3
3947 8
3948 9
3949 4
3950 3
3951 10
3952 17
3953 10
3954 3
3955 19
3956 3
3957 3
3958 8
3959 16
3960 9
3961 1
3962 3
3963 6
3964 11
3965 6
3966 6
3967 4
3968 13
3969 8
3970 14
3971 12
3972 3
3973 10
3974 3
3975 8
3976 10
3977 8
3978 8
3979 6
3980 8
3981 5
3982 22
3983 20
3984 3
3985 4
3986 8
3987 6
3988 4
3989 8
3990 3
3991 10
3992 10
3993 9
3994 10
3995 1
3996 4
3997 4
3998 20
3999 3
4000 4
4001 6
4002 4
4003 8
4004 1
4005 13
4006 6
4007 4
4008 8
4009 16
4010 3
4011 4
4012 3
4013 10
4014 10
4015 7
4016 4
4017 9
4018 8
4019 3
4020 4
4021 9
4022 4
4023 10
4024 3
4025 4
4026 3
4027 2
4028 1
4029 5
4030 7
4031 2
4032 10
4033 3
4034 4
4035 22
4036 15
4037 3
4038 17
4039 9
4040 8
4041 9
4042 6
4043 15
4044 22
4045 4
4046 8
4047 4
4048 8
4049 3
4050 4
4051 15
4052 10
4053 4
4054 15
4055 3
4056 6
4057 8
4058 3
4059 0
4060 10
4061 9
4062 23
4063 4
4064 7
4065 1
4066 3
4067 3
4068 0
4069 8
4070 11
4071 8
4072 16
4073 10
4074 4
4075 4
4076 10
4077 0
4078 2
4079 22
4080 10
4081 8
4082 3
4083 0
4084 7
4085 20
4086 6
4087 8
4088 6
4089 3
4090 1
4091 12
4092 8
4093 1
4094 12
4095 3
4096 4
4097 3
4098 3
4099 1
4100 8
4101 4
4102 10
4103 10
4104 6
4105 12
4106 6
4107 3
4108 1
4109 22
4110 19
4111 4
4112 6
4113 8
4114 8
4115 16
4116 4
4117 8
4118 15
4119 12
4120 4
4121 6
4122 4
4123 16
4124 6
4125 3
4126 10
4127 3
4128 4
4129 7
4130 3
4131 4
4132 3
4133 4
4134 4
4135 10
4136 0
4137 8
4138 0
4139 10
4140 0
4141 8
4142 10
4143 4
4144 3
4145 4
4146 3
4147 6
4148 3
4149 8
4150 6
4151 4
4152 3
4153 10
4154 8
4155 10
4156 8
4157 6
4158 6
4159 6
4160 21
4161 7
4162 6
4163 3
4164 3
4165 23
4166 10
4167 7
4168 4
4169 8
4170 8
4171 17
4172 10
4173 7
4174 8
4175 9
4176 6
4177 8
4178 7
4179 3
4180 7
4181 10
4182 15
4183 4
4184 3
4185 7
4186 10
4187 11
4188 0
4189 22
4190 8
4191 4
4192 0
4193 8
4194 3
4195 3
4196 10
4197 7
4198 4
4199 23
4200 8
4201 0
4202 23
4203 10
4204 0
4205 0
4206 10
4207 4
4208 16
4209 10
4210 11
4211 3
4212 15
4213 20
4214 20
4215 23
4216 4
4217 3
4218 10
4219 9
4220 9
4221 14
4222 0
4223 8
4224 8
4225 7
4226 21
4227 10
4228 8
4229 8
4230 3
4231 3
4232 10
4233 1
4234 17
4235 23
4236 23
4237 6
4238 6
4239 7
4240 4
4241 6
4242 15
4243 6
4244 3
4245 11
4246 3
4247 8
4248 9
4249 6
4250 8
4251 4
4252 10
4253 8
4254 3
4255 4
4256 12
4257 4
4258 4
4259 4
4260 21
4261 20
4262 4
4263 10
4264 8
4265 8
4266 4
4267 3
4268 6
4269 17
4270 9
4271 17
4272 3
4273 6
4274 11
4275 6
4276 10
4277 5
4278 10
4279 11
4280 8
4281 3
4282 10
4283 9
4284 6
4285 15
4286 10
4287 3
4288 14
4289 4
4290 4
4291 3
4292 1
4293 10
4294 5
4295 0
4296 4
4297 9
4298 8
4299 1
4300 4
4301 8
4302 8
4303 14
4304 10
4305 4
4306 0
4307 21
4308 10
4309 6
4310 9
4311 8
4312 23
4313 6
4314 8
4315 3
4316 1
4317 3
4318 4
4319 4
4320 8
4321 10
4322 3
4323 3
4324 1
4325 12
4326 6
4327 3
4328 8
4329 23
4330 6
4331 8
4332 5
4333 3
4334 4
4335 15
4336 4
4337 21
4338 1
4339 3
4340 19
4341 15
4342 11
4343 4
4344 4
4345 12
4346 11
4347 3
4348 4
4349 4
4350 7
4351 10
4352 7
4353 4
4354 10
4355 10
4356 3
4357 10
4358 10
4359 8
4360 4
4361 10
4362 11
4363 4
4364 19
4365 7
4366 3
4367 14
4368 17
4369 14
4370 7
4371 6
4372 17
4373 8
4374 3
4375 3
4376 3
4377 3
4378 2
4379 10
4380 17
4381 8
4382 6
4383 14
4384 7
4385 6
4386 10
4387 6
4388 1
4389 3
4390 2
4391 8
4392 10
4393 3
4394 3
4395 6
4396 3
4397 4
4398 8
4399 1
4400 8
4401 21
4402 10
4403 10
4404 4
4405 10
4406 8
4407 3
4408 16
4409 13
4410 10
4411 10
4412 3
4413 1
4414 1
4415 4
4416 12
4417 8
4418 8
4419 10
4420 8
4421 7
4422 0
4423 3
4424 4
4425 10
4426 4
4427 17
4428 8
4429 10
4430 7
4431 8
4432 3
4433 10
4434 3
4435 8
4436 22
4437 8
4438 4
4439 6
4440 7
4441 6
4442 10
4443 11
4444 8
4445 8
4446 10
4447 8
4448 3
4449 8
4450 15
4451 6
4452 20
4453 20
4454 8
4455 8
4456 17
4457 8
4458 10
4459 9
4460 4
4461 20
4462 8
4463 4
4464 12
4465 10
4466 4
4467 9
4468 8
4469 6
4470 8
4471 8
4472 4
4473 2
4474 6
4475 0
4476 15
4477 6
4478 13
4479 7
4480 3
4481 4
4482 3
4483 6
4484 0
4485 8
4486 7
4487 3
4488 10
4489 8
4490 8
4491 8
4492 22
4493 4
4494 4
4495 10
4496 10
4497 17
4498 13
4499 18
4500 17
4501 10
4502 8
4503 9
4504 10
4505 6
4506 10
4507 10
4508 9
4509 10
4510 8
4511 22
4512 10
4513 23
4514 0
4515 7
4516 4
4517 8
4518 1
4519 7
4520 0
4521 7
4522 0
4523 9
4524 3
4525 7
4526 3
4527 3
4528 15
4529 0
4530 14
4531 11
4532 6
4533 3
4534 13
4535 3
4536 8
4537 3
4538 1
4539 3
4540 3
4541 8
4542 3
4543 6
4544 9
4545 17
4546 8
4547 9
4548 22
4549 23
4550 8
4551 4
4552 10
4553 8
4554 8
4555 0
4556 6
4557 1
4558 4
4559 3
4560 8
4561 8
4562 4
4563 6
4564 8
4565 7
4566 4
4567 4
4568 5
4569 10
4570 22
4571 23
4572 4
4573 8
4574 17
4575 6
4576 6
4577 9
4578 10
4579 1
4580 8
4581 4
4582 19
4583 8
4584 15
4585 22
4586 3
4587 1
4588 4
4589 3
4590 10
4591 3
4592 9
4593 17
4594 4
4595 11
4596 8
4597 4
4598 22
4599 10
4600 4
4601 7
4602 1
4603 6
4604 23
4605 10
4606 3
4607 5
4608 0
4609 12
4610 4
4611 8
4612 4
4613 14
4614 4
4615 9
4616 9
4617 6
4618 20
4619 17
4620 10
4621 10
4622 8
4623 15
4624 10
4625 15
4626 10
4627 9
4628 3
4629 6
4630 6
4631 10
4632 3
4633 8
4634 21
4635 8
4636 3
4637 6
4638 8
4639 7
4640 4
4641 3
4642 1
4643 16
4644 8
4645 6
4646 7
4647 3
4648 10
4649 5
4650 4
4651 14
4652 7
4653 6
4654 1
4655 10
4656 17
4657 14
4658 8
4659 0
4660 6
4661 3
4662 23
4663 8
4664 8
4665 3
4666 11
4667 6
4668 12
4669 10
4670 8
4671 23
4672 10
4673 0
4674 13
4675 4
4676 8
4677 10
4678 3
4679 16
4680 16
4681 3
4682 4
4683 16
4684 10
4685 4
4686 3
4687 6
4688 0
4689 3
4690 10
4691 6
4692 3
4693 8
4694 0
4695 12
4696 12
4697 8
4698 8
4699 3
4700 1
4701 10
4702 19
4703 4
4704 10
4705 7
4706 8
4707 14
4708 8
4709 0
4710 10
4711 10
4712 8
4713 10
4714 10
4715 15
4716 6
4717 6
4718 8
4719 4
4720 7
4721 3
4722 23
4723 4
4724 14
4725 4
4726 6
4727 6
4728 0
4729 8
4730 7
4731 10
4732 8
4733 10
4734 9
4735 21
4736 2
4737 6
4738 15
4739 7
4740 19
4741 6
4742 3
4743 3
4744 15
4745 17
4746 15
4747 10
4748 23
4749 8
4750 2
4751 10
4752 3
4753 9
4754 11
4755 16
4756 3
4757 7
4758 8
4759 16
4760 6
4761 6
4762 20
4763 1
4764 7
4765 3
4766 8
4767 4
4768 17
4769 4
4770 4
4771 8
4772 8
4773 12
4774 4
4775 11
4776 5
4777 10
4778 2
4779 2
4780 10
4781 6
4782 3
4783 3
4784 10
4785 2
4786 8
4787 16
4788 8
4789 6
4790 9
4791 15
4792 3
4793 8
4794 3
4795 4
4796 7
4797 13
4798 9
4799 14
4800 3
4801 22
4802 10
4803 2
4804 10
4805 18
4806 16
4807 8
4808 8
4809 6
4810 0
4811 0
4812 8
4813 0
4814 17
4815 6
4816 14
4817 10
4818 3
4819 16
4820 3
4821 15
4822 6
4823 3
4824 4
4825 23
4826 8
4827 4
4828 14
4829 10
4830 10
4831 6
4832 10
4833 3
4834 4
4835 9
4836 20
4837 17
4838 8
4839 6
4840 15
4841 3
4842 3
4843 1
4844 12
4845 8
4846 1
4847 3
4848 4
4849 19
4850 21
4851 4
4852 15
4853 4
4854 14
4855 3
4856 8
4857 6
4858 8
4859 15
4860 8
4861 3
4862 1
4863 4
4864 9
4865 8
4866 6
4867 10
4868 10
4869 1
4870 19
4871 16
4872 10
4873 8
4874 10
4875 4
4876 1
4877 16
4878 3
4879 6
4880 16
4881 17
4882 6
4883 9
4884 6
4885 6
4886 8
4887 10
4888 6
4889 4
4890 1
4891 7
4892 8
4893 8
4894 10
4895 8
4896 8
4897 8
4898 10
4899 8
4900 10
4901 6
4902 6
4903 2
4904 4
4905 3
4906 6
4907 16
4908 4
4909 22
4910 7
4911 6
4912 8
4913 6
4914 3
4915 1
4916 0
4917 8
4918 12
4919 4
4920 7
4921 17
4922 4
4923 17
4924 4
4925 4
4926 6
4927 6
4928 6
4929 4
4930 8
4931 0
4932 6
4933 4
4934 3
4935 5
4936 7
4937 10
4938 6
4939 4
4940 11
4941 7
4942 4
4943 3
4944 8
4945 15
4946 3
4947 10
4948 11
4949 14
4950 4
4951 4
4952 13
4953 3
4954 10
4955 4
4956 8
4957 10
4958 3
4959 20
4960 0
4961 10
4962 7
4963 8
4964 3
4965 6
4966 6
4967 2
4968 8
4969 3
4970 8
4971 3
4972 8
4973 22
4974 8
4975 3
4976 6
4977 1
4978 7
4979 7
4980 17
4981 10
4982 4
4983 3
4984 8
4985 17
4986 6
4987 17
4988 10
4989 6
4990 11
4991 6
4992 6
4993 7
4994 3
4995 6
4996 8
4997 15
4998 23
4999 8
5000 4
5001 4
5002 8
5003 4
5004 20
5005 4
5006 6
5007 1
5008 8
5009 15
5010 8
5011 3
5012 6
5013 3
5014 17
5015 4
5016 10
5017 20
5018 2
5019 8
5020 23
5021 10
5022 4
5023 3
5024 4
5025 10
5026 4
5027 4
5028 15
5029 1
5030 8
5031 15
5032 8
5033 3
5034 3
5035 8
5036 4
5037 9
5038 7
5039 3
5040 1
5041 3
5042 1
5043 20
5044 6
5045 14
5046 4
5047 8
5048 7
5049 3
5050 10
5051 9
5052 4
5053 8
5054 3
5055 9
5056 10
5057 11
5058 13
5059 3
5060 8
5061 2
5062 17
5063 4
5064 9
5065 10
5066 4
5067 4
5068 8
5069 9
5070 23
5071 6
5072 3
5073 6
5074 20
5075 6
5076 10
5077 0
5078 3
5079 1
5080 16
5081 10
5082 10
5083 8
5084 8
5085 17
5086 21
5087 3
5088 10
5089 15
5090 10
5091 18
5092 3
5093 3
5094 12
5095 7
5096 12
5097 6
5098 4
5099 3
5100 8
5101 20
5102 6
5103 20
5104 4
5105 7
5106 8
5107 13
5108 10
5109 4
5110 9
5111 8
5112 0
5113 6
5114 6
5115 16
5116 10
5117 4
5118 3
5119 15
5120 10
5121 23
5122 4
5123 22
5124 7
5125 6
5126 3
5127 8
5128 6
5129 1
5130 9
5131 8
5132 10
5133 1
5134 6
5135 1
5136 8
5137 22
5138 7
5139 6
5140 14
5141 3
5142 8
5143 8
5144 23
5145 4
5146 3
5147 6
5148 3
5149 17
5150 6
5151 10
5152 7
5153 23
5154 13
5155 17
5156 14
5157 0
5158 4
5159 6
5160 1
5161 13
5162 8
5163 4
5164 23
5165 3
5166 7
5167 0
5168 8
5169 10
5170 0
5171 3
5172 8
5173 4
5174 8
5175 10
5176 4
5177 7
5178 6
5179 3
5180 20
5181 3
5182 6
5183 4
5184 7
5185 8
5186 13
5187 10
5188 8
5189 9
5190 4
5191 6
5192 1
5193 0
5194 9
5195 10
5196 13
5197 1
5198 17
5199 2
5200 23
5201 20
5202 8
5203 6
5204 3
5205 10
5206 1
5207 4
5208 8
5209 2
5210 6
5211 10
5212 7
5213 8
5214 16
5215 10
5216 10
5217 14
5218 8
5219 3
5220 8
5221 8
5222 4
5223 19
5224 3
5225 0
5226 8
5227 12
5228 8
5229 0
5230 8
5231 7
5232 9
5233 0
5234 3
5235 8
5236 11
5237 4
5238 14
5239 8
5240 8
5241 13
5242 17
5243 12
5244 16
5245 20
5246 9
5247 10
5248 10
5249 1
5250 1
5251 3
5252 22
5253 4
5254 10
5255 0
5256 3
5257 3
5258 6
5259 6
5260 10
5261 10
5262 6
5263 4
5264 4
5265 4
5266 8
5267 17
5268 19
5269 16
5270 9
5271 21
5272 9
5273 6
5274 5
5275 9
5276 4
5277 22
5278 11
5279 9
5280 16
5281 6
5282 8
5283 8
5284 8
5285 4
5286 23
5287 8
5288 3
5289 3
5290 20
5291 16
5292 1
5293 3
5294 7
5295 1
5296 4
5297 3
5298 5
5299 4
5300 10
5301 4
5302 6
5303 6
5304 11
5305 23
5306 3
5307 4
5308 4
5309 10
5310 11
5311 8
5312 4
5313 12
5314 4
5315 4
5316 2
5317 3
5318 8
5319 6
5320 13
5321 10
5322 8
5323 4
5324 3
5325 20
5326 15
5327 17
5328 17
5329 4
5330 20
5331 6
5332 23
5333 0
5334 6
5335 5
5336 9
5337 6
5338 5
5339 22
5340 5
5341 15
5342 13
5343 16
5344 3
5345 4
5346 10
5347 8
5348 3
5349 10
5350 21
5351 15
5352 7
5353 1
5354 8
5355 4
5356 6
5357 22
5358 10
5359 10
5360 10
5361 3
5362 9
5363 3
5364 3
5365 0
5366 10
5367 12
5368 3
5369 1
5370 3
5371 6
5372 3
5373 8
5374 16
5375 2
5376 15
5377 10
5378 1
5379 7
5380 0
5381 1
5382 3
5383 6
5384 4
5385 8
5386 3
5387 11
5388 1
5389 3
5390 23
5391 13
5392 11
5393 3
5394 9
5395 15
5396 7
5397 0
5398 4
5399 8
5400 9
5401 8
5402 10
5403 20
5404 10
5405 8
5406 14
5407 20
5408 4
5409 12
5410 1
5411 1
5412 1
5413 12
5414 16
5415 3
5416 4
5417 14
5418 11
5419 8
5420 11
5421 4
5422 7
5423 8
5424 10
5425 6
5426 8
5427 15
5428 4
5429 6
5430 10
5431 4
5432 10
5433 10
5434 4
5435 4
5436 10
5437 4
5438 6
5439 10
5440 4
5441 3
5442 4
5443 3
5444 6
5445 4
5446 16
5447 15
5448 8
5449 10
5450 11
5451 8
5452 10
5453 3
5454 9
5455 3
5456 8
5457 1
5458 4
5459 3
5460 10
5461 8
5462 17
5463 6
5464 18
5465 4
5466 9
5467 4
5468 8
5469 6
5470 3
5471 1
5472 8
5473 4
5474 3
5475 10
5476 15
5477 8
5478 8
5479 3
5480 0
5481 6
5482 4
5483 7
5484 3
5485 4
5486 8
5487 10
5488 3
5489 23
5490 0
5491 6
5492 10
5493 8
5494 10
5495 3
5496 11
5497 8
5498 8
5499 10
5500 22
5501 6
5502 10
5503 8
5504 0
5505 8
5506 4
5507 5
5508 8
5509 16
5510 6
5511 15
5512 14
5513 10
5514 1
5515 3
5516 3
5517 14
5518 4
5519 6
5520 10
5521 10
5522 14
5523 3
5524 3
5525 8
5526 3
5527 9
5528 3
5529 16
5530 11
5531 1
5532 10
5533 7
5534 3
5535 13
5536 3
5537 3
5538 4
5539 9
5540 7
5541 6
5542 10
5543 3
5544 10
5545 4
5546 8
5547 7
5548 10
5549 17
5550 8
5551 3
5552 3
5553 7
5554 10
5555 8
5556 0
5557 17
5558 4
5559 4
5560 10
5561 6
5562 3
5563 3
5564 14
5565 13
5566 8
5567 4
5568 10
5569 8
5570 3
5571 3
5572 3
5573 3
5574 8
5575 8
5576 7
5577 4
5578 10
5579 6
5580 2
5581 5
5582 3
5583 14
5584 6
5585 10
5586 7
5587 18
5588 7
5589 1
5590 10
5591 6
5592 9
5593 4
5594 1
5595 0
5596 10
5597 1
5598 0
5599 10
5600 3
5601 3
5602 7
5603 21
5604 11
5605 10
5606 1
5607 15
5608 21
5609 6
5610 0
5611 19
5612 8
5613 6
5614 4
5615 10
5616 7
5617 3
5618 3
5619 8
5620 9
5621 1
5622 6
5623 8
5624 4
5625 8
5626 1
5627 9
5628 15
5629 11
5630 1
5631 8
5632 17
5633 10
5634 17
5635 20
5636 21
5637 8
5638 8
5639 6
5640 3
5641 0
5642 6
5643 8
5644 14
5645 1
5646 20
5647 3
5648 8
5649 8
5650 10
5651 0
5652 8
5653 16
5654 20
5655 8
5656 22
5657 8
5658 5
5659 14
5660 8
5661 10
5662 22
5663 0
5664 8
5665 8
5666 16
5667 16
5668 2
5669 14
5670 3
5671 4
5672 11
5673 1
5674 8
5675 4
5676 10
5677 10
5678 7
5679 15
5680 5
5681 0
5682 12
5683 4
5684 13
5685 10
5686 9
5687 3
5688 2
5689 4
5690 0
5691 1
5692 4
5693 3
5694 8
5695 23
5696 3
5697 10
5698 11
5699 8
5700 23
5701 4
5702 8
5703 8
5704 4
5705 15
5706 4
5707 22
5708 4
5709 4
5710 3
5711 4
5712 3
5713 20
5714 4
5715 10
5716 8
5717 17
5718 8
5719 7
5720 3
5721 4
5722 3
5723 3
5724 6
5725 8
5726 3
5727 0
5728 10
5729 2
5730 9
5731 3
5732 8
5733 22
5734 10
5735 5
5736 10
5737 10
5738 6
5739 6
5740 8
5741 3
5742 1
5743 16
5744 0
5745 10
5746 4
5747 4
5748 4
5749 20
5750 15
5751 10
5752 13
5753 10
5754 15
5755 10
5756 0
5757 6
5758 21
5759 23
5760 8
5761 1
5762 4
5763 1
5764 8
5765 0
5766 3
5767 10
5768 10
5769 15
5770 4
5771 9
5772 8
5773 4
5774 3
5775 15
5776 3
5777 14
5778 7
5779 10
5780 8
5781 11
5782 4
5783 20
5784 8
5785 14
5786 6
5787 1
5788 10
5789 3
5790 16
5791 19
5792 4
5793 10
5794 4
5795 10
5796 6
5797 8
5798 4
5799 3
5800 1
5801 12
5802 4
5803 4
5804 10
5805 7
5806 4
5807 6
5808 1
5809 6
5810 8
5811 3
5812 4
5813 10
5814 3
5815 3
5816 8
5817 4
5818 8
5819 4
5820 1
5821 0
5822 8
5823 19
5824 10
5825 8
5826 10
5827 13
5828 3
5829 14
5830 5
5831 6
5832 3
5833 11
5834 3
5835 8
5836 3
5837 0
5838 17
5839 5
5840 3
5841 12
5842 12
5843 16
5844 3
5845 11
5846 10
5847 1
5848 7
5849 20
5850 4
5851 2
5852 8
5853 8
5854 6
5855 7
5856 4
5857 15
5858 4
5859 3
5860 8
5861 8
5862 5
5863 3
5864 6
5865 16
5866 8
5867 8
5868 8
5869 4
5870 10
5871 10
5872 4
5873 6
5874 3
5875 23
5876 5
5877 7
5878 10
5879 16
5880 3
5881 10
5882 4
5883 10
5884 3
5885 0
5886 0
5887 14
5888 10
5889 8
5890 7
5891 6
5892 3
5893 8
5894 10
5895 6
5896 3
5897 3
5898 3
5899 10
5900 6
5901 5
5902 6
5903 3
5904 10
5905 6
5906 8
5907 21
5908 1
5909 9
5910 4
5911 23
5912 15
5913 1
5914 6
5915 10
5916 4
5917 14
5918 4
5919 0
5920 4
5921 13
5922 20
5923 3
5924 5
5925 15
5926 4
5927 1
5928 0
5929 7
5930 9
5931 11
5932 7
5933 17
5934 7
5935 8
5936 3
5937 10
5938 9
5939 10
5940 15
5941 3
5942 4
5943 10
5944 4
5945 10
5946 16
5947 4
5948 12
5949 1
5950 11
5951 6
5952 7
5953 0
5954 10
5955 8
5956 7
5957 13
5958 3
5959 6
5960 4
5961 1
5962 1
5963 10
5964 4
5965 4
5966 4
5967 3
5968 1
5969 1
5970 8
5971 11
5972 3
5973 13
5974 19
5975 6
5976 8
5977 4
5978 0
5979 8
5980 10
5981 10
5982 9
5983 4
5984 10
5985 10
5986 1
5987 10
5988 10
5989 10
5990 3
5991 11
5992 9
5993 10
5994 16
5995 10
5996 3
5997 8
5998 10
5999 11
6000 3
6001 3
6002 8
6003 4
6004 4
6005 8
6006 12
6007 23
6008 10
6009 3
6010 8
6011 4
6012 4
6013 10
6014 3
6015 1
6016 6
6017 14
6018 8
6019 1
6020 20
6021 16
6022 8
6023 12
6024 3
6025 10
6026 6
6027 8
6028 13
6029 3
6030 7
6031 10
6032 10
6033 10
6034 0
6035 3
6036 6
6037 20
6038 10
6039 3
6040 8
6041 10
6042 8
6043 3
6044 8
6045 10
6046 4
6047 7
6048 18
6049 3
6050 8
6051 8
6052 9
6053 6
6054 10
6055 15
6056 2
6057 15
6058 10
6059 6
6060 3
6061 10
6062 14
6063 6
6064 23
6065 22
6066 7
6067 8
6068 4
6069 9
6070 9
6071 4
6072 19
6073 9
6074 7
6075 6
6076 8
6077 11
6078 8
6079 10
6080 20
6081 7
6082 8
6083 4
6084 6
6085 10
6086 4
6087 4
6088 13
6089 7
6090 4
6091 8
6092 0
6093 3
6094 17
6095 6
6096 22
6097 8
6098 9
6099 0
6100 8
6101 3
6102 20
6103 6
6104 3
6105 3
6106 8
6107 4
6108 11
6109 10
6110 3
6111 8
6112 11
6113 4
6114 7
6115 4
6116 9
6117 3
6118 8
6119 8
6120 4
6121 10
6122 8
6123 4
6124 9
6125 3
6126 6
6127 6
6128 10
6129 4
6130 6
6131 6
6132 6
6133 0
6134 10
6135 7
6136 4
6137 8
6138 3
6139 14
6140 4
6141 23
6142 4
6143 23
6144 8
6145 20
6146 16
6147 14
6148 15
6149 8
6150 23
6151 10
6152 0
6153 4
6154 6
6155 3
6156 21
6157 10
6158 0
6159 1
6160 6
6161 8
6162 8
6163 5
6164 3
6165 4
6166 8
6167 3
6168 7
6169 3
6170 9
6171 0
6172 3
6173 10
6174 3
6175 10
6176 17
6177 3
6178 20
6179 23
6180 8
6181 9
6182 8
6183 0
6184 8
6185 14
6186 4
6187 10
6188 7
6189 1
6190 10
6191 1
6192 4
6193 3
6194 4
6195 0
6196 9
6197 20
6198 10
6199 6
6200 3
6201 3
6202 15
6203 2
6204 17
6205 8
6206 6
6207 15
6208 16
6209 4
6210 11
6211 8
6212 8
6213 6
6214 10
6215 6
6216 8
6217 1
6218 10
6219 3
6220 2
6221 10
6222 10
6223 6
6224 1
6225 8
6226 8
6227 8
6228 8
6229 8
6230 20
6231 11
6232 15
6233 8
6234 8
6235 3
6236 1
6237 3
6238 11
6239 4
6240 8
6241 4
6242 17
6243 8
6244 12
6245 8
6246 6
6247 4
6248 10
6249 3
6250 4
6251 4
6252 4
6253 17
6254 8
6255 4
6256 4
6257 4
6258 6
6259 8
6260 4
6261 22
6262 9
6263 10
6264 4
6265 8
6266 7
6267 4
6268 3
6269 17
6270 8
6271 15
6272 1
6273 20
6274 18
6275 9
6276 16
6277 4
6278 9
6279 9
6280 22
6281 1
6282 0
6283 6
6284 6
6285 2
6286 3
6287 8
6288 0
6289 17
6290 3
6291 15
6292 10
6293 15
6294 10
6295 4
6296 8
6297 10
6298 4
6299 15
6300 3
6301 20
6302 10
6303 21
6304 7
6305 3
6306 4
6307 13
6308 8
6309 2
6310 3
6311 4
6312 4
6313 15
6314 8
6315 4
6316 0
6317 3
6318 0
6319 4
6320 9
6321 8
6322 10
6323 3
6324 15
6325 6
6326 12
6327 14
6328 6
6329 3
6330 8
6331 5
6332 7
6333 15
6334 3
6335 11
6336 9
6337 0
6338 4
6339 10
6340 1
6341 3
6342 15
6343 5
6344 8
6345 4
6346 8
6347 9
6348 13
6349 15
6350 3
6351 6
6352 1
6353 3
6354 1
6355 3
6356 15
6357 6
6358 15
6359 11
6360 15
6361 2
6362 6
6363 16
6364 1
6365 17
6366 14
6367 21
6368 5
6369 4
6370 3
6371 3
6372 8
6373 4
6374 4
6375 7
6376 10
6377 5
6378 4
6379 5
6380 13
6381 3
6382 13
6383 9
6384 10
6385 3
6386 4
6387 10
6388 6
6389 11
6390 10
6391 8
6392 10
6393 8
6394 20
6395 7
6396 16
6397 15
6398 4
6399 8
6400 7
6401 4
6402 6
6403 14
6404 1
6405 3
6406 1
6407 8
6408 3
6409 2
6410 4
6411 11
6412 9
6413 4
6414 3
6415 21
6416 10
6417 4
6418 6
6419 10
6420 4
6421 1
6422 8
6423 15
6424 6
6425 0
6426 5
6427 16
6428 3
6429 17
6430 14
6431 10
6432 4
6433 7
6434 3
6435 10
6436 8
6437 20
6438 3
6439 8
6440 8
6441 8
6442 4
6443 9
6444 22
6445 14
6446 7
6447 4
6448 20
6449 8
6450 18
6451 1
6452 1
6453 2
6454 4
6455 6
6456 17
6457 23
6458 3
6459 10
6460 13
6461 4
6462 6
6463 9
6464 8
6465 9
6466 17
6467 20
6468 3
6469 3
6470 7
6471 10
6472 10
6473 20
6474 11
6475 4
6476 3
6477 3
6478 20
6479 3
6480 6
6481 9
6482 7
6483 15
6484 12
6485 20
6486 4
6487 4
6488 8
6489 1
6490 6
6491 17
6492 8
6493 10
6494 3
6495 15
6496 15
6497 16
6498 3
6499 8
6500 3
6501 1
6502 11
6503 4
6504 10
6505 11
6506 23
6507 8
6508 17
6509 3
6510 16
6511 6
6512 3
6513 16
6514 22
6515 13
6516 10
6517 8
6518 4
6519 6
6520 10
6521 1
6522 3
6523 8
6524 4
6525 7
6526 7
6527 4
6528 3
6529 4
6530 11
6531 10
6532 8
6533 15
6534 3
6535 3
6536 20
6537 20
6538 17
6539 22
6540 19
6541 3
6542 3
6543 9
6544 7
6545 3
6546 21
6547 3
6548 4
6549 8
6550 10
6551 8
6552 4
6553 10
6554 6
6555 14
6556 10
6557 3
6558 4
6559 12
6560 13
6561 8
6562 10
6563 2
6564 4
6565 6
6566 8
6567 8
6568 10
6569 1
6570 6
6571 22
6572 3
6573 8
6574 17
6575 3
6576 8
6577 8
6578 10
6579 6
6580 3
6581 10
6582 9
6583 3
6584 14
6585 5
6586 3
6587 22
6588 11
6589 3
6590 3
6591 3
6592 4
6593 10
6594 0
6595 3
6596 6
6597 2
6598 20
6599 4
6600 3
6601 10
6602 8
6603 10
6604 10
6605 10
6606 4
6607 4
6608 23
6609 10
6610 4
6611 10
6612 4
6613 5
6614 4
6615 3
6616 15
6617 4
6618 0
6619 14
6620 6
6621 18
6622 4
6623 8
6624 10
6625 0
6626 15
6627 22
6628 8
6629 0
6630 10
6631 8
6632 7
6633 7
6634 6
6635 11
6636 17
6637 10
6638 8
6639 14
6640 1
6641 20
6642 15
6643 8
6644 4
6645 3
6646 11
6647 10
6648 3
6649 1
6650 4
6651 15
6652 1
6653 11
6654 4
6655 4
6656 8
6657 9
6658 3
6659 6
6660 8
6661 10
6662 3
6663 10
6664 0
6665 4
6666 8
6667 4
6668 4
6669 23
6670 3
6671 10
6672 7
6673 7
6674 9
6675 8
6676 4
6677 0
6678 3
6679 20
6680 8
6681 3
6682 10
6683 23
6684 2
6685 3
6686 3
6687 8
6688 3
6689 22
6690 6
6691 3
6692 4
6693 15
6694 4
6695 6
6696 13
6697 16
6698 1
6699 1
6700 8
6701 10
6702 8
6703 10
6704 12
6705 6
6706 10
6707 0
6708 3
6709 9
6710 0
6711 16
6712 0
6713 4
6714 4
6715 11
6716 8
6717 8
6718 10
6719 6
6720 11
6721 6
6722 14
6723 1
6724 16
6725 8
6726 10
6727 16
6728 6
6729 0
6730 4
6731 11
6732 10
6733 4
6734 9
6735 9
6736 12
6737 4
6738 1
6739 4
6740 8
6741 9
6742 22
6743 13
6744 15
6745 4
6746 3
6747 17
6748 8
6749 17
6750 10
6751 8
6752 1
6753 6
6754 3
6755 10
6756 10
6757 23
6758 7
6759 4
6760 8
6761 3
6762 8
6763 8
6764 8
6765 17
6766 4
6767 3
6768 1
6769 8
6770 4
6771 0
6772 8
6773 8
6774 8
6775 3
6776 4
6777 0
6778 8
6779 23
6780 3
6781 4
6782 6
6783 3
6784 4
6785 3
6786 2
6787 6
6788 1
6789 0
6790 3
6791 3
6792 10
6793 16
6794 3
6795 10
6796 23
6797 0
6798 4
6799 3
6800 10
6801 9
6802 7
6803 8
6804 8
6805 10
6806 10
6807 3
6808 0
6809 5
6810 3
6811 4
6812 7
6813 4
6814 4
6815 1
6816 10
6817 8
6818 8
6819 4
6820 15
6821 4
6822 9
6823 8
6824 0
6825 3
6826 10
6827 5
6828 13
6829 8
6830 4
6831 4
6832 6
6833 10
6834 8
6835 3
6836 10
6837 6
6838 4
6839 22
6840 17
6841 20
6842 23
6843 4
6844 4
6845 4
6846 4
6847 10
6848 8
6849 8
6850 22
6851 10
6852 8
6853 3
6854 13
6855 23
6856 19
6857 4
6858 3
6859 4
6860 9
6861 10
6862 10
6863 3
6864 4
6865 10
6866 2
6867 4
6868 3
6869 7
6870 1
6871 8
6872 3
6873 6
6874 10
6875 13
6876 8
6877 10
6878 10
6879 10
6880 3
6881 12
6882 8
6883 6
6884 7
6885 8
6886 8
6887 1
6888 10
6889 8
6890 0
6891 10
6892 6
6893 3
6894 10
6895 6
6896 3
6897 8
6898 8
6899 8
6900 21
6901 4
6902 5
6903 1
6904 6
6905 17
6906 1
6907 13
6908 8
6909 4
6910 15
6911 8
6912 8
6913 11
6914 10
6915 7
6916 1
6917 15
6918 3
6919 4
6920 6
6921 8
6922 8
6923 5
6924 6
6925 9
6926 1
6927 12
6928 4
6929 5
6930 12
6931 17
6932 2
6933 6
6934 10
6935 4
6936 6
6937 11
6938 4
6939 9
6940 10
6941 15
6942 21
6943 9
6944 10
6945 3
6946 6
6947 16
6948 8
6949 10
6950 1
6951 8
6952 6
6953 4
6954 8
6955 10
6956 6
6957 10
6958 4
6959 0
6960 4
6961 9
6962 6
6963 3
6964 15
6965 3
6966 4
6967 14
6968 23
6969 2
6970 20
6971 8
6972 7
6973 8
6974 8
6975 22
6976 3
6977 3
6978 4
6979 10
6980 13
6981 10
6982 10
6983 4
6984 10
6985 1
6986 8
6987 7
6988 8
6989 8
6990 0
6991 9
6992 17
6993 12
6994 10
6995 4
6996 4
6997 9
6998 4
6999 6
7000 10
7001 11
7002 4
7003 3
7004 6
7005 4
7006 3
7007 10
7008 10
7009 10
7010 1
7011 10
7012 3
7013 4
7014 16
7015 5
7016 9
7017 3
7018 4
7019 6
7020 10
7021 1
7022 9
7023 3
7024 19
7025 3
7026 12
7027 10
7028 1
7029 15
7030 9
7031 0
7032 10
7033 8
7034 12
7035 2
7036 10
7037 8
7038 4
7039 22
7040 10
7041 4
7042 23
7043 1
7044 4
7045 6
7046 20
7047 16
7048 5
7049 10
7050 10
7051 6
7052 9
7053 10
7054 10
7055 3
7056 6
7057 8
7058 4
7059 10
7060 10
7061 8
7062 8
7063 1
7064 7
7065 3
7066 8
7067 10
7068 15
7069 8
7070 8
7071 8
7072 8
7073 9
7074 8
7075 11
7076 8
7077 20
7078 2
7079 22
7080 4
7081 4
7082 4
7083 11
7084 22
7085 4
7086 20
7087 8
7088 10
7089 4
7090 21
7091 6
7092 8
7093 5
7094 6
7095 4
7096 4
7097 3
7098 15
7099 10
7100 6
7101 10
7102 8
7103 10
7104 16
7105 1
7106 6
7107 4
7108 10
7109 10
7110 8
7111 7
7112 4
7113 3
7114 17
7115 10
7116 3
7117 13
7118 8
7119 2
7120 10
7121 2
7122 14
7123 6
7124 8
7125 6
7126 8
7127 10
7128 3
7129 8
7130 22
7131 6
7132 14
7133 10
7134 8
7135 19
7136 10
7137 2
7138 8
7139 4
7140 23
7141 15
7142 7
7143 10
7144 8
7145 4
7146 14
7147 4
7148 14
7149 16
7150 4
7151 8
7152 8
7153 10
7154 8
7155 9
7156 6
7157 16
7158 18
7159 12
7160 4
7161 8
7162 9
7163 3
7164 6
7165 15
7166 1
7167 0
7168 8
7169 8
7170 4
7171 10
7172 6
7173 9
7174 3
7175 8
7176 16
7177 17
7178 8
7179 7
7180 8
7181 1
7182 4
7183 8
7184 17
7185 3
7186 10
7187 1
7188 6
7189 15
7190 15
7191 7
7192 3
7193 3
7194 3
7195 8
7196 3
7197 8
7198 23
7199 6
7200 9
7201 3
7202 11
7203 8
7204 10
7205 22
7206 15
7207 4
7208 4
7209 3
7210 3
7211 3
7212 10
7213 19
7214 21
7215 4
7216 4
7217 22
7218 3
7219 6
7220 14
7221 6
7222 0
7223 7
7224 16
7225 13
7226 11
7227 10
7228 10
7229 16
7230 8
7231 6
7232 10
7233 15
7234 10
7235 17
7236 3
7237 4
7238 10
7239 18
7240 9
7241 6
7242 8
7243 4
7244 4
7245 22
7246 11
7247 6
7248 10
7249 11
7250 8
7251 4
7252 3
7253 18
7254 13
7255 10
7256 3
7257 3
7258 8
7259 4
7260 6
7261 5
7262 8
7263 4
7264 4
7265 10
7266 6
7267 4
7268 7
7269 1
7270 10
7271 8
7272 7
7273 4
7274 6
7275 8
7276 8
7277 10
7278 16
7279 9
7280 10
7281 19
7282 7
7283 3
7284 8
7285 6
7286 10
7287 8
7288 8
7289 22
7290 6
7291 23
7292 15
7293 8
7294 4
7295 8
7296 10
7297 22
7298 8
7299 5
7300 8
7301 1
7302 14
7303 8
7304 19
7305 4
7306 1
7307 4
7308 11
7309 0
7310 4
7311 6
7312 4
7313 10
7314 21
7315 15
7316 9
7317 8
7318 23
7319 4
7320 15
7321 3
7322 1
7323 10
7324 6
7325 3
7326 10
7327 11
7328 8
7329 4
7330 2
7331 5
7332 8
7333 17
7334 10
7335 3
7336 7
7337 14
7338 4
7339 16
7340 13
7341 8
7342 8
7343 11
7344 3
7345 1
7346 4
7347 3
7348 17
7349 9
7350 7
7351 17
7352 6
7353 4
7354 8
7355 6
7356 4
7357 3
7358 23
7359 8
7360 10
7361 8
7362 4
7363 13
7364 10
7365 3
7366 8
7367 7
7368 3
7369 4
7370 8
7371 10
7372 2
7373 15
7374 7
7375 9
7376 8
7377 3
7378 6
7379 7
7380 10
7381 1
7382 1
7383 22
7384 7
7385 6
7386 10
7387 16
7388 3
7389 15
7390 4
7391 10
7392 4
7393 14
7394 2
7395 15
7396 10
7397 4
7398 0
7399 10
7400 17
7401 5
7402 3
7403 17
7404 4
7405 14
7406 4
7407 5
7408 8
7409 4
7410 16
7411 4
7412 9
7413 8
7414 6
7415 8
7416 4
7417 17
7418 1
7419 16
7420 4
7421 3
7422 17
7423 8
7424 15
7425 17
7426 14
7427 4
7428 3
7429 8
7430 3
7431 3
7432 8
7433 1
7434 10
7435 1
7436 22
7437 5
7438 1
7439 5
7440 4
7441 8
7442 13
7443 3
7444 0
7445 14
7446 8
7447 3
7448 4
7449 7
7450 23
7451 19
7452 1
7453 13
7454 10
7455 8
7456 9
7457 4
7458 4
7459 21
7460 8
7461 9
7462 20
7463 3
7464 4
7465 8
7466 10
7467 8
7468 4
7469 3
7470 0
7471 8
7472 23
7473 4
7474 17
7475 10
7476 22
7477 8
7478 4
7479 0
7480 10
7481 17
7482 22
7483 5
7484 1
7485 4
7486 1
7487 4
7488 4
7489 16
7490 3
7491 8
7492 1
7493 11
7494 6
7495 8
7496 6
7497 9
7498 22
7499 4
7500 10
7501 11
7502 23
7503 8
7504 10
7505 8
7506 1
7507 8
7508 23
7509 8
7510 7
7511 4
7512 5
7513 15
7514 16
7515 13
7516 6
7517 6
7518 4
7519 15
7520 10
7521 4
7522 10
7523 3
7524 22
7525 3
7526 3
7527 20
7528 4
7529 10
7530 16
7531 6
7532 0
7533 0
7534 7
7535 12
7536 3
7537 21
7538 10
7539 11
7540 10
7541 0
7542 23
7543 8
7544 7
7545 8
7546 17
7547 4
7548 16
7549 7
7550 5
7551 8
7552 3
7553 3
7554 9
7555 16
7556 10
7557 10
7558 0
7559 10
7560 6
7561 9
7562 8
7563 4
7564 8
7565 3
7566 16
7567 8
7568 3
7569 0
7570 9
7571 9
7572 5
7573 20
7574 10
7575 17
7576 6
7577 2
7578 4
7579 8
7580 7
7581 4
7582 1
7583 3
7584 17
7585 1
7586 10
7587 10
7588 4
7589 15
7590 4
7591 7
7592 3
7593 7
7594 20
7595 0
7596 1
7597 3
7598 3
7599 1
7600 2
7601 16
7602 2
7603 10
7604 7
7605 5
7606 16
7607 12
7608 7
7609 3
7610 4
7611 1
7612 17
7613 1
7614 9
7615 16
7616 2
7617 6
7618 8
7619 7
7620 3
7621 3
7622 4
7623 6
7624 7
7625 12
7626 6
7627 4
7628 2
7629 8
7630 17
7631 3
7632 4
7633 4
7634 2
7635 19
7636 3
7637 10
7638 8
7639 14
7640 5
7641 22
7642 7
7643 19
7644 8
7645 3
7646 10
7647 7
7648 17
7649 10
7650 4
7651 2
7652 9
7653 10
7654 3
7655 3
7656 3
7657 5
7658 0
7659 3
7660 9
7661 10
7662 1
7663 6
7664 15
7665 6
7666 4
7667 10
7668 15
7669 3
7670 10
7671 8
7672 14
7673 10
7674 8
7675 4
7676 4
7677 6
7678 17
7679 1
7680 4
7681 8
7682 8
7683 4
7684 7
7685 14
7686 3
7687 6
7688 10
7689 6
7690 3
7691 6
7692 21
7693 14
7694 6
7695 3
7696 12
7697 8
7698 10
7699 4
7700 15
7701 16
7702 15
7703 5
7704 6
7705 6
7706 8
7707 4
7708 4
7709 17
7710 1
7711 0
7712 10
7713 4
7714 10
7715 18
7716 12
7717 16
7718 10
7719 3
7720 12
7721 12
7722 1
7723 20
7724 22
7725 8
7726 6
7727 6
7728 5
7729 6
7730 3
7731 8
7732 6
7733 6
7734 4
7735 19
7736 6
7737 10
7738 16
7739 0
7740 0
7741 7
7742 8
7743 23
7744 8
7745 22
7746 13
7747 23
7748 3
7749 3
7750 8
7751 10
7752 4
7753 3
7754 3
7755 8
7756 7
7757 6
7758 10
7759 4
7760 15
7761 1
7762 3
7763 8
7764 3
7765 0
7766 1
7767 6
7768 9
7769 9
7770 7
7771 18
7772 4
7773 3
7774 6
7775 4
7776 5
7777 8
7778 4
7779 7
7780 6
7781 2
7782 20
7783 15
7784 0
7785 3
7786 8
7787 4
7788 1
7789 3
7790 9
7791 10
7792 8
7793 22
7794 10
7795 0
7796 1
7797 8
7798 23
7799 16
7800 11
7801 8
7802 16
7803 6
7804 4
7805 13
7806 4
7807 16
7808 6
7809 8
7810 10
7811 3
7812 6
7813 3
7814 3
7815 5
7816 21
7817 21
7818 8
7819 3
7820 10
7821 3
7822 3
7823 10
7824 6
7825 15
7826 3
7827 23
7828 10
7829 0
7830 20
7831 8
7832 16
7833 23
7834 11
7835 2
7836 3
7837 3
7838 8
7839 7
7840 6
7841 4
7842 4
7843 8
7844 16
7845 6
7846 13
7847 3
7848 7
7849 8
7850 8
7851 8
7852 4
7853 22
7854 7
7855 9
7856 3
7857 10
7858 4
7859 15
7860 22
7861 2
7862 4
7863 3
7864 4
7865 18
7866 7
7867 4
7868 8
7869 11
7870 10
7871 8
7872 15
7873 10
7874 17
7875 6
7876 11
7877 10
7878 8
7879 6
7880 4
7881 20
7882 23
7883 16
7884 7
7885 4
7886 17
7887 4
7888 1
7889 16
7890 6
7891 13
7892 15
7893 8
7894 11
7895 10
7896 8
7897 10
7898 6
7899 12
7900 9
7901 1
7902 3
7903 3
7904 4
7905 7
7906 6
7907 23
7908 6
7909 6
7910 8
7911 0
7912 5
7913 3
7914 6
7915 10
7916 2
7917 9
7918 10
7919 23
7920 13
7921 18
7922 4
7923 8
7924 10
7925 22
7926 0
7927 15
7928 8
7929 3
7930 3
7931 10
7932 18
7933 4
7934 0
7935 10
7936 4
7937 8
7938 3
7939 10
7940 10
7941 15
7942 9
7943 10
7944 22
7945 3
7946 4
7947 3
7948 13
7949 10
7950 10
7951 3
7952 3
7953 17
7954 7
7955 6
7956 5
7957 0
7958 13
7959 8
7960 11
7961 10
7962 0
7963 4
7964 8
7965 0
7966 6
7967 12
7968 2
7969 10
7970 4
7971 22
7972 15
7973 15
7974 10
7975 8
7976 8
7977 11
7978 1
7979 4
7980 8
7981 8
7982 14
7983 3
7984 10
7985 10
7986 7
7987 8
7988 1
7989 4
7990 6
7991 8
7992 5
7993 4
7994 4
7995 3
7996 4
7997 4
7998 17
7999 3
8000 6
8001 15
8002 5
8003 0
8004 6
8005 4
8006 1
8007 11
8008 4
8009 6
8010 1
8011 9
8012 3
8013 3
8014 10
8015 15
8016 5
8017 8
8018 3
8019 15
8020 6
8021 0
8022 4
8023 7
8024 16
8025 4
8026 3
8027 3
8028 22
8029 10
8030 6
8031 6
8032 8
8033 0
8034 3
8035 16
8036 8
8037 6
8038 8
8039 10
8040 15
8041 3
8042 3
8043 6
8044 3
8045 13
8046 10
8047 10
8048 6
8049 4
8050 17
8051 11
8052 0
8053 1
8054 4
8055 1
8056 16
8057 4
8058 3
8059 4
8060 8
8061 8
8062 3
8063 20
8064 8
8065 3
8066 0
8067 1
8068 12
8069 4
8070 17
8071 22
8072 16
8073 19
8074 23
8075 1
8076 0
8077 14
8078 8
8079 1
8080 23
8081 15
8082 12
8083 0
8084 9
8085 8
8086 15
8087 0
8088 8
8089 15
8090 6
8091 9
8092 4
8093 15
8094 6
8095 4
8096 4
8097 8
8098 11
8099 4
8100 10
8101 12
8102 3
8103 3
8104 15
8105 4
8106 1
8107 10
8108 10
8109 10
8110 15
8111 6
8112 8
8113 5
8114 6
8115 0
8116 3
8117 22
8118 6
8119 10
8120 12
8121 19
8122 4
8123 8
8124 1
8125 6
8126 4
8127 4
8128 3
8129 6
8130 8
8131 4
8132 4
8133 3
8134 2
8135 4
8136 8
8137 8
8138 2
8139 2
8140 17
8141 3
8142 8
8143 1
8144 16
8145 8
8146 15
8147 23
8148 8
8149 7
8150 3
8151 10
8152 1
8153 2
8154 6
8155 4
8156 1
8157 8
8158 16
8159 3
8160 13
8161 3
8162 0
8163 4
8164 4
8165 6
8166 0
8167 3
8168 13
8169 10
8170 11
8171 1
8172 20
8173 10
8174 6
8175 7
8176 11
8177 8
8178 8
8179 4
8180 20
8181 5
8182 0
8183 4
8184 11
8185 13
8186 8
8187 7
8188 7
8189 8
8190 0
8191 13
8192 12
8193 3
8194 6
8195 3
8196 6
8197 10
8198 13
8199 8
8200 20
8201 8
8202 6
8203 3
8204 8
8205 16
8206 1
8207 6
8208 8
8209 10
8210 4
8211 6
8212 10
8213 6
8214 4
8215 3
8216 20
8217 6
8218 20
8219 5
8220 6
8221 10
8222 14
8223 15
8224 1
8225 10
8226 5
8227 11
8228 6
8229 0
8230 8
8231 9
8232 8
8233 9
8234 6
8235 3
8236 3
8237 10
8238 3
8239 9
8240 10
8241 6
8242 10
8243 14
8244 4
8245 23
8246 6
8247 1
8248 8
8249 15
8250 6
8251 16
8252 6
8253 4
8254 14
8255 4
8256 15
8257 5
8258 16
8259 8
8260 1
8261 9
8262 0
8263 13
8264 22
8265 4
8266 6
8267 14
8268 4
8269 9
8270 14
8271 19
8272 9
8273 9
8274 8
8275 23
8276 3
8277 11
8278 3
8279 4
8280 3
8281 8
8282 10
8283 11
8284 8
8285 6
8286 1
8287 2
8288 22
8289 9
8290 3
8291 23
8292 6
8293 4
8294 9
8295 3
8296 15
8297 12
8298 0
8299 6
8300 3
8301 13
8302 6
8303 22
8304 14
8305 10
8306 11
8307 10
8308 11
8309 3
8310 3
8311 8
8312 4
8313 12
8314 20
8315 15
8316 0
8317 6
8318 8
8319 1
8320 8
8321 14
8322 8
8323 4
8324 9
8325 8
8326 4
8327 5
8328 10
8329 3
8330 10
8331 11
8332 8
8333 8
8334 15
8335 4
8336 10
8337 6
8338 4
8339 22
8340 10
8341 8
8342 3
8343 8
8344 10
8345 9
8346 10
8347 3
8348 15
8349 4
8350 3
8351 9
8352 3
8353 6
8354 0
8355 8
8356 16
8357 4
8358 10
8359 1
8360 1
8361 6
8362 6
8363 4
8364 1
8365 4
8366 13
8367 12
8368 4
8369 8
8370 19
8371 6
8372 4
8373 1
8374 6
8375 3
8376 10
8377 4
8378 8
8379 3
8380 10
8381 1
8382 3
8383 15
8384 4
8385 3
8386 4
8387 9
8388 23
8389 6
8390 3
8391 10
8392 10
8393 4
8394 21
8395 11
8396 8
8397 10
8398 4
8399 18
8400 9
8401 8
8402 0
8403 16
8404 12
8405 8
8406 10
8407 2
8408 18
8409 6
8410 3
8411 8
8412 8
8413 11
8414 8
8415 6
8416 8
8417 8
8418 23
8419 6
8420 0
8421 10
8422 4
8423 10
8424 8
8425 1
8426 13
8427 14
8428 3
8429 8
8430 8
8431 8
8432 0
8433 7
8434 6
8435 17
8436 8
8437 4
8438 4
8439 6
8440 12
8441 4
8442 3
8443 10
8444 6
8445 10
8446 3
8447 11
8448 23
8449 8
8450 5
8451 8
8452 9
8453 7
8454 20
8455 4
8456 14
8457 2
8458 16
8459 20
8460 23
8461 2
8462 13
8463 17
8464 12
8465 15
8466 8
8467 16
8468 7
8469 3
8470 16
8471 4
8472 2
8473 9
8474 4
8475 17
8476 3
8477 13
8478 8
8479 8
8480 4
8481 16
8482 0
8483 5
8484 21
8485 3
8486 4
8487 19
8488 6
8489 4
8490 8
8491 19
8492 3
8493 4
8494 10
8495 3
8496 23
8497 3
8498 4
8499 3
8500 16
8501 20
8502 6
8503 4
8504 8
8505 7
8506 20
8507 3
8508 4
8509 6
8510 3
8511 8
8512 13
8513 7
8514 1
8515 11
8516 4
8517 20
8518 3
8519 6
8520 2
8521 6
8522 12
8523 9
8524 16
8525 3
8526 23
8527 10
8528 6
8529 22
8530 0
8531 1
8532 15
8533 8
8534 20
8535 10
8536 4
8537 10
8538 10
8539 12
8540 14
8541 6
8542 11
8543 22
8544 4
8545 10
8546 4
8547 7
8548 6
8549 10
8550 8
8551 5
8552 5
8553 15
8554 3
8555 3
8556 4
8557 10
8558 6
8559 1
8560 4
8561 4
8562 7
8563 4
8564 6
8565 16
8566 6
8567 1
8568 8
8569 0
8570 10
8571 14
8572 1
8573 1
8574 8
8575 9
8576 18
8577 12
8578 3
8579 4
8580 1
8581 1
8582 9
8583 15
8584 14
8585 8
8586 8
8587 16
8588 4
8589 4
8590 11
8591 8
8592 3
8593 6
8594 1
8595 1
8596 9
8597 7
8598 4
8599 3
8600 3
8601 8
8602 3
8603 8
8604 9
8605 2
8606 15
8607 11
8608 10
8609 4
8610 10
8611 9
8612 10
8613 8
8614 12
8615 10
8616 10
8617 8
8618 8
8619 17
8620 10
8621 2
8622 1
8623 3
8624 4
8625 6
8626 3
8627 20
8628 3
8629 9
8630 3
8631 9
8632 0
8633 12
8634 8
8635 12
8636 6
8637 4
8638 10
8639 0
8640 3
8641 7
8642 11
8643 8
8644 17
8645 16
8646 4
8647 1
8648 4
8649 4
8650 8
8651 4
8652 4
8653 23
8654 8
8655 11
8656 13
8657 2
8658 9
8659 8
8660 14
8661 22
8662 1
8663 8
8664 6
8665 23
8666 7
8667 10
8668 4
8669 4
8670 10
8671 6
8672 7
8673 3
8674 7
8675 3
8676 11
8677 15
8678 10
8679 23
8680 13
8681 3
8682 8
8683 10
8684 16
8685 7
8686 10
8687 15
8688 4
8689 3
8690 10
8691 3
8692 16
8693 9
8694 9
8695 22
8696 11
8697 8
8698 2
8699 8
8700 4
8701 11
8702 2
8703 4
8704 22
8705 7
8706 10
8707 11
8708 9
8709 3
8710 7
8711 10
8712 16
8713 3
8714 23
8715 7
8716 4
8717 8
8718 14
8719 8
8720 3
8721 16
8722 3
8723 15
8724 8
8725 3
8726 15
8727 14
8728 3
8729 4
8730 4
8731 4
8732 10
8733 23
8734 4
8735 9
8736 9
8737 7
8738 17
8739 19
8740 4
8741 4
8742 3
8743 8
8744 8
8745 1
8746 16
8747 6
8748 4
8749 4
8750 17
8751 10
8752 10
8753 13
8754 23
8755 3
8756 7
8757 10
8758 8
8759 10
8760 10
8761 6
8762 3
8763 23
8764 22
8765 7
8766 6
8767 1
8768 11
8769 7
8770 3
8771 16
8772 6
8773 4
8774 4
8775 1
8776 9
8777 14
8778 10
8779 0
8780 12
8781 23
8782 6
8783 0
8784 4
8785 14
8786 8
8787 8
8788 8
8789 0
8790 20
8791 3
8792 6
8793 8
8794 4
8795 16
8796 10
8797 8
8798 20
8799 11
8800 9
8801 8
8802 11
8803 6
8804 10
8805 4
8806 9
8807 18
8808 13
8809 2
8810 3
8811 4
8812 6
8813 10
8814 3
8815 3
8816 3
8817 6
8818 12
8819 4
8820 3
8821 16
8822 10
8823 10
8824 4
8825 0
8826 6
8827 1
8828 3
8829 0
8830 3
8831 5
8832 2
8833 10
8834 10
8835 7
8836 4
8837 18
8838 6
8839 10
8840 6
8841 7
8842 19
8843 8
8844 14
8845 20
8846 4
8847 0
8848 13
8849 10
8850 6
8851 10
8852 3
8853 6
8854 8
8855 8
8856 15
8857 13
8858 4
8859 10
8860 7
8861 4
8862 8
8863 8
8864 8
8865 15
8866 6
8867 19
8868 8
8869 0
8870 9
8871 3
8872 4
8873 6
8874 4
8875 10
8876 3
8877 20
8878 6
8879 10
8880 10
8881 17
8882 3
8883 6
8884 13
8885 6
8886 3
8887 9
8888 3
8889 6
8890 4
8891 6
8892 3
8893 3
8894 3
8895 14
8896 1
8897 6
8898 10
8899 22
8900 8
8901 6
8902 16
8903 0
8904 10
8905 1
8906 1
8907 1
8908 13
8909 11
8910 3
8911 8
8912 3
8913 10
8914 6
8915 3
8916 10
8917 1
8918 15
8919 13
8920 8
8921 10
8922 8
8923 16
8924 3
8925 17
8926 23
8927 6
8928 4
8929 3
8930 17
8931 10
8932 6
8933 13
8934 3
8935 6
8936 3
8937 16
8938 23
8939 3
8940 6
8941 0
8942 7
8943 20
8944 3
8945 22
8946 11
8947 4
8948 20
8949 14
8950 10
8951 8
8952 15
8953 10
8954 4
8955 8
8956 5
8957 0
8958 18
8959 1
8960 10
8961 9
8962 1
8963 8
8964 10
8965 10
8966 5
8967 3
8968 6
8969 3
8970 8
8971 10
8972 3
8973 4
8974 9
8975 21
8976 14
8977 14
8978 8
8979 3
8980 3
8981 2
8982 3
8983 3
8984 6
8985 7
8986 20
8987 3
8988 13
8989 10
8990 3
8991 1
8992 3
8993 4
8994 4
8995 16
8996 3
8997 8
8998 3
8999 3
9000 6
9001 6
9002 3
9003 7
9004 4
9005 8
9006 10
9007 7
9008 8
9009 3
9010 12
9011 6
9012 16
9013 9
9014 8
9015 10
9016 8
9017 4
9018 4
9019 6
9020 8
9021 5
9022 8
9023 19
9024 10
9025 3
9026 11
9027 22
9028 10
9029 22
9030 7
9031 3
9032 8
9033 3
9034 15
9035 7
9036 3
9037 4
9038 8
9039 9
9040 8
9041 6
9042 6
9043 3
9044 17
9045 8
9046 8
9047 16
9048 9
9049 0
9050 10
9051 17
9052 3
9053 3
9054 5
9055 3
9056 3
9057 23
9058 13
9059 20
9060 10
9061 3
9062 17
9063 12
9064 10
9065 15
9066 3
9067 0
9068 1
9069 3
9070 4
9071 20
9072 9
9073 17
9074 8
9075 4
9076 8
9077 11
9078 7
9079 2
9080 14
9081 3
9082 4
9083 4
9084 0
9085 3
9086 6
9087 6
9088 3
9089 3
9090 5
9091 4
9092 14
9093 21
9094 11
9095 8
9096 15
9097 1
9098 8
9099 3
9100 0
9101 16
9102 8
9103 13
9104 10
9105 6
9106 4
9107 8
9108 11
9109 0
9110 4
9111 0
9112 8
9113 4
9114 10
9115 9
9116 10
9117 6
9118 8
9119 8
9120 8
9121 15
9122 8
9123 6
9124 8
9125 22
9126 20
9127 7
9128 10
9129 20
9130 3
9131 16
9132 10
9133 1
9134 4
9135 8
9136 10
9137 3
9138 9
9139 4
9140 3
9141 7
9142 16
9143 22
9144 8
9145 0
9146 12
9147 22
9148 3
9149 10
9150 4
9151 6
9152 3
9153 0
9154 3
9155 4
9156 5
9157 6
9158 13
9159 0
9160 10
9161 3
9162 6
9163 4
9164 13
9165 8
9166 3
9167 4
9168 14
9169 6
9170 6
9171 10
9172 0
9173 10
9174 4
9175 7
9176 8
9177 1
9178 9
9179 4
9180 7
9181 9
9182 4
9183 15
9184 7
9185 17
9186 10
9187 1
9188 10
9189 8
9190 8
9191 1
9192 10
9193 1
9194 11
9195 20
9196 15
9197 10
9198 7
9199 10
9200 6
9201 0
9202 10
9203 10
9204 6
9205 6
9206 8
9207 10
9208 10
9209 9
9210 13
9211 8
9212 6
9213 3
9214 6
9215 16
9216 3
9217 6
9218 19
9219 3
9220 10
9221 3
9222 0
9223 6
9224 10
9225 10
9226 4
9227 6
9228 23
9229 10
9230 6
9231 16
9232 0
9233 8
9234 20
9235 21
9236 10
9237 7
9238 6
9239 6
9240 17
9241 3
9242 8
9243 7
9244 8
9245 4
9246 8
9247 2
9248 4
9249 10
9250 11
9251 16
9252 10
9253 9
9254 4
9255 3
9256 10
9257 9
9258 6
9259 10
9260 4
9261 10
9262 3
9263 3
9264 8
9265 8
9266 12
9267 4
9268 6
9269 3
9270 10
9271 10
9272 13
9273 10
9274 6
9275 3
9276 8
9277 10
9278 6
9279 3
9280 3
9281 3
9282 8
9283 3
9284 6
9285 12
9286 8
9287 16
9288 0
9289 6
9290 8
9291 17
9292 16
9293 6
9294 17
9295 1
9296 17
9297 5
9298 8
9299 15
9300 13
9301 4
9302 10
9303 9
9304 4
9305 6
9306 2
9307 4
9308 6
9309 2
9310 4
9311 17
9312 4
9313 8
9314 20
9315 8
9316 9
9317 2
9318 17
9319 3
9320 1
9321 1
9322 11
9323 3
9324 2
9325 3
9326 16
9327 22
9328 1
9329 6
9330 0
9331 3
9332 10
9333 0
9334 1
9335 5
9336 3
9337 2
9338 14
9339 10
9340 8
9341 3
9342 6
9343 6
9344 8
9345 17
9346 8
9347 10
9348 23
9349 15
9350 3
9351 10
9352 10
9353 3
9354 5
9355 10
9356 1
9357 5
9358 10
9359 20
9360 21
9361 10
9362 11
9363 3
9364 8
9365 1
9366 4
9367 8
9368 4
9369 3
9370 3
9371 9
9372 16
9373 16
9374 9
9375 12
9376 14
9377 3
9378 15
9379 9
9380 1
9381 17
9382 19
9383 13
9384 18
9385 16
9386 4
9387 5
9388 10
9389 10
9390 3
9391 20
9392 8
9393 8
9394 4
9395 12
9396 4
9397 15
9398 1
9399 4
9400 10
9401 3
9402 6
9403 4
9404 17
9405 7
9406 16
9407 10
9408 22
9409 8
9410 3
9411 4
9412 15
9413 10
9414 11
9415 7
9416 4
9417 8
9418 15
9419 8
9420 4
9421 7
9422 4
9423 0
9424 10
9425 6
9426 4
9427 10
9428 6
9429 18
9430 7
9431 4
9432 8
9433 0
9434 3
9435 15
9436 4
9437 3
9438 4
9439 20
9440 10
9441 23
9442 0
9443 8
9444 8
9445 10
9446 3
9447 7
9448 19
9449 13
9450 15
9451 14
9452 8
9453 3
9454 6
9455 15
9456 4
9457 3
9458 10
9459 4
9460 16
9461 15
9462 10
9463 6
9464 17
9465 1
9466 4
9467 4
9468 10
9469 1
9470 8
9471 3
9472 7
9473 4
9474 3
9475 21
9476 4
9477 6
9478 1
9479 2
9480 10
9481 0
9482 3
9483 4
9484 12
9485 19
9486 10
9487 13
9488 18
9489 0
9490 7
9491 4
9492 10
9493 4
9494 12
9495 8
9496 7
9497 4
9498 11
9499 4
9500 23
9501 8
9502 4
9503 4
9504 9
9505 10
9506 6
9507 1
9508 10
9509 6
9510 5
9511 15
9512 15
9513 9
9514 1
9515 0
9516 11
9517 3
9518 23
9519 17
9520 3
9521 1
9522 10
9523 8
9524 20
9525 19
9526 6
9527 11
9528 4
9529 8
9530 3
9531 3
9532 10
9533 9
9534 4
9535 4
9536 14
9537 5
9538 10
9539 10
9540 0
9541 9
9542 20
9543 7
9544 8
9545 3
9546 7
9547 6
9548 4
9549 17
9550 8
9551 6
9552 10
9553 23
9554 15
9555 4
9556 3
9557 18
9558 0
9559 3
9560 8
9561 1
9562 0
9563 4
9564 6
9565 9
9566 15
9567 3
9568 3
9569 6
9570 3
9571 6
9572 3
9573 8
9574 3
9575 22
9576 14
9577 21
9578 23
9579 6
9580 20
9581 10
9582 20
9583 6
9584 4
9585 16
9586 17
9587 20
9588 8
9589 6
9590 17
9591 15
9592 11
9593 9
9594 11
9595 0
9596 6
9597 23
9598 6
9599 7
9600 8
9601 4
9602 1
9603 8
9604 3
9605 3
9606 8
9607 0
9608 10
9609 6
9610 14
9611 17
9612 8
9613 10
9614 20
9615 20
9616 17
9617 7
9618 1
9619 15
9620 3
9621 20
9622 7
9623 20
9624 3
9625 9
9626 5
9627 4
9628 10
9629 5
9630 23
9631 8
9632 8
9633 8
9634 4
9635 4
9636 6
9637 10
9638 10
9639 4
9640 6
9641 6
9642 3
9643 12
9644 1
9645 3
9646 10
9647 3
9648 10
9649 4
9650 4
9651 18
9652 6
9653 3
9654 8
9655 8
9656 21
9657 13
9658 9
9659 11
9660 8
9661 23
9662 9
9663 12
9664 4
9665 3
9666 6
9667 17
9668 10
9669 14
9670 3
9671 6
9672 4
9673 23
9674 1
9675 3
9676 10
9677 6
9678 10
9679 3
9680 2
9681 10
9682 8
9683 4
9684 7
9685 3
9686 10
9687 3
9688 8
9689 2
9690 4
9691 10
9692 3
9693 4
9694 9
9695 0
9696 6
9697 8
9698 4
9699 8
9700 9
9701 3
9702 4
9703 10
9704 1
9705 13
9706 20
9707 23
9708 6
9709 3
9710 22
9711 0
9712 3
9713 8
9714 8
9715 4
9716 6
9717 11
9718 9
9719 8
9720 4
9721 0
9722 8
9723 13
9724 14
9725 4
9726 8
9727 0
9728 3
9729 18
9730 6
9731 0
9732 22
9733 16
9734 10
9735 4
9736 12
9737 3
9738 2
9739 13
9740 4
9741 10
9742 4
9743 8
9744 3
9745 3
9746 8
9747 4
9748 4
9749 8
9750 8
9751 21
9752 14
9753 1
9754 9
9755 1
9756 5
9757 11
9758 19
9759 9
9760 7
9761 3
9762 8
9763 15
9764 8
9765 19
9766 17
9767 3
9768 14
9769 4
9770 1
9771 23
9772 3
9773 10
9774 15
9775 8
9776 12
9777 3
9778 6
9779 15
9780 10
9781 4
9782 6
9783 4
9784 6
9785 18
9786 9
9787 10
9788 3
9789 10
9790 10
9791 8
9792 1
9793 4
9794 10
9795 8
9796 8
9797 7
9798 13
9799 10
9800 16
9801 11
9802 10
9803 3
9804 23
9805 8
9806 3
9807 6
9808 19
9809 10
9810 6
9811 6
9812 3
9813 6
9814 16
9815 8
9816 9
9817 3
9818 8
9819 8
9820 8
9821 4
9822 4
9823 8
9824 1
9825 0
9826 16
9827 12
9828 7
9829 9
9830 7
9831 16
9832 21
9833 3
9834 4
9835 4
9836 1
9837 6
9838 4
9839 3
9840 2
9841 8
9842 3
9843 9
9844 15
9845 12
9846 20
9847 4
9848 3
9849 11
9850 8
9851 10
9852 8
9853 3
9854 3
9855 8
9856 8
9857 4
9858 18
9859 4
9860 9
9861 10
9862 16
9863 8
9864 4
9865 1
9866 12
9867 4
9868 3
9869 9
9870 7
9871 8
9872 14
9873 9
9874 11
9875 3
9876 21
9877 10
9878 3
9879 9
9880 8
9881 8
9882 4
9883 8
9884 3
9885 3
9886 22
9887 4
9888 8
9889 10
9890 21
9891 3
9892 8
9893 11
9894 8
9895 4
9896 11
9897 3
9898 6
9899 10
9900 19
9901 6
9902 4
9903 8
9904 2
9905 17
9906 4
9907 1
9908 11
9909 4
9910 7
9911 6
9912 19
9913 4
9914 10
9915 1
9916 4
9917 3
9918 10
9919 15
9920 8
9921 15
9922 8
9923 0
9924 15
9925 9
9926 11
9927 8
9928 6
9929 13
9930 10
9931 8
9932 4
9933 9
9934 6
9935 0
9936 21
9937 5
9938 9
9939 4
9940 8
9941 4
9942 8
9943 15
9944 14
9945 7
9946 3
9947 22
9948 3
9949 14
9950 8
9951 8
9952 3
9953 8
9954 6
9955 22
9956 8
9957 4
9958 8
9959 8
9960 16
9961 8
9962 8
9963 10
9964 8
9965 1
9966 8
9967 3
9968 21
9969 10
9970 3
9971 3
9972 10
9973 3
9974 23
9975 0
9976 3
9977 10
9978 8
9979 12
9980 9
9981 8
9982 4
9983 4
9984 5
9985 10
9986 8
9987 3
9988 4
9989 4
9990 17
9991 15
9992 10
9993 9
9994 1
9995 1
9996 17
9997 21
9998 4
9999 6
