0 0
1 1
2 2
3 3
4 4
5 5
6 6
7 7
8 8
9 9
10 10
11 11
12 12
13 13
14 14
15 15
16 16
17 12
18 17
19 18
20 19
21 16
22 20
23 21
24 22
25 23
26 24
27 25
28 11
29 12
30 26
31 27
32 6
33 28
34 17
35 29
36 11
37 28
38 30
39 14
40 31
41 19
42 16
43 32
44 33
45 34
46 27
47 7
48 28
49 35
50 6
51 18
52 36
53 37
54 38
55 39
56 23
57 30
58 40
59 41
60 12
61 28
62 1
63 38
64 42
65 37
66 36
67 43
68 44
69 44
70 23
71 42
72 21
73 41
74 24
75 31
76 1
77 22
78 36
79 45
80 4
81 46
82 21
83 19
84 0
85 21
86 47
87 20
88 39
89 37
90 37
91 3
92 45
93 3
94 26
95 28
96 42
97 48
98 16
99 24
100 5
101 6
102 42
103 24
104 6
105 49
106 44
107 5
108 22
109 50
110 50
111 6
112 21
113 23
114 32
115 7
116 5
117 50
118 15
119 15
120 24
121 51
122 52
123 0
124 53
125 7
126 37
127 38
128 22
129 15
130 3
131 15
132 50
133 27
134 5
135 54
136 28
137 44
138 6
139 45
140 21
141 4
142 55
143 48
144 37
145 53
146 7
147 44
148 56
149 5
150 26
151 7
152 25
153 15
154 31
155 34
156 21
157 5
158 31
159 50
160 33
161 53
162 32
163 21
164 26
165 36
166 11
167 48
168 9
169 51
170 17
171 0
172 57
173 44
174 50
175 40
176 6
177 56
178 15
179 50
180 30
181 38
182 44
183 5
184 17
185 44
186 58
187 59
188 26
189 58
190 7
191 19
192 15
193 32
194 6
195 32
196 58
197 52
198 60
199 6
200 37
201 61
202 50
203 47
204 58
205 50
206 62
207 44
208 33
209 44
210 63
211 26
212 21
213 26
214 24
215 24
216 61
217 44
218 28
219 31
220 23
221 5
222 15
223 7
224 50
225 50
226 58
227 28
228 24
229 23
230 61
231 26
232 23
233 15
234 58
235 5
236 48
237 26
238 26
239 17
240 9
241 5
242 64
243 3
244 62
245 17
246 4
247 52
248 23
249 44
250 2
251 58
252 58
253 31
254 58
255 44
256 65
257 26
258 58
259 58
260 0
261 4
262 19
263 41
264 30
265 7
266 28
267 20
268 23
269 66
270 17
271 36
272 58
273 38
274 58
275 24
276 6
277 37
278 6
279 24
280 48
281 24
282 12
283 4
284 26
285 26
286 48
287 0
288 27
289 50
290 26
291 24
292 28
293 17
294 42
295 16
296 63
297 16
298 58
299 32
300 16
301 18
302 36
303 61
304 22
305 21
306 48
307 41
308 18
309 24
310 12
311 26
312 17
313 5
314 22
315 21
316 1
317 48
318 39
319 67
320 6
321 68
322 58
323 6
324 5
325 24
326 32
327 24
328 16
329 50
330 17
331 38
332 37
333 49
334 42
335 48
336 6
337 41
338 5
339 13
340 48
341 15
342 36
343 17
344 17
345 11
346 25
347 18
348 11
349 58
350 58
351 45
352 48
353 69
354 70
355 32
356 24
357 37
358 11
359 5
360 50
361 47
362 26
363 44
364 26
365 24
366 7
367 11
368 17
369 58
370 16
371 26
372 0
373 24
374 26
375 45
376 16
377 3
378 7
379 58
380 44
381 48
382 48
383 17
384 26
385 5
386 32
387 58
388 7
389 26
390 26
391 24
392 3
393 5
394 17
395 32
396 3
397 63
398 11
399 7
400 7
401 17
402 58
403 15
404 16
405 19
406 5
407 5
408 3
409 45
410 11
411 11
412 38
413 58
414 51
415 17
416 5
417 3
418 54
419 52
420 28
421 11
422 19
423 58
424 71
425 57
426 58
427 31
428 29
429 11
430 19
431 32
432 11
433 26
434 68
435 32
436 72
437 11
438 73
439 3
440 6
441 37
442 45
443 54
444 58
445 58
446 43
447 32
448 58
449 23
450 44
451 50
452 17
453 22
454 19
455 30
456 19
457 58
458 19
459 3
460 17
461 24
462 26
463 48
464 18
465 19
466 32
467 4
468 33
469 22
470 45
471 34
472 45
473 1
474 15
475 11
476 42
477 24
478 2
479 54
480 48
481 20
482 26
483 37
484 36
485 32
486 16
487 7
488 16
489 58
490 24
491 56
492 5
493 44
494 10
495 3
496 34
497 44
498 12
499 3
500 8
501 3
502 26
503 30
504 72
505 3
506 30
507 24
508 49
509 48
510 17
511 3
512 54
513 17
514 24
515 10
516 17
517 58
518 24
519 3
520 1
521 21
522 27
523 39
524 22
525 7
526 41
527 21
528 19
529 1
530 19
531 39
532 1
533 58
534 4
535 47
536 24
537 30
538 21
539 0
540 32
541 33
542 30
543 11
544 1
545 16
546 21
547 48
548 48
549 32
550 21
551 74
552 26
553 69
554 32
555 26
556 11
557 36
558 24
559 0
560 44
561 0
562 48
563 19
564 5
565 59
566 32
567 61
568 17
569 31
570 12
571 3
572 1
573 4
574 24
575 58
576 48
577 22
578 30
579 3
580 48
581 44
582 58
583 6
584 38
585 35
586 0
587 30
588 16
589 19
590 28
591 58
592 17
593 3
594 32
595 4
596 32
597 1
598 28
599 69
600 48
601 28
602 30
603 5
604 48
605 5
606 3
607 3
608 48
609 42
610 28
611 50
612 32
613 21
614 22
615 58
616 62
617 11
618 32
619 41
620 32
621 48
622 68
623 1
624 58
625 28
626 14
627 3
628 22
629 73
630 21
631 38
632 75
633 58
634 9
635 26
636 32
637 16
638 68
639 30
640 52
641 21
642 3
643 22
644 8
645 32
646 51
647 0
648 16
649 24
650 58
651 26
652 37
653 45
654 3
655 52
656 42
657 45
658 47
659 21
660 30
661 28
662 17
663 1
664 28
665 21
666 48
667 3
668 58
669 24
670 58
671 17
672 17
673 1
674 5
675 30
676 26
677 21
678 3
679 17
680 24
681 3
682 18
683 19
684 11
685 16
686 57
687 24
688 15
689 58
690 50
691 58
692 3
693 41
694 64
695 36
696 32
697 21
698 6
699 44
700 15
701 32
702 69
703 52
704 3
705 30
706 3
707 11
708 17
709 11
710 18
711 17
712 50
713 30
714 58
715 26
716 38
717 17
718 44
719 22
720 52
721 17
722 0
723 24
724 15
725 76
726 17
727 1
728 5
729 19
730 30
731 77
732 21
733 50
734 48
735 1
736 3
737 50
738 1
739 22
740 1
741 7
742 21
743 5
744 30
745 4
746 11
747 15
748 1
749 15
750 30
751 19
752 30
753 18
754 22
755 78
756 22
757 50
758 4
759 58
760 48
761 7
762 15
763 4
764 75
765 38
766 17
767 30
768 21
769 44
770 6
771 22
772 7
773 3
774 18
775 3
776 3
777 48
778 3
779 30
780 48
781 28
782 3
783 7
784 12
785 3
786 3
787 32
788 1
789 79
790 50
791 7
792 32
793 22
794 24
795 42
796 48
797 16
798 65
799 30
800 7
801 41
802 39
803 11
804 17
805 3
806 48
807 22
808 17
809 41
810 48
811 48
812 21
813 47
814 21
815 33
816 15
817 32
818 26
819 1
820 42
821 58
822 57
823 7
824 17
825 68
826 68
827 3
828 7
829 1
830 21
831 24
832 3
833 11
834 23
835 42
836 3
837 42
838 15
839 11
840 30
841 28
842 30
843 15
844 58
845 7
846 23
847 58
848 72
849 15
850 19
851 7
852 21
853 48
854 15
855 36
856 52
857 5
858 80
859 70
860 44
861 32
862 24
863 30
864 58
865 3
866 24
867 25
868 32
869 1
870 17
871 7
872 1
873 48
874 36
875 81
876 7
877 58
878 44
879 17
880 15
881 3
882 22
883 3
884 48
885 15
886 25
887 23
888 5
889 45
890 16
891 3
892 1
893 3
894 7
895 7
896 32
897 24
898 15
899 7
900 22
901 17
902 48
903 21
904 21
905 7
906 22
907 44
908 23
909 45
910 1
911 23
912 17
913 3
914 5
915 22
916 1
917 15
918 82
919 1
920 21
921 1
922 17
923 48
924 15
925 1
926 7
927 4
928 48
929 21
930 21
931 21
932 26
933 25
934 16
935 21
936 15
937 7
938 22
939 21
940 22
941 1
942 21
943 3
944 48
945 22
946 19
947 7
948 37
949 6
950 22
951 71
952 23
953 48
954 23
955 17
956 48
957 6
958 54
959 7
960 53
961 16
962 3
963 23
964 6
965 7
966 3
967 45
968 1
969 17
970 30
971 7
972 37
973 37
974 48
975 16
976 17
977 23
978 17
979 19
980 79
981 44
982 61
983 1
984 15
985 22
986 6
987 22
988 21
989 18
990 21
991 3
992 78
993 21
994 30
995 7
996 17
997 16
998 44
999 75
1000 22
1001 37
1002 21
1003 48
1004 33
1005 3
1006 7
1007 48
1008 48
1009 15
1010 30
1011 32
1012 48
1013 61
1014 75
1015 18
1016 61
1017 61
1018 22
1019 23
1020 7
1021 13
1022 48
1023 61
1024 31
1025 48
1026 1
1027 50
1028 39
1029 19
1030 28
1031 48
1032 21
1033 72
1034 3
1035 15
1036 6
1037 23
1038 58
1039 9
1040 81
1041 1
1042 23
1043 22
1044 1
1045 19
1046 22
1047 44
1048 48
1049 4
1050 26
1051 0
1052 22
1053 37
1054 6
1055 1
1056 51
1057 21
1058 15
1059 22
1060 15
1061 42
1062 30
1063 3
1064 3
1065 15
1066 1
1067 15
1068 41
1069 24
1070 17
1071 22
1072 70
1073 4
1074 27
1075 23
1076 23
1077 37
1078 36
1079 49
1080 17
1081 21
1082 17
1083 24
1084 12
1085 21
1086 33
1087 68
1088 32
1089 68
1090 26
1091 61
1092 22
1093 1
1094 37
1095 15
1096 32
1097 38
1098 17
1099 48
1100 5
1101 7
1102 7
1103 7
1104 31
1105 3
1106 69
1107 61
1108 30
1109 1
1110 15
1111 50
1112 3
1113 21
1114 22
1115 7
1116 83
1117 48
1118 23
1119 21
1120 75
1121 21
1122 32
1123 38
1124 5
1125 5
1126 28
1127 3
1128 7
1129 36
1130 3
1131 32
1132 3
1133 50
1134 11
1135 17
1136 30
1137 5
1138 26
1139 38
1140 7
1141 1
1142 38
1143 37
1144 37
1145 15
1146 7
1147 55
1148 48
1149 3
1150 7
1151 5
1152 26
1153 48
1154 22
1155 3
1156 21
1157 48
1158 32
1159 3
1160 28
1161 7
1162 26
1163 28
1164 44
1165 3
1166 30
1167 26
1168 7
1169 0
1170 22
1171 5
1172 5
1173 1
1174 1
1175 48
1176 23
1177 11
1178 23
1179 25
1180 7
1181 26
1182 37
1183 48
1184 5
1185 22
1186 77
1187 57
1188 52
1189 22
1190 1
1191 38
1192 52
1193 3
1194 3
1195 18
1196 38
1197 48
1198 22
1199 48
1200 22
1201 32
1202 21
1203 31
1204 21
1205 22
1206 7
1207 7
1208 22
1209 5
1210 57
1211 48
1212 48
1213 5
1214 54
1215 3
1216 21
1217 58
1218 50
1219 28
1220 32
1221 57
1222 21
1223 1
1224 6
1225 31
1226 6
1227 6
1228 34
1229 1
1230 48
1231 4
1232 32
1233 26
1234 5
1235 26
1236 22
1237 3
1238 1
1239 18
1240 48
1241 17
1242 48
1243 50
1244 5
1245 24
1246 42
1247 19
1248 37
1249 7
1250 54
1251 7
1252 22
1253 36
1254 3
1255 21
1256 22
1257 17
1258 22
1259 21
1260 54
1261 17
1262 44
1263 14
1264 32
1265 18
1266 59
1267 7
1268 26
1269 32
1270 39
1271 26
1272 3
1273 70
1274 64
1275 3
1276 37
1277 7
1278 21
1279 3
1280 57
1281 21
1282 68
1283 4
1284 3
1285 7
1286 1
1287 1
1288 3
1289 48
1290 7
1291 6
1292 7
1293 44
1294 1
1295 22
1296 7
1297 22
1298 28
1299 26
1300 22
1301 7
1302 17
1303 44
1304 21
1305 28
1306 51
1307 1
1308 7
1309 31
1310 3
1311 22
1312 51
1313 49
1314 48
1315 21
1316 7
1317 7
1318 52
1319 26
1320 23
1321 44
1322 48
1323 21
1324 26
1325 17
1326 41
1327 7
1328 5
1329 5
1330 21
1331 10
1332 21
1333 16
1334 26
1335 48
1336 44
1337 22
1338 22
1339 52
1340 31
1341 22
1342 3
1343 17
1344 4
1345 47
1346 3
1347 7
1348 24
1349 42
1350 26
1351 7
1352 5
1353 16
1354 26
1355 48
1356 21
1357 23
1358 37
1359 11
1360 26
1361 26
1362 22
1363 21
1364 22
1365 16
1366 63
1367 22
1368 18
1369 24
1370 1
1371 1
1372 54
1373 11
1374 17
1375 22
1376 22
1377 22
1378 54
1379 21
1380 11
1381 82
1382 24
1383 45
1384 22
1385 6
1386 24
1387 16
1388 7
1389 5
1390 21
1391 50
1392 21
1393 7
1394 64
1395 21
1396 24
1397 7
1398 5
1399 26
1400 26
1401 21
1402 25
1403 69
1404 12
1405 1
1406 5
1407 3
1408 21
1409 3
1410 15
1411 58
1412 40
1413 16
1414 26
1415 70
1416 48
1417 23
1418 48
1419 3
1420 33
1421 58
1422 48
1423 58
1424 48
1425 7
1426 33
1427 16
1428 21
1429 32
1430 25
1431 5
1432 48
1433 52
1434 5
1435 21
1436 57
1437 3
1438 48
1439 1
1440 50
1441 1
1442 55
1443 23
1444 26
1445 19
1446 58
1447 24
1448 21
1449 48
1450 26
1451 21
1452 7
1453 47
1454 24
1455 48
1456 49
1457 75
1458 23
1459 31
1460 84
1461 22
1462 56
1463 7
1464 5
1465 21
1466 26
1467 11
1468 48
1469 1
1470 15
1471 11
1472 18
1473 5
1474 23
1475 12
1476 24
1477 26
1478 5
1479 1
1480 64
1481 24
1482 7
1483 24
1484 48
1485 16
1486 26
1487 1
1488 24
1489 7
1490 3
1491 22
1492 21
1493 61
1494 16
1495 3
1496 16
1497 7
1498 61
1499 3
1500 1
1501 48
1502 50
1503 26
1504 22
1505 1
1506 26
1507 19
1508 49
1509 57
1510 58
1511 48
1512 64
1513 3
1514 11
1515 24
1516 24
1517 0
1518 3
1519 39
1520 22
1521 14
1522 3
1523 7
1524 3
1525 33
1526 22
1527 17
1528 21
1529 3
1530 1
1531 28
1532 24
1533 80
1534 15
1535 23
1536 58
1537 3
1538 65
1539 3
1540 48
1541 35
1542 48
1543 24
1544 7
1545 26
1546 52
1547 34
1548 39
1549 21
1550 26
1551 18
1552 44
1553 42
1554 7
1555 22
1556 24
1557 7
1558 6
1559 22
1560 39
1561 11
1562 3
1563 26
1564 61
1565 64
1566 3
1567 32
1568 26
1569 26
1570 29
1571 3
1572 7
1573 0
1574 32
1575 41
1576 21
1577 58
1578 11
1579 7
1580 30
1581 21
1582 17
1583 58
1584 7
1585 58
1586 11
1587 38
1588 30
1589 22
1590 7
1591 21
1592 5
1593 7
1594 32
1595 30
1596 24
1597 22
1598 21
1599 24
1600 22
1601 24
1602 36
1603 1
1604 19
1605 22
1606 58
1607 22
1608 21
1609 7
1610 32
1611 3
1612 19
1613 22
1614 37
1615 21
1616 32
1617 28
1618 48
1619 30
1620 38
1621 26
1622 64
1623 22
1624 26
1625 32
1626 7
1627 21
1628 42
1629 7
1630 48
1631 32
1632 30
1633 32
1634 7
1635 6
1636 26
1637 22
1638 24
1639 26
1640 42
1641 48
1642 32
1643 58
1644 11
1645 52
1646 48
1647 22
1648 3
1649 11
1650 2
1651 72
1652 21
1653 48
1654 21
1655 48
1656 16
1657 6
1658 48
1659 27
1660 21
1661 48
1662 7
1663 48
1664 26
1665 32
1666 22
1667 66
1668 21
1669 21
1670 16
1671 21
1672 5
1673 26
1674 3
1675 24
1676 22
1677 62
1678 32
1679 48
1680 58
1681 7
1682 32
1683 58
1684 48
1685 30
1686 21
1687 24
1688 33
1689 24
1690 48
1691 11
1692 24
1693 53
1694 7
1695 22
1696 48
1697 72
1698 32
1699 48
1700 22
1701 58
1702 6
1703 3
1704 32
1705 7
1706 24
1707 36
1708 3
1709 32
1710 32
1711 7
1712 16
1713 32
1714 19
1715 3
1716 24
1717 6
1718 58
1719 15
1720 7
1721 48
1722 33
1723 46
1724 54
1725 19
1726 31
1727 14
1728 26
1729 22
1730 38
1731 26
1732 33
1733 22
1734 51
1735 24
1736 19
1737 1
1738 58
1739 24
1740 15
1741 48
1742 48
1743 6
1744 48
1745 5
1746 58
1747 31
1748 58
1749 32
1750 1
1751 3
1752 48
1753 35
1754 3
1755 37
1756 3
1757 19
1758 32
1759 1
1760 48
1761 30
1762 53
1763 14
1764 3
1765 11
1766 58
1767 1
1768 32
1769 70
1770 3
1771 54
1772 58
1773 4
1774 8
1775 58
1776 21
1777 17
1778 17
1779 48
1780 17
1781 15
1782 26
1783 25
1784 21
1785 7
1786 3
1787 17
1788 48
1789 21
1790 64
1791 32
1792 7
1793 11
1794 24
1795 15
1796 52
1797 26
1798 24
1799 33
1800 24
1801 58
1802 30
1803 1
1804 32
1805 21
1806 32
1807 58
1808 17
1809 21
1810 17
1811 11
1812 64
1813 16
1814 58
1815 26
1816 16
1817 18
1818 58
1819 9
1820 58
1821 22
1822 49
1823 27
1824 7
1825 24
1826 25
1827 24
1828 3
1829 32
1830 17
1831 45
1832 21
1833 47
1834 4
1835 48
1836 3
1837 21
1838 3
1839 26
1840 48
1841 15
1842 17
1843 78
1844 30
1845 3
1846 3
1847 58
1848 21
1849 21
1850 22
1851 68
1852 26
1853 58
1854 58
1855 32
1856 17
1857 3
1858 17
1859 32
1860 76
1861 68
1862 2
1863 7
1864 22
1865 23
1866 82
1867 22
1868 21
1869 66
1870 24
1871 23
1872 39
1873 32
1874 32
1875 36
1876 41
1877 21
1878 17
1879 24
1880 37
1881 44
1882 17
1883 22
1884 61
1885 17
1886 32
1887 48
1888 17
1889 58
1890 3
1891 22
1892 21
1893 3
1894 48
1895 21
1896 32
1897 44
1898 1
1899 26
1900 21
1901 17
1902 32
1903 39
1904 30
1905 58
1906 21
1907 24
1908 21
1909 1
1910 32
1911 3
1912 32
1913 21
1914 58
1915 48
1916 48
1917 21
1918 5
1919 26
1920 42
1921 3
1922 2
1923 7
1924 65
1925 21
1926 21
1927 17
1928 58
1929 23
1930 21
1931 54
1932 3
1933 58
1934 15
1935 48
1936 48
1937 17
1938 30
1939 54
1940 14
1941 21
1942 26
1943 58
1944 17
1945 24
1946 30
1947 38
1948 3
1949 24
1950 15
1951 17
1952 22
1953 44
1954 22
1955 24
1956 48
1957 24
1958 6
1959 48
1960 24
1961 58
1962 32
1963 76
1964 32
1965 7
1966 32
1967 26
1968 22
1969 7
1970 30
1971 26
1972 30
1973 6
1974 22
1975 48
1976 7
1977 24
1978 26
1979 22
1980 21
1981 45
1982 23
1983 3
1984 58
1985 22
1986 21
1987 58
1988 22
1989 47
1990 52
1991 60
1992 23
1993 15
1994 58
1995 32
1996 24
1997 58
1998 83
1999 21
2000 24
2001 22
2002 25
2003 21
2004 7
2005 7
2006 32
2007 36
2008 21
2009 30
2010 7
2011 21
2012 24
2013 6
2014 24
2015 17
2016 17
2017 6
2018 3
2019 58
2020 3
2021 26
2022 22
2023 7
2024 58
2025 6
2026 30
2027 21
2028 32
2029 7
2030 0
2031 0
2032 7
2033 3
2034 3
2035 24
2036 26
2037 26
2038 58
2039 64
2040 17
2041 22
2042 23
2043 23
2044 1
2045 22
2046 24
2047 7
2048 33
2049 32
2050 48
2051 83
2052 50
2053 23
2054 26
2055 64
2056 37
2057 15
2058 23
2059 23
2060 32
2061 19
2062 64
2063 44
2064 58
2065 15
2066 24
2067 17
2068 38
2069 32
2070 7
2071 37
2072 17
2073 48
2074 21
2075 32
2076 28
2077 48
2078 48
2079 54
2080 18
2081 23
2082 17
2083 6
2084 6
2085 58
2086 23
2087 32
2088 38
2089 21
2090 61
2091 38
2092 26
2093 48
2094 22
2095 28
2096 21
2097 22
2098 37
2099 41
2100 59
2101 50
2102 17
2103 17
2104 30
2105 15
2106 3
2107 38
2108 52
2109 48
2110 44
2111 10
2112 38
2113 38
2114 7
2115 58
2116 38
2117 28
2118 48
2119 37
2120 24
2121 17
2122 17
2123 48
2124 12
2125 32
2126 32
2127 35
2128 32
2129 44
2130 0
2131 11
2132 1
2133 58
2134 58
2135 38
2136 24
2137 50
2138 38
2139 24
2140 26
2141 5
2142 48
2143 37
2144 58
2145 80
2146 16
2147 14
2148 85
2149 48
2150 55
2151 26
2152 23
2153 48
2154 48
2155 50
2156 15
2157 15
2158 68
2159 6
2160 13
2161 17
2162 48
2163 37
2164 58
2165 58
2166 15
2167 3
2168 26
2169 7
2170 6
2171 45
2172 3
2173 50
2174 26
2175 5
2176 28
2177 21
2178 48
2179 28
2180 58
2181 15
2182 7
2183 58
2184 24
2185 33
2186 24
2187 15
2188 37
2189 5
2190 0
2191 32
2192 58
2193 37
2194 32
2195 3
2196 22
2197 55
2198 50
2199 0
2200 26
2201 44
2202 20
2203 79
2204 6
2205 21
2206 23
2207 15
2208 58
2209 53
2210 6
2211 83
2212 15
2213 37
2214 85
2215 52
2216 49
2217 6
2218 24
2219 7
2220 48
2221 5
2222 17
2223 23
2224 50
2225 6
2226 52
2227 60
2228 32
2229 30
2230 57
2231 17
2232 1
2233 48
2234 24
2235 69
2236 23
2237 44
2238 7
2239 33
2240 85
2241 58
2242 7
2243 5
2244 3
2245 56
2246 32
2247 5
2248 26
2249 49
2250 21
2251 6
2252 61
2253 23
2254 1
2255 52
2256 30
2257 58
2258 76
2259 44
2260 17
2261 16
2262 28
2263 48
2264 4
2265 18
2266 26
2267 57
2268 37
2269 48
2270 1
2271 31
2272 6
2273 16
2274 7
2275 28
2276 58
2277 44
2278 4
2279 38
2280 28
2281 57
2282 50
2283 61
2284 0
2285 37
2286 33
2287 31
2288 61
2289 72
2290 4
2291 48
2292 26
2293 48
2294 4
2295 17
2296 38
2297 17
2298 48
2299 44
2300 5
2301 44
2302 13
2303 64
2304 32
2305 8
2306 32
2307 30
2308 26
2309 71
2310 37
2311 44
2312 21
2313 23
2314 28
2315 50
2316 5
2317 58
2318 37
2319 68
2320 3
2321 58
2322 21
2323 4
2324 32
2325 12
2326 42
2327 32
2328 0
2329 26
2330 62
2331 29
2332 25
2333 7
2334 41
2335 48
2336 18
2337 26
2338 24
2339 48
2340 17
2341 5
2342 24
2343 53
2344 17
2345 5
2346 48
2347 58
2348 17
2349 1
2350 7
2351 17
2352 77
2353 28
2354 48
2355 6
2356 64
2357 17
2358 42
2359 26
2360 48
2361 48
2362 16
2363 15
2364 32
2365 23
2366 32
2367 61
2368 37
2369 0
2370 17
2371 28
2372 1
2373 24
2374 11
2375 16
2376 26
2377 81
2378 11
2379 32
2380 4
2381 24
2382 17
2383 37
2384 60
2385 43
2386 55
2387 26
2388 28
2389 15
2390 32
2391 58
2392 86
2393 7
2394 4
2395 16
2396 32
2397 16
2398 17
2399 38
2400 54
2401 24
2402 15
2403 54
2404 48
2405 24
2406 4
2407 3
2408 11
2409 36
2410 48
2411 0
2412 39
2413 11
2414 62
2415 42
2416 41
2417 17
2418 16
2419 3
2420 60
2421 58
2422 32
2423 23
2424 61
2425 4
2426 16
2427 22
2428 73
2429 59
2430 19
2431 78
2432 32
2433 38
2434 26
2435 16
2436 32
2437 24
2438 37
2439 38
2440 4
2441 15
2442 50
2443 35
2444 84
2445 24
2446 3
2447 48
2448 3
2449 17
2450 3
2451 48
2452 3
2453 3
2454 84
2455 60
2456 11
2457 17
2458 41
2459 54
2460 7
2461 48
2462 15
2463 50
2464 21
2465 18
2466 58
2467 18
2468 17
2469 23
2470 19
2471 9
2472 3
2473 5
2474 67
2475 3
2476 30
2477 15
2478 36
2479 22
2480 3
2481 22
2482 42
2483 48
2484 3
2485 58
2486 22
2487 0
2488 44
2489 57
2490 56
2491 18
2492 24
2493 87
2494 47
2495 30
2496 54
2497 76
2498 3
2499 16
2500 49
2501 32
2502 37
2503 24
2504 3
2505 3
2506 26
2507 16
2508 32
2509 6
2510 3
2511 4
2512 19
2513 87
2514 61
2515 22
2516 32
2517 32
2518 66
2519 11
2520 52
2521 16
2522 7
2523 3
2524 22
2525 48
2526 1
2527 1
2528 22
2529 23
2530 5
2531 23
2532 23
2533 84
2534 41
2535 3
2536 1
2537 44
2538 16
2539 13
2540 22
2541 37
2542 18
2543 22
2544 48
2545 1
2546 21
2547 22
2548 32
2549 22
2550 64
2551 26
2552 24
2553 22
2554 16
2555 17
2556 58
2557 28
2558 24
2559 26
2560 32
2561 1
2562 32
2563 83
2564 1
2565 39
2566 58
2567 5
2568 56
2569 30
2570 1
2571 5
2572 46
2573 80
2574 21
2575 30
2576 3
2577 48
2578 0
2579 48
2580 22
2581 11
2582 30
2583 6
2584 11
2585 24
2586 21
2587 3
2588 21
2589 80
2590 64
2591 22
2592 26
2593 81
2594 17
2595 48
2596 22
2597 37
2598 22
2599 24
2600 28
2601 48
2602 79
2603 21
2604 21
2605 26
2606 1
2607 48
2608 24
2609 6
2610 16
2611 1
2612 3
2613 3
2614 48
2615 32
2616 1
2617 48
2618 16
2619 21
2620 22
2621 26
2622 11
2623 28
2624 49
2625 37
2626 32
2627 3
2628 26
2629 87
2630 45
2631 22
2632 3
2633 11
2634 19
2635 56
2636 3
2637 22
2638 22
2639 7
2640 22
2641 24
2642 3
2643 19
2644 48
2645 71
2646 38
2647 32
2648 1
2649 21
2650 29
2651 26
2652 50
2653 22
2654 5
2655 3
2656 22
2657 21
2658 36
2659 21
2660 1
2661 48
2662 5
2663 21
2664 64
2665 48
2666 22
2667 21
2668 21
2669 48
2670 19
2671 3
2672 22
2673 48
2674 3
2675 58
2676 36
2677 21
2678 48
2679 26
2680 32
2681 50
2682 48
2683 3
2684 21
2685 87
2686 30
2687 25
2688 22
2689 3
2690 30
2691 26
2692 19
2693 30
2694 16
2695 19
2696 48
2697 58
2698 48
2699 17
2700 22
2701 32
2702 36
2703 32
2704 58
2705 30
2706 29
2707 24
2708 73
2709 22
2710 0
2711 38
2712 24
2713 68
2714 44
2715 70
2716 30
2717 48
2718 11
2719 1
2720 32
2721 63
2722 21
2723 21
2724 30
2725 74
2726 19
2727 16
2728 1
2729 30
2730 78
2731 50
2732 22
2733 51
2734 30
2735 24
2736 16
2737 1
2738 17
2739 52
2740 48
2741 48
2742 21
2743 30
2744 3
2745 24
2746 28
2747 58
2748 26
2749 21
2750 15
2751 22
2752 17
2753 17
2754 59
2755 51
2756 30
2757 48
2758 1
2759 21
2760 22
2761 1
2762 44
2763 3
2764 48
2765 1
2766 83
2767 24
2768 21
2769 21
2770 18
2771 61
2772 21
2773 3
2774 58
2775 44
2776 22
2777 72
2778 80
2779 19
2780 21
2781 17
2782 32
2783 21
2784 3
2785 3
2786 7
2787 3
2788 21
2789 16
2790 3
2791 4
2792 7
2793 17
2794 39
2795 48
2796 65
2797 1
2798 11
2799 16
2800 45
2801 33
2802 50
2803 8
2804 3
2805 32
2806 19
2807 86
2808 27
2809 39
2810 48
2811 32
2812 15
2813 1
2814 3
2815 3
2816 7
2817 15
2818 24
2819 21
2820 48
2821 21
2822 56
2823 7
2824 7
2825 22
2826 3
2827 35
2828 3
2829 45
2830 7
2831 18
2832 12
2833 3
2834 22
2835 23
2836 4
2837 21
2838 48
2839 5
2840 11
2841 48
2842 3
2843 34
2844 30
2845 30
2846 3
2847 11
2848 11
2849 7
2850 3
2851 30
2852 22
2853 17
2854 3
2855 17
2856 48
2857 41
2858 30
2859 68
2860 11
2861 22
2862 56
2863 32
2864 64
2865 3
2866 41
2867 7
2868 38
2869 21
2870 19
2871 7
2872 48
2873 5
2874 71
2875 7
2876 16
2877 48
2878 22
2879 43
2880 67
2881 32
2882 3
2883 82
2884 7
2885 21
2886 21
2887 77
2888 21
2889 7
2890 7
2891 7
2892 30
2893 22
2894 52
2895 48
2896 4
2897 45
2898 43
2899 48
2900 48
2901 1
2902 22
2903 22
2904 48
2905 3
2906 62
2907 7
2908 1
2909 48
2910 22
2911 1
2912 23
2913 23
2914 24
2915 30
2916 4
2917 4
2918 21
2919 22
2920 7
2921 3
2922 28
2923 7
2924 1
2925 7
2926 4
2927 19
2928 24
2929 51
2930 18
2931 3
2932 32
2933 44
2934 22
2935 22
2936 15
2937 21
2938 21
2939 80
2940 23
2941 22
2942 22
2943 9
2944 48
2945 16
2946 5
2947 22
2948 48
2949 4
2950 11
2951 21
2952 22
2953 16
2954 48
2955 22
2956 21
2957 50
2958 58
2959 7
2960 23
2961 17
2962 1
2963 72
2964 9
2965 75
2966 53
2967 7
2968 48
2969 7
2970 48
2971 22
2972 7
2973 44
2974 23
2975 1
2976 54
2977 7
2978 15
2979 21
2980 9
2981 21
2982 6
2983 3
2984 7
2985 3
2986 48
2987 1
2988 22
2989 7
2990 33
2991 54
2992 24
2993 21
2994 21
2995 22
2996 40
2997 32
2998 7
2999 50
3000 58
3001 3
3002 48
3003 32
3004 48
3005 6
3006 16
3007 21
3008 7
3009 56
3010 3
3011 11
3012 6
3013 21
3014 21
3015 48
3016 21
3017 3
3018 19
3019 17
3020 21
3021 29
3022 21
3023 48
3024 21
3025 15
3026 22
3027 25
3028 3
3029 22
3030 3
3031 30
3032 3
3033 48
3034 21
3035 7
3036 15
3037 0
3038 7
3039 21
3040 23
3041 7
3042 78
3043 6
3044 1
3045 1
3046 11
3047 3
3048 7
3049 1
3050 7
3051 85
3052 32
3053 21
3054 37
3055 17
3056 58
3057 48
3058 3
3059 1
3060 32
3061 6
3062 3
3063 7
3064 6
3065 12
3066 30
3067 48
3068 23
3069 48
3070 22
3071 3
3072 3
3073 7
3074 48
3075 64
3076 28
3077 6
3078 48
3079 22
3080 8
3081 22
3082 48
3083 12
3084 15
3085 31
3086 3
3087 4
3088 7
3089 21
3090 30
3091 20
3092 32
3093 11
3094 17
3095 48
3096 21
3097 23
3098 23
3099 3
3100 22
3101 22
3102 1
3103 22
3104 64
3105 23
3106 26
3107 68
3108 22
3109 3
3110 7
3111 68
3112 17
3113 22
3114 37
3115 6
3116 6
3117 7
3118 48
3119 55
3120 37
3121 61
3122 48
3123 58
3124 37
3125 21
3126 48
3127 32
3128 58
3129 37
3130 50
3131 48
3132 1
3133 6
3134 28
3135 7
3136 61
3137 6
3138 26
3139 21
3140 30
3141 22
3142 7
3143 77
3144 22
3145 21
3146 70
3147 1
3148 48
3149 26
3150 32
3151 48
3152 48
3153 17
3154 45
3155 22
3156 7
3157 17
3158 5
3159 7
3160 26
3161 25
3162 3
3163 7
3164 15
3165 3
3166 24
3167 3
3168 22
3169 21
3170 44
3171 37
3172 1
3173 58
3174 26
3175 26
3176 83
3177 3
3178 55
3179 22
3180 22
3181 52
3182 21
3183 37
3184 37
3185 21
3186 3
3187 13
3188 23
3189 21
3190 21
3191 54
3192 7
3193 26
3194 1
3195 3
3196 32
3197 26
3198 33
3199 22
3200 17
3201 54
3202 45
3203 1
3204 48
3205 15
3206 48
3207 37
3208 33
3209 7
3210 26
3211 68
3212 21
3213 58
3214 26
3215 3
3216 38
3217 3
3218 21
3219 2
3220 22
3221 22
3222 15
3223 22
3224 26
3225 22
3226 57
3227 1
3228 58
3229 7
3230 21
3231 48
3232 21
3233 22
3234 36
3235 22
3236 7
3237 17
3238 48
3239 44
3240 3
3241 22
3242 50
3243 44
3244 25
3245 26
3246 5
3247 26
3248 32
3249 6
3250 38
3251 3
3252 41
3253 6
3254 15
3255 21
3256 17
3257 37
3258 15
3259 1
3260 3
3261 64
3262 48
3263 28
3264 7
3265 44
3266 22
3267 3
3268 66
3269 3
3270 75
3271 26
3272 58
3273 21
3274 18
3275 23
3276 22
3277 21
3278 1
3279 15
3280 80
3281 31
3282 22
3283 83
3284 6
3285 21
3286 45
3287 69
3288 3
3289 6
3290 45
3291 3
3292 48
3293 1
3294 3
3295 21
3296 15
3297 33
3298 21
3299 56
3300 3
3301 3
3302 1
3303 22
3304 28
3305 3
3306 57
3307 1
3308 44
3309 21
3310 6
3311 26
3312 48
3313 3
3314 1
3315 56
3316 22
3317 5
3318 3
3319 30
3320 48
3321 3
3322 4
3323 22
3324 17
3325 3
3326 50
3327 37
3328 7
3329 41
3330 7
3331 18
3332 21
3333 7
3334 58
3335 25
3336 31
3337 39
3338 5
3339 3
3340 21
3341 21
3342 23
3343 6
3344 33
3345 3
3346 48
3347 48
3348 21
3349 26
3350 37
3351 22
3352 7
3353 32
3354 70
3355 18
3356 7
3357 53
3358 48
3359 26
3360 3
3361 3
3362 81
3363 6
3364 3
3365 21
3366 26
3367 12
3368 22
3369 26
3370 26
3371 1
3372 48
3373 3
3374 26
3375 15
3376 21
3377 3
3378 16
3379 7
3380 44
3381 28
3382 24
3383 21
3384 22
3385 30
3386 44
3387 24
3388 7
3389 26
3390 22
3391 3
3392 21
3393 22
3394 37
3395 37
3396 41
3397 1
3398 14
3399 50
3400 7
3401 81
3402 3
3403 21
3404 3
3405 26
3406 26
3407 48
3408 3
3409 3
3410 28
3411 48
3412 3
3413 26
3414 3
3415 24
3416 36
3417 21
3418 7
3419 3
3420 3
3421 48
3422 26
3423 48
3424 21
3425 28
3426 21
3427 7
3428 24
3429 22
3430 38
3431 50
3432 21
3433 11
3434 22
3435 3
3436 24
3437 28
3438 48
3439 8
3440 30
3441 6
3442 22
3443 22
3444 21
3445 3
3446 60
3447 21
3448 21
3449 48
3450 26
3451 16
3452 26
3453 48
3454 23
3455 22
3456 11
3457 24
3458 3
3459 22
3460 3
3461 17
3462 51
3463 3
3464 6
3465 11
3466 26
3467 22
3468 48
3469 22
3470 11
3471 21
3472 7
3473 58
3474 7
3475 7
3476 24
3477 21
3478 24
3479 48
3480 58
3481 3
3482 3
3483 5
3484 61
3485 48
3486 73
3487 48
3488 1
3489 68
3490 38
3491 57
3492 21
3493 3
3494 58
3495 3
3496 51
3497 3
3498 7
3499 58
3500 58
3501 21
3502 54
3503 32
3504 58
3505 45
3506 45
3507 26
3508 48
3509 58
3510 22
3511 22
3512 22
3513 24
3514 26
3515 7
3516 24
3517 21
3518 24
3519 4
3520 26
3521 48
3522 26
3523 26
3524 7
3525 3
3526 6
3527 58
3528 22
3529 24
3530 1
3531 24
3532 48
3533 6
3534 7
3535 48
3536 24
3537 13
3538 21
3539 73
3540 7
3541 21
3542 80
3543 22
3544 48
3545 58
3546 58
3547 7
3548 26
3549 3
3550 47
3551 3
3552 87
3553 21
3554 24
3555 22
3556 43
3557 58
3558 26
3559 21
3560 58
3561 1
3562 21
3563 31
3564 26
3565 48
3566 3
3567 1
3568 75
3569 24
3570 83
3571 1
3572 80
3573 24
3574 26
3575 24
3576 48
3577 37
3578 28
3579 22
3580 3
3581 7
3582 26
3583 58
3584 58
3585 48
3586 26
3587 7
3588 3
3589 7
3590 5
3591 58
3592 30
3593 22
3594 24
3595 30
3596 26
3597 22
3598 26
3599 30
3600 21
3601 3
3602 21
3603 30
3604 22
3605 21
3606 51
3607 3
3608 7
3609 3
3610 21
3611 30
3612 22
3613 22
3614 58
3615 3
3616 5
3617 58
3618 19
3619 58
3620 48
3621 7
3622 32
3623 3
3624 32
3625 21
3626 16
3627 9
3628 19
3629 24
3630 21
3631 24
3632 24
3633 24
3634 32
3635 24
3636 24
3637 22
3638 48
3639 3
3640 21
3641 7
3642 48
3643 32
3644 32
3645 36
3646 7
3647 58
3648 64
3649 21
3650 32
3651 58
3652 32
3653 16
3654 41
3655 3
3656 24
3657 48
3658 26
3659 28
3660 3
3661 1
3662 50
3663 22
3664 48
3665 15
3666 26
3667 17
3668 21
3669 30
3670 26
3671 21
3672 7
3673 16
3674 32
3675 3
3676 3
3677 56
3678 62
3679 56
3680 21
3681 39
3682 30
3683 21
3684 58
3685 21
3686 24
3687 32
3688 7
3689 7
3690 0
3691 48
3692 1
3693 19
3694 61
3695 32
3696 30
3697 26
3698 12
3699 26
3700 7
3701 7
3702 48
3703 24
3704 3
3705 11
3706 24
3707 58
3708 1
3709 7
3710 48
3711 58
3712 24
3713 3
3714 7
3715 7
3716 24
3717 21
3718 24
3719 22
3720 21
3721 48
3722 3
3723 48
3724 58
3725 0
3726 58
3727 48
3728 21
3729 30
3730 58
3731 32
3732 3
3733 3
3734 19
3735 3
3736 57
3737 48
3738 3
3739 5
3740 7
3741 7
3742 7
3743 22
3744 32
3745 21
3746 24
3747 48
3748 3
3749 22
3750 22
3751 24
3752 36
3753 58
3754 3
3755 47
3756 22
3757 15
3758 32
3759 22
3760 84
3761 11
3762 21
3763 22
3764 7
3765 21
3766 38
3767 21
3768 22
3769 22
3770 3
3771 22
3772 21
3773 71
3774 7
3775 48
3776 22
3777 3
3778 22
3779 3
3780 48
3781 24
3782 22
3783 3
3784 52
3785 45
3786 22
3787 21
3788 58
3789 24
3790 25
3791 59
3792 15
3793 58
3794 26
3795 53
3796 3
3797 48
3798 7
3799 26
3800 7
3801 24
3802 24
3803 30
3804 64
3805 48
3806 13
3807 21
3808 26
3809 48
3810 48
3811 43
3812 32
3813 22
3814 32
3815 24
3816 32
3817 22
3818 32
3819 19
3820 15
3821 15
3822 9
3823 22
3824 58
3825 17
3826 32
3827 24
3828 39
3829 26
3830 21
3831 13
3832 24
3833 22
3834 58
3835 48
3836 24
3837 58
3838 12
3839 22
3840 48
3841 32
3842 48
3843 17
3844 50
3845 17
3846 21
3847 21
3848 30
3849 70
3850 17
3851 58
3852 58
3853 58
3854 1
3855 3
3856 21
3857 48
3858 48
3859 3
3860 22
3861 19
3862 24
3863 58
3864 7
3865 32
3866 22
3867 26
3868 7
3869 21
3870 30
3871 24
3872 26
3873 30
3874 22
3875 17
3876 21
3877 58
3878 17
3879 7
3880 7
3881 15
3882 26
3883 38
3884 44
3885 34
3886 48
3887 35
3888 58
3889 22
3890 32
3891 7
3892 22
3893 24
3894 18
3895 22
3896 21
3897 3
3898 26
3899 41
3900 7
3901 3
3902 24
3903 58
3904 21
3905 7
3906 21
3907 23
3908 32
3909 48
3910 7
3911 32
3912 7
3913 3
3914 32
3915 22
3916 22
3917 7
3918 22
3919 32
3920 48
3921 7
3922 32
3923 3
3924 21
3925 30
3926 58
3927 7
3928 26
3929 3
3930 3
3931 23
3932 22
3933 24
3934 17
3935 7
3936 3
3937 17
3938 26
3939 26
3940 3
3941 17
3942 7
3943 22
3944 58
3945 26
3946 3
3947 48
3948 22
3949 24
3950 11
3951 16
3952 5
3953 22
3954 15
3955 41
3956 22
3957 32
3958 24
3959 30
3960 24
3961 58
3962 24
3963 61
3964 19
3965 58
3966 3
3967 48
3968 21
3969 23
3970 7
3971 16
3972 26
3973 17
3974 48
3975 26
3976 26
3977 58
3978 84
3979 58
3980 3
3981 7
3982 23
3983 24
3984 56
3985 30
3986 22
3987 24
3988 26
3989 58
3990 7
3991 24
3992 22
3993 7
3994 22
3995 18
3996 19
3997 26
3998 48
3999 3
4000 15
4001 51
4002 30
4003 7
4004 24
4005 24
4006 58
4007 30
4008 37
4009 24
4010 14
4011 58
4012 47
4013 17
4014 23
4015 30
4016 63
4017 48
4018 7
4019 44
4020 17
4021 26
4022 17
4023 48
4024 11
4025 21
4026 48
4027 48
4028 10
4029 3
4030 26
4031 41
4032 22
4033 7
4034 22
4035 48
4036 32
4037 48
4038 58
4039 58
4040 3
4041 26
4042 26
4043 58
4044 18
4045 22
4046 58
4047 26
4048 48
4049 21
4050 32
4051 23
4052 24
4053 22
4054 4
4055 22
4056 26
4057 58
4058 44
4059 12
4060 39
4061 15
4062 23
4063 32
4064 17
4065 24
4066 58
4067 32
4068 32
4069 3
4070 32
4071 6
4072 3
4073 3
4074 22
4075 56
4076 7
4077 22
4078 22
4079 17
4080 44
4081 23
4082 48
4083 22
4084 22
4085 17
4086 45
4087 22
4088 23
4089 21
4090 21
4091 23
4092 1
4093 48
4094 26
4095 6
4096 1
4097 58
4098 6
4099 37
4100 22
4101 37
4102 19
4103 6
4104 26
4105 44
4106 48
4107 1
4108 32
4109 0
4110 16
4111 42
4112 44
4113 50
4114 22
4115 58
4116 3
4117 65
4118 21
4119 65
4120 48
4121 19
4122 32
4123 58
4124 7
4125 48
4126 24
4127 24
4128 17
4129 15
4130 26
4131 17
4132 48
4133 58
4134 32
4135 68
4136 36
4137 1
4138 37
4139 70
4140 7
4141 3
4142 17
4143 44
4144 30
4145 26
4146 30
4147 78
4148 18
4149 7
4150 2
4151 6
4152 25
4153 21
4154 32
4155 15
4156 76
4157 37
4158 30
4159 0
4160 6
4161 32
4162 22
4163 6
4164 87
4165 26
4166 58
4167 58
4168 68
4169 23
4170 28
4171 70
4172 67
4173 30
4174 7
4175 7
4176 37
4177 58
4178 28
4179 26
4180 1
4181 5
4182 48
4183 41
4184 17
4185 5
4186 26
4187 58
4188 6
4189 24
4190 19
4191 26
4192 22
4193 24
4194 66
4195 17
4196 44
4197 23
4198 48
4199 15
4200 45
4201 15
4202 52
4203 58
4204 30
4205 38
4206 28
4207 54
4208 21
4209 5
4210 80
4211 32
4212 72
4213 15
4214 61
4215 7
4216 48
4217 5
4218 6
4219 24
4220 32
4221 21
4222 41
4223 24
4224 24
4225 23
4226 3
4227 15
4228 38
4229 17
4230 2
4231 48
4232 50
4233 32
4234 30
4235 24
4236 50
4237 33
4238 5
4239 17
4240 21
4241 7
4242 16
4243 6
4244 6
4245 7
4246 50
4247 45
4248 32
4249 15
4250 53
4251 17
4252 24
4253 0
4254 58
4255 51
4256 37
4257 54
4258 32
4259 37
4260 23
4261 22
4262 68
4263 17
4264 25
4265 48
4266 19
4267 26
4268 58
4269 37
4270 54
4271 17
4272 22
4273 15
4274 5
4275 22
4276 32
4277 30
4278 5
4279 28
4280 24
4281 48
4282 17
4283 6
4284 18
4285 24
4286 44
4287 27
4288 37
4289 17
4290 3
4291 31
4292 50
4293 83
4294 0
4295 24
4296 21
4297 26
4298 17
4299 48
4300 31
4301 17
4302 4
4303 34
4304 32
4305 23
4306 71
4307 26
4308 80
4309 6
4310 61
4311 58
4312 38
4313 52
4314 17
4315 17
4316 0
4317 4
4318 17
4319 50
4320 85
4321 6
4322 45
4323 15
4324 23
4325 50
4326 6
4327 38
4328 24
4329 52
4330 57
4331 37
4332 14
4333 31
4334 50
4335 46
4336 52
4337 35
4338 65
4339 72
4340 44
4341 23
4342 7
4343 32
4344 18
4345 80
4346 17
4347 17
4348 30
4349 32
4350 58
4351 58
4352 32
4353 48
4354 15
4355 17
4356 48
4357 4
4358 24
4359 23
4360 15
4361 6
4362 24
4363 13
4364 23
4365 24
4366 48
4367 54
4368 6
4369 58
4370 28
4371 23
4372 48
4373 48
4374 48
4375 13
4376 48
4377 58
4378 64
4379 32
4380 44
4381 26
4382 43
4383 29
4384 15
4385 30
4386 24
4387 48
4388 85
4389 12
4390 52
4391 32
4392 17
4393 17
4394 42
4395 24
4396 23
4397 73
4398 46
4399 26
4400 24
4401 48
4402 48
4403 68
4404 31
4405 46
4406 26
4407 41
4408 17
4409 38
4410 48
4411 26
4412 68
4413 42
4414 36
4415 37
4416 48
4417 52
4418 11
4419 48
4420 22
4421 42
4422 23
4423 9
4424 17
4425 58
4426 16
4427 23
4428 17
4429 48
4430 48
4431 41
4432 66
4433 48
4434 48
4435 24
4436 83
4437 24
4438 5
4439 42
4440 4
4441 30
4442 50
4443 16
4444 5
4445 5
4446 44
4447 24
4448 28
4449 48
4450 54
4451 1
4452 50
4453 7
4454 41
4455 57
4456 4
4457 48
4458 26
4459 1
4460 54
4461 5
4462 70
4463 48
4464 48
4465 52
4466 38
4467 72
4468 48
4469 17
4470 3
4471 48
4472 25
4473 48
4474 8
4475 17
4476 81
4477 48
4478 3
4479 68
4480 3
4481 7
4482 48
4483 10
4484 42
4485 8
4486 19
4487 19
4488 71
4489 58
4490 3
4491 6
4492 6
4493 48
4494 46
4495 54
4496 84
4497 26
4498 26
4499 6
4500 17
4501 42
4502 19
4503 17
4504 20
4505 15
4506 32
4507 48
4508 66
4509 31
4510 43
4511 58
4512 45
4513 58
4514 6
4515 67
4516 11
4517 3
4518 17
4519 33
4520 5
4521 48
4522 23
4523 23
4524 22
4525 87
4526 48
4527 23
4528 22
4529 32
4530 48
4531 38
4532 17
4533 3
4534 22
4535 3
4536 22
4537 22
4538 58
4539 22
4540 7
4541 38
4542 55
4543 22
4544 50
4545 16
4546 32
4547 17
4548 28
4549 11
4550 32
4551 87
4552 23
4553 54
4554 22
4555 5
4556 50
4557 30
4558 26
4559 3
4560 22
4561 48
4562 19
4563 3
4564 11
4565 37
4566 20
4567 32
4568 3
4569 48
4570 15
4571 48
4572 16
4573 16
4574 48
4575 39
4576 25
4577 5
4578 6
4579 3
4580 12
4581 58
4582 22
4583 22
4584 23
4585 3
4586 3
4587 17
4588 1
4589 24
4590 64
4591 1
4592 30
4593 17
4594 13
4595 32
4596 24
4597 30
4598 30
4599 1
4600 1
4601 17
4602 1
4603 1
4604 19
4605 65
4606 48
4607 22
4608 17
4609 22
4610 22
4611 68
4612 48
4613 22
4614 17
4615 21
4616 3
4617 30
4618 48
4619 28
4620 48
4621 65
4622 41
4623 22
4624 21
4625 1
4626 48
4627 48
4628 48
4629 11
4630 48
4631 22
4632 21
4633 30
4634 32
4635 1
4636 12
4637 3
4638 3
4639 26
4640 6
4641 24
4642 41
4643 1
4644 3
4645 22
4646 48
4647 1
4648 42
4649 19
4650 48
4651 19
4652 38
4653 32
4654 3
4655 3
4656 3
4657 22
4658 22
4659 16
4660 32
4661 21
4662 17
4663 48
4664 32
4665 1
4666 1
4667 21
4668 3
4669 21
4670 21
4671 26
4672 48
4673 21
4674 68
4675 16
4676 3
4677 22
4678 17
4679 19
4680 3
4681 22
4682 32
4683 16
4684 3
4685 22
4686 9
4687 21
4688 58
4689 3
4690 48
4691 13
4692 3
4693 17
4694 19
4695 82
4696 22
4697 22
4698 48
4699 30
4700 48
4701 17
4702 22
4703 21
4704 48
4705 22
4706 41
4707 16
4708 41
4709 78
4710 22
4711 48
4712 43
4713 48
4714 3
4715 2
4716 26
4717 21
4718 48
4719 3
4720 22
4721 36
4722 65
4723 0
4724 16
4725 38
4726 48
4727 26
4728 60
4729 68
4730 21
4731 11
4732 21
4733 48
4734 1
4735 21
4736 17
4737 22
4738 48
4739 21
4740 22
4741 21
4742 24
4743 24
4744 64
4745 33
4746 3
4747 3
4748 22
4749 27
4750 48
4751 21
4752 17
4753 3
4754 17
4755 21
4756 17
4757 17
4758 58
4759 22
4760 3
4761 3
4762 52
4763 3
4764 32
4765 21
4766 30
4767 21
4768 22
4769 1
4770 44
4771 22
4772 24
4773 38
4774 16
4775 48
4776 22
4777 31
4778 11
4779 57
4780 48
4781 3
4782 22
4783 17
4784 38
4785 3
4786 3
4787 22
4788 21
4789 22
4790 31
4791 81
4792 52
4793 43
4794 58
4795 48
4796 30
4797 65
4798 3
4799 15
4800 3
4801 52
4802 32
4803 3
4804 22
4805 50
4806 1
4807 21
4808 24
4809 15
4810 10
4811 22
4812 18
4813 30
4814 17
4815 16
4816 32
4817 61
4818 4
4819 30
4820 15
4821 17
4822 17
4823 35
4824 21
4825 21
4826 1
4827 52
4828 54
4829 30
4830 3
4831 22
4832 26
4833 1
4834 32
4835 21
4836 7
4837 11
4838 32
4839 16
4840 58
4841 3
4842 22
4843 18
4844 58
4845 22
4846 22
4847 21
4848 48
4849 17
4850 30
4851 50
4852 22
4853 3
4854 28
4855 65
4856 48
4857 22
4858 22
4859 22
4860 7
4861 48
4862 3
4863 1
4864 64
4865 24
4866 3
4867 7
4868 7
4869 7
4870 45
4871 48
4872 86
4873 3
4874 22
4875 16
4876 15
4877 30
4878 3
4879 22
4880 21
4881 1
4882 19
4883 21
4884 22
4885 39
4886 48
4887 48
4888 68
4889 3
4890 6
4891 22
4892 16
4893 3
4894 7
4895 84
4896 3
4897 21
4898 50
4899 50
4900 3
4901 7
4902 64
4903 9
4904 1
4905 70
4906 15
4907 26
4908 19
4909 4
4910 48
4911 59
4912 3
4913 30
4914 30
4915 7
4916 3
4917 61
4918 24
4919 3
4920 7
4921 17
4922 38
4923 21
4924 80
4925 10
4926 19
4927 17
4928 15
4929 50
4930 33
4931 48
4932 30
4933 22
4934 1
4935 85
4936 44
4937 14
4938 22
4939 48
4940 1
4941 15
4942 21
4943 19
4944 1
4945 32
4946 7
4947 22
4948 58
4949 80
4950 21
4951 44
4952 26
4953 3
4954 19
4955 68
4956 21
4957 3
4958 48
4959 3
4960 35
4961 3
4962 18
4963 19
4964 15
4965 15
4966 21
4967 3
4968 1
4969 32
4970 28
4971 3
4972 62
4973 21
4974 3
4975 32
4976 58
4977 21
4978 1
4979 21
4980 22
4981 7
4982 21
4983 3
4984 32
4985 24
4986 39
4987 15
4988 22
4989 16
4990 33
4991 30
4992 21
4993 1
4994 21
4995 19
4996 22
4997 48
4998 32
4999 18
5000 11
5001 16
5002 37
5003 22
5004 7
5005 51
5006 33
5007 32
5008 50
5009 58
5010 22
5011 7
5012 1
5013 54
5014 33
5015 21
5016 30
5017 3
5018 21
5019 15
5020 27
5021 42
5022 54
5023 21
5024 1
5025 22
5026 48
5027 58
5028 58
5029 22
5030 30
5031 22
5032 7
5033 17
5034 7
5035 21
5036 3
5037 50
5038 48
5039 6
5040 48
5041 58
5042 6
5043 37
5044 52
5045 7
5046 6
5047 15
5048 51
5049 32
5050 3
5051 27
5052 37
5053 21
5054 7
5055 7
5056 21
5057 32
5058 51
5059 24
5060 73
5061 48
5062 83
5063 7
5064 64
5065 17
5066 31
5067 84
5068 22
5069 51
5070 54
5071 32
5072 21
5073 47
5074 3
5075 37
5076 37
5077 21
5078 21
5079 32
5080 6
5081 22
5082 22
5083 7
5084 7
5085 48
5086 3
5087 53
5088 15
5089 21
5090 48
5091 22
5092 58
5093 43
5094 48
5095 48
5096 83
5097 6
5098 22
5099 17
5100 6
5101 30
5102 24
5103 59
5104 21
5105 23
5106 17
5107 7
5108 48
5109 71
5110 22
5111 38
5112 3
5113 52
5114 32
5115 30
5116 22
5117 7
5118 22
5119 6
5120 1
5121 3
5122 0
5123 17
5124 22
5125 48
5126 16
5127 3
5128 61
5129 25
5130 41
5131 58
5132 3
5133 37
5134 7
5135 1
5136 22
5137 32
5138 23
5139 41
5140 6
5141 21
5142 21
5143 28
5144 37
5145 48
5146 1
5147 7
5148 52
5149 20
5150 28
5151 28
5152 17
5153 48
5154 48
5155 48
5156 64
5157 3
5158 3
5159 48
5160 37
5161 22
5162 19
5163 22
5164 21
5165 3
5166 30
5167 3
5168 37
5169 7
5170 33
5171 18
5172 7
5173 21
5174 22
5175 3
5176 22
5177 21
5178 28
5179 3
5180 43
5181 15
5182 7
5183 1
5184 48
5185 21
5186 15
5187 48
5188 7
5189 11
5190 35
5191 48
5192 21
5193 26
5194 16
5195 26
5196 3
5197 48
5198 3
5199 17
5200 21
5201 0
5202 1
5203 27
5204 26
5205 22
5206 7
5207 3
5208 37
5209 37
5210 7
5211 7
5212 7
5213 48
5214 32
5215 22
5216 3
5217 22
5218 22
5219 7
5220 32
5221 38
5222 15
5223 22
5224 17
5225 26
5226 26
5227 3
5228 44
5229 21
5230 7
5231 3
5232 26
5233 11
5234 48
5235 7
5236 26
5237 36
5238 6
5239 1
5240 62
5241 50
5242 6
5243 1
5244 15
5245 21
5246 7
5247 3
5248 26
5249 3
5250 21
5251 28
5252 6
5253 58
5254 3
5255 42
5256 1
5257 37
5258 22
5259 17
5260 19
5261 50
5262 15
5263 26
5264 22
5265 21
5266 52
5267 49
5268 48
5269 58
5270 19
5271 48
5272 7
5273 1
5274 3
5275 1
5276 22
5277 37
5278 22
5279 57
5280 19
5281 32
5282 26
5283 3
5284 7
5285 22
5286 22
5287 7
5288 7
5289 28
5290 50
5291 22
5292 22
5293 48
5294 23
5295 33
5296 3
5297 21
5298 22
5299 32
5300 22
5301 21
5302 21
5303 38
5304 22
5305 52
5306 37
5307 64
5308 26
5309 65
5310 30
5311 48
5312 27
5313 26
5314 5
5315 75
5316 40
5317 22
5318 3
5319 50
5320 18
5321 1
5322 21
5323 48
5324 3
5325 3
5326 1
5327 26
5328 5
5329 26
5330 7
5331 22
5332 3
5333 3
5334 21
5335 4
5336 50
5337 22
5338 4
5339 52
5340 22
5341 23
5342 21
5343 39
5344 7
5345 9
5346 87
5347 23
5348 36
5349 23
5350 3
5351 39
5352 5
5353 26
5354 74
5355 3
5356 6
5357 61
5358 48
5359 48
5360 26
5361 7
5362 24
5363 21
5364 21
5365 3
5366 26
5367 1
5368 3
5369 31
5370 37
5371 22
5372 1
5373 1
5374 7
5375 7
5376 7
5377 7
5378 48
5379 21
5380 86
5381 32
5382 26
5383 48
5384 21
5385 23
5386 17
5387 21
5388 26
5389 26
5390 57
5391 7
5392 3
5393 7
5394 13
5395 48
5396 41
5397 5
5398 40
5399 5
5400 26
5401 48
5402 49
5403 81
5404 81
5405 47
5406 51
5407 7
5408 44
5409 48
5410 50
5411 17
5412 48
5413 47
5414 52
5415 28
5416 26
5417 38
5418 54
5419 59
5420 12
5421 7
5422 84
5423 38
5424 22
5425 26
5426 39
5427 52
5428 26
5429 19
5430 21
5431 48
5432 48
5433 7
5434 3
5435 26
5436 24
5437 48
5438 5
5439 2
5440 56
5441 48
5442 7
5443 52
5444 3
5445 3
5446 40
5447 1
5448 39
5449 22
5450 26
5451 15
5452 26
5453 22
5454 12
5455 24
5456 48
5457 19
5458 22
5459 70
5460 22
5461 1
5462 22
5463 52
5464 32
5465 26
5466 22
5467 39
5468 21
5469 84
5470 24
5471 52
5472 26
5473 24
5474 48
5475 15
5476 11
5477 43
5478 3
5479 3
5480 48
5481 41
5482 7
5483 50
5484 21
5485 21
5486 21
5487 22
5488 7
5489 26
5490 21
5491 3
5492 21
5493 48
5494 24
5495 17
5496 48
5497 48
5498 16
5499 7
5500 82
5501 7
5502 26
5503 3
5504 22
5505 22
5506 22
5507 42
5508 52
5509 42
5510 80
5511 38
5512 42
5513 32
5514 48
5515 7
5516 3
5517 54
5518 44
5519 3
5520 21
5521 6
5522 48
5523 24
5524 58
5525 62
5526 48
5527 1
5528 22
5529 31
5530 24
5531 17
5532 21
5533 24
5534 26
5535 37
5536 48
5537 26
5538 22
5539 7
5540 3
5541 3
5542 21
5543 21
5544 22
5545 7
5546 7
5547 31
5548 7
5549 22
5550 7
5551 26
5552 7
5553 24
5554 24
5555 48
5556 24
5557 40
5558 22
5559 58
5560 5
5561 48
5562 3
5563 48
5564 48
5565 19
5566 48
5567 26
5568 48
5569 19
5570 22
5571 3
5572 3
5573 7
5574 55
5575 7
5576 22
5577 24
5578 21
5579 4
5580 19
5581 15
5582 61
5583 22
5584 26
5585 22
5586 7
5587 24
5588 34
5589 73
5590 0
5591 22
5592 3
5593 21
5594 26
5595 48
5596 22
5597 4
5598 24
5599 24
5600 58
5601 7
5602 26
5603 66
5604 24
5605 24
5606 5
5607 48
5608 22
5609 40
5610 23
5611 52
5612 7
5613 48
5614 48
5615 19
5616 7
5617 22
5618 63
5619 58
5620 61
5621 24
5622 16
5623 0
5624 24
5625 19
5626 22
5627 22
5628 24
5629 24
5630 7
5631 22
5632 58
5633 51
5634 58
5635 7
5636 22
5637 85
5638 11
5639 7
5640 17
5641 26
5642 7
5643 30
5644 0
5645 7
5646 62
5647 48
5648 22
5649 48
5650 7
5651 22
5652 22
5653 37
5654 33
5655 26
5656 3
5657 24
5658 21
5659 7
5660 3
5661 58
5662 24
5663 7
5664 22
5665 48
5666 24
5667 48
5668 32
5669 7
5670 48
5671 9
5672 26
5673 3
5674 7
5675 32
5676 22
5677 16
5678 55
5679 48
5680 7
5681 3
5682 26
5683 3
5684 26
5685 58
5686 48
5687 22
5688 48
5689 58
5690 22
5691 48
5692 22
5693 22
5694 48
5695 3
5696 32
5697 44
5698 24
5699 7
5700 22
5701 24
5702 24
5703 32
5704 22
5705 3
5706 48
5707 32
5708 21
5709 22
5710 22
5711 30
5712 26
5713 48
5714 83
5715 21
5716 39
5717 19
5718 7
5719 7
5720 58
5721 7
5722 48
5723 7
5724 41
5725 24
5726 61
5727 36
5728 26
5729 48
5730 30
5731 48
5732 58
5733 21
5734 30
5735 21
5736 37
5737 68
5738 7
5739 19
5740 7
5741 22
5742 30
5743 32
5744 24
5745 7
5746 21
5747 48
5748 52
5749 32
5750 30
5751 3
5752 22
5753 79
5754 30
5755 3
5756 26
5757 3
5758 23
5759 21
5760 21
5761 22
5762 74
5763 21
5764 7
5765 24
5766 22
5767 58
5768 7
5769 7
5770 24
5771 21
5772 7
5773 7
5774 22
5775 3
5776 21
5777 50
5778 58
5779 58
5780 33
5781 5
5782 24
5783 26
5784 1
5785 7
5786 48
5787 7
5788 21
5789 21
5790 54
5791 58
5792 3
5793 7
5794 20
5795 58
5796 22
5797 7
5798 32
5799 32
5800 11
5801 22
5802 26
5803 22
5804 26
5805 26
5806 48
5807 21
5808 7
5809 48
5810 21
5811 7
5812 26
5813 24
5814 3
5815 26
5816 24
5817 58
5818 22
5819 1
5820 22
5821 54
5822 26
5823 22
5824 11
5825 7
5826 7
5827 26
5828 32
5829 21
5830 58
5831 58
5832 32
5833 7
5834 48
5835 58
5836 19
5837 51
5838 24
5839 24
5840 16
5841 24
5842 7
5843 58
5844 50
5845 22
5846 26
5847 3
5848 22
5849 3
5850 58
5851 3
5852 7
5853 32
5854 7
5855 58
5856 15
5857 32
5858 22
5859 58
5860 3
5861 22
5862 24
5863 32
5864 15
5865 48
5866 28
5867 24
5868 48
5869 21
5870 32
5871 22
5872 31
5873 26
5874 21
5875 22
5876 58
5877 58
5878 58
5879 22
5880 15
5881 66
5882 3
5883 15
5884 21
5885 24
5886 7
5887 11
5888 7
5889 22
5890 17
5891 24
5892 22
5893 32
5894 32
5895 0
5896 3
5897 48
5898 3
5899 7
5900 3
5901 21
5902 3
5903 7
5904 58
5905 21
5906 3
5907 17
5908 4
5909 21
5910 26
5911 32
5912 58
5913 3
5914 7
5915 17
5916 3
5917 1
5918 26
5919 32
5920 26
5921 36
5922 7
5923 24
5924 7
5925 38
5926 58
5927 17
5928 58
5929 48
5930 48
5931 26
5932 21
5933 7
5934 1
5935 48
5936 30
5937 48
5938 32
5939 24
5940 7
5941 26
5942 21
5943 21
5944 17
5945 21
5946 32
5947 22
5948 32
5949 32
5950 32
5951 22
5952 48
5953 7
5954 3
5955 26
5956 26
5957 7
5958 4
5959 17
5960 32
5961 42
5962 7
5963 32
5964 3
5965 32
5966 23
5967 3
5968 7
5969 58
5970 26
5971 32
5972 32
5973 24
5974 23
5975 22
5976 48
5977 23
5978 48
5979 7
5980 17
5981 21
5982 62
5983 58
5984 41
5985 7
5986 12
5987 17
5988 3
5989 48
5990 17
5991 22
5992 58
5993 7
5994 1
5995 81
5996 18
5997 45
5998 3
5999 50
6000 22
6001 24
6002 24
6003 32
6004 17
6005 1
6006 48
6007 21
6008 32
6009 16
6010 22
6011 48
6012 24
6013 48
6014 48
6015 3
6016 17
6017 17
6018 24
6019 3
6020 22
6021 48
6022 45
6023 48
6024 7
6025 7
6026 22
6027 24
6028 7
6029 26
6030 32
6031 21
6032 3
6033 48
6034 32
6035 21
6036 18
6037 32
6038 3
6039 17
6040 24
6041 32
6042 58
6043 15
6044 21
6045 58
6046 23
6047 33
6048 24
6049 17
6050 22
6051 21
6052 22
6053 17
6054 48
6055 7
6056 55
6057 1
6058 30
6059 17
6060 6
6061 24
6062 58
6063 32
6064 23
6065 17
6066 48
6067 31
6068 4
6069 7
6070 23
6071 24
6072 24
6073 22
6074 1
6075 32
6076 17
6077 17
6078 52
6079 82
6080 3
6081 17
6082 48
6083 17
6084 17
6085 48
6086 3
6087 22
6088 19
6089 24
6090 21
6091 32
6092 24
6093 57
6094 32
6095 33
6096 58
6097 24
6098 26
6099 22
6100 17
6101 58
6102 24
6103 45
6104 23
6105 32
6106 11
6107 48
6108 21
6109 37
6110 32
6111 24
6112 26
6113 58
6114 48
6115 26
6116 0
6117 26
6118 48
6119 22
6120 24
6121 17
6122 15
6123 22
6124 32
6125 26
6126 32
6127 24
6128 7
6129 32
6130 58
6131 26
6132 17
6133 32
6134 3
6135 38
6136 23
6137 76
6138 48
6139 3
6140 17
6141 58
6142 48
6143 3
6144 79
6145 73
6146 54
6147 21
6148 65
6149 39
6150 44
6151 30
6152 54
6153 24
6154 26
6155 29
6156 21
6157 26
6158 53
6159 22
6160 12
6161 15
6162 17
6163 24
6164 48
6165 18
6166 15
6167 26
6168 58
6169 30
6170 15
6171 24
6172 58
6173 48
6174 7
6175 29
6176 3
6177 26
6178 48
6179 23
6180 66
6181 32
6182 32
6183 17
6184 48
6185 36
6186 24
6187 68
6188 68
6189 17
6190 7
6191 25
6192 0
6193 23
6194 1
6195 15
6196 24
6197 24
6198 0
6199 23
6200 38
6201 6
6202 7
6203 12
6204 58
6205 32
6206 15
6207 48
6208 48
6209 55
6210 12
6211 38
6212 32
6213 7
6214 38
6215 48
6216 0
6217 22
6218 19
6219 2
6220 36
6221 6
6222 35
6223 48
6224 32
6225 31
6226 44
6227 45
6228 28
6229 44
6230 17
6231 39
6232 37
6233 50
6234 7
6235 23
6236 48
6237 5
6238 58
6239 66
6240 58
6241 17
6242 23
6243 26
6244 17
6245 54
6246 35
6247 48
6248 50
6249 38
6250 24
6251 24
6252 48
6253 7
6254 21
6255 3
6256 24
6257 48
6258 48
6259 32
6260 17
6261 45
6262 26
6263 28
6264 48
6265 50
6266 23
6267 32
6268 83
6269 48
6270 9
6271 3
6272 17
6273 30
6274 52
6275 48
6276 54
6277 48
6278 76
6279 26
6280 48
6281 80
6282 23
6283 23
6284 48
6285 32
6286 31
6287 57
6288 32
6289 38
6290 36
6291 24
6292 48
6293 24
6294 39
6295 48
6296 32
6297 31
6298 17
6299 24
6300 25
6301 38
6302 72
6303 36
6304 32
6305 17
6306 50
6307 24
6308 7
6309 28
6310 24
6311 5
6312 48
6313 48
6314 51
6315 27
6316 30
6317 6
6318 17
6319 23
6320 26
6321 58
6322 48
6323 22
6324 58
6325 48
6326 15
6327 15
6328 48
6329 0
6330 33
6331 52
6332 48
6333 58
6334 28
6335 15
6336 5
6337 48
6338 17
6339 36
6340 17
6341 24
6342 17
6343 48
6344 79
6345 44
6346 58
6347 61
6348 3
6349 48
6350 48
6351 30
6352 28
6353 5
6354 17
6355 15
6356 52
6357 33
6358 45
6359 6
6360 81
6361 50
6362 11
6363 30
6364 24
6365 39
6366 32
6367 26
6368 48
6369 26
6370 17
6371 32
6372 30
6373 19
6374 48
6375 26
6376 3
6377 63
6378 48
6379 4
6380 80
6381 30
6382 24
6383 44
6384 32
6385 48
6386 60
6387 31
6388 32
6389 28
6390 39
6391 36
6392 24
6393 37
6394 44
6395 5
6396 36
6397 48
6398 17
6399 65
6400 6
6401 24
6402 24
6403 30
6404 36
6405 24
6406 50
6407 38
6408 45
6409 21
6410 21
6411 23
6412 32
6413 32
6414 5
6415 34
6416 17
6417 48
6418 68
6419 17
6420 24
6421 52
6422 24
6423 50
6424 52
6425 72
6426 17
6427 41
6428 21
6429 61
6430 24
6431 5
6432 6
6433 58
6434 63
6435 48
6436 17
6437 58
6438 21
6439 24
6440 6
6441 16
6442 38
6443 18
6444 38
6445 26
6446 75
6447 24
6448 48
6449 48
6450 16
6451 22
6452 15
6453 5
6454 7
6455 32
6456 33
6457 0
6458 48
6459 83
6460 59
6461 6
6462 17
6463 12
6464 26
6465 24
6466 60
6467 30
6468 38
6469 68
6470 48
6471 32
6472 26
6473 58
6474 31
6475 49
6476 17
6477 83
6478 48
6479 38
6480 14
6481 3
6482 86
6483 5
6484 28
6485 42
6486 26
6487 14
6488 32
6489 63
6490 32
6491 28
6492 36
6493 5
6494 28
6495 38
6496 11
6497 22
6498 26
6499 24
6500 58
6501 48
6502 65
6503 16
6504 9
6505 50
6506 15
6507 24
6508 75
6509 6
6510 65
6511 78
6512 26
6513 48
6514 65
6515 14
6516 15
6517 28
6518 58
6519 38
6520 73
6521 48
6522 11
6523 32
6524 38
6525 3
6526 3
6527 33
6528 17
6529 3
6530 61
6531 26
6532 17
6533 48
6534 48
6535 11
6536 6
6537 32
6538 17
6539 26
6540 48
6541 6
6542 48
6543 19
6544 48
6545 42
6546 5
6547 26
6548 31
6549 26
6550 47
6551 18
6552 3
6553 48
6554 80
6555 32
6556 19
6557 26
6558 37
6559 50
6560 84
6561 24
6562 24
6563 37
6564 48
6565 30
6566 45
6567 3
6568 48
6569 16
6570 3
6571 48
6572 65
6573 24
6574 48
6575 19
6576 26
6577 47
6578 48
6579 22
6580 22
6581 48
6582 17
6583 48
6584 3
6585 52
6586 60
6587 32
6588 54
6589 67
6590 48
6591 48
6592 48
6593 22
6594 27
6595 22
6596 3
6597 23
6598 21
6599 64
6600 67
6601 35
6602 48
6603 22
6604 22
6605 18
6606 11
6607 30
6608 48
6609 58
6610 25
6611 48
6612 19
6613 33
6614 48
6615 7
6616 79
6617 22
6618 3
6619 22
6620 48
6621 48
6622 22
6623 22
6624 24
6625 1
6626 48
6627 84
6628 6
6629 3
6630 3
6631 19
6632 47
6633 5
6634 22
6635 11
6636 37
6637 22
6638 1
6639 30
6640 58
6641 50
6642 22
6643 3
6644 3
6645 11
6646 48
6647 62
6648 3
6649 17
6650 3
6651 15
6652 24
6653 22
6654 3
6655 25
6656 76
6657 48
6658 22
6659 19
6660 6
6661 41
6662 30
6663 21
6664 48
6665 21
6666 28
6667 54
6668 22
6669 22
6670 21
6671 4
6672 30
6673 22
6674 87
6675 3
6676 11
6677 22
6678 21
6679 73
6680 7
6681 1
6682 42
6683 3
6684 21
6685 3
6686 3
6687 3
6688 22
6689 22
6690 59
6691 17
6692 48
6693 75
6694 3
6695 30
6696 30
6697 17
6698 11
6699 4
6700 32
6701 48
6702 3
6703 21
6704 3
6705 3
6706 24
6707 32
6708 19
6709 16
6710 21
6711 58
6712 74
6713 22
6714 48
6715 30
6716 22
6717 22
6718 22
6719 38
6720 49
6721 53
6722 28
6723 48
6724 58
6725 3
6726 67
6727 17
6728 22
6729 15
6730 21
6731 23
6732 37
6733 22
6734 22
6735 22
6736 21
6737 48
6738 6
6739 3
6740 32
6741 21
6742 21
6743 41
6744 3
6745 23
6746 22
6747 17
6748 3
6749 32
6750 19
6751 31
6752 48
6753 21
6754 21
6755 24
6756 3
6757 3
6758 32
6759 22
6760 83
6761 28
6762 1
6763 61
6764 9
6765 3
6766 11
6767 39
6768 21
6769 16
6770 1
6771 19
6772 48
6773 21
6774 1
6775 19
6776 24
6777 28
6778 52
6779 26
6780 22
6781 1
6782 21
6783 32
6784 1
6785 78
6786 16
6787 22
6788 48
6789 17
6790 3
6791 22
6792 16
6793 53
6794 44
6795 3
6796 22
6797 51
6798 53
6799 19
6800 51
6801 21
6802 30
6803 48
6804 22
6805 22
6806 36
6807 25
6808 50
6809 21
6810 48
6811 21
6812 17
6813 61
6814 28
6815 62
6816 16
6817 51
6818 26
6819 3
6820 21
6821 22
6822 48
6823 3
6824 24
6825 21
6826 32
6827 30
6828 30
6829 3
6830 24
6831 21
6832 22
6833 17
6834 3
6835 36
6836 21
6837 19
6838 48
6839 22
6840 30
6841 31
6842 11
6843 3
6844 30
6845 3
6846 21
6847 45
6848 21
6849 11
6850 15
6851 32
6852 50
6853 3
6854 17
6855 50
6856 65
6857 30
6858 22
6859 15
6860 28
6861 9
6862 21
6863 47
6864 14
6865 58
6866 22
6867 3
6868 38
6869 15
6870 54
6871 17
6872 48
6873 21
6874 39
6875 48
6876 7
6877 7
6878 11
6879 22
6880 66
6881 21
6882 1
6883 19
6884 32
6885 22
6886 4
6887 15
6888 15
6889 32
6890 7
6891 84
6892 48
6893 21
6894 16
6895 7
6896 21
6897 56
6898 1
6899 7
6900 83
6901 24
6902 48
6903 24
6904 32
6905 3
6906 48
6907 73
6908 15
6909 7
6910 3
6911 58
6912 17
6913 21
6914 48
6915 7
6916 27
6917 21
6918 71
6919 32
6920 3
6921 32
6922 7
6923 15
6924 48
6925 11
6926 3
6927 48
6928 38
6929 24
6930 16
6931 21
6932 16
6933 26
6934 48
6935 3
6936 42
6937 1
6938 7
6939 21
6940 48
6941 22
6942 21
6943 38
6944 21
6945 15
6946 22
6947 52
6948 7
6949 49
6950 3
6951 7
6952 21
6953 48
6954 58
6955 30
6956 21
6957 21
6958 21
6959 21
6960 48
6961 52
6962 7
6963 30
6964 28
6965 3
6966 24
6967 21
6968 17
6969 28
6970 26
6971 17
6972 21
6973 7
6974 21
6975 7
6976 50
6977 42
6978 26
6979 32
6980 7
6981 15
6982 32
6983 22
6984 21
6985 72
6986 7
6987 55
6988 32
6989 48
6990 11
6991 3
6992 48
6993 21
6994 17
6995 26
6996 48
6997 21
6998 3
6999 17
7000 1
7001 21
7002 7
7003 32
7004 48
7005 47
7006 1
7007 32
7008 7
7009 48
7010 3
7011 17
7012 7
7013 22
7014 19
7015 15
7016 23
7017 51
7018 7
7019 48
7020 15
7021 15
7022 16
7023 3
7024 3
7025 17
7026 10
7027 32
7028 36
7029 83
7030 58
7031 17
7032 14
7033 1
7034 21
7035 60
7036 22
7037 5
7038 1
7039 48
7040 30
7041 11
7042 71
7043 48
7044 32
7045 58
7046 21
7047 7
7048 58
7049 77
7050 32
7051 30
7052 17
7053 3
7054 21
7055 58
7056 21
7057 3
7058 3
7059 44
7060 86
7061 33
7062 25
7063 7
7064 26
7065 7
7066 78
7067 48
7068 11
7069 7
7070 21
7071 48
7072 24
7073 48
7074 1
7075 15
7076 62
7077 5
7078 23
7079 22
7080 52
7081 17
7082 21
7083 44
7084 21
7085 23
7086 1
7087 31
7088 44
7089 31
7090 7
7091 45
7092 80
7093 42
7094 51
7095 32
7096 48
7097 55
7098 43
7099 22
7100 16
7101 48
7102 22
7103 22
7104 11
7105 21
7106 3
7107 44
7108 24
7109 48
7110 83
7111 19
7112 7
7113 22
7114 16
7115 30
7116 46
7117 44
7118 23
7119 22
7120 22
7121 48
7122 48
7123 38
7124 3
7125 23
7126 48
7127 1
7128 48
7129 3
7130 60
7131 61
7132 22
7133 39
7134 23
7135 6
7136 53
7137 66
7138 50
7139 6
7140 48
7141 0
7142 17
7143 48
7144 48
7145 7
7146 22
7147 6
7148 23
7149 0
7150 22
7151 22
7152 16
7153 21
7154 7
7155 17
7156 26
7157 3
7158 32
7159 21
7160 22
7161 48
7162 21
7163 48
7164 48
7165 3
7166 1
7167 58
7168 58
7169 6
7170 3
7171 21
7172 48
7173 22
7174 66
7175 44
7176 30
7177 79
7178 10
7179 58
7180 21
7181 3
7182 48
7183 3
7184 23
7185 3
7186 16
7187 22
7188 44
7189 4
7190 20
7191 60
7192 21
7193 3
7194 22
7195 77
7196 22
7197 48
7198 3
7199 72
7200 30
7201 48
7202 48
7203 49
7204 48
7205 6
7206 68
7207 3
7208 15
7209 21
7210 36
7211 21
7212 32
7213 37
7214 44
7215 3
7216 22
7217 3
7218 22
7219 3
7220 22
7221 22
7222 2
7223 3
7224 7
7225 3
7226 47
7227 32
7228 22
7229 19
7230 27
7231 24
7232 58
7233 3
7234 19
7235 23
7236 22
7237 3
7238 26
7239 19
7240 84
7241 21
7242 48
7243 7
7244 22
7245 63
7246 1
7247 26
7248 21
7249 3
7250 26
7251 22
7252 48
7253 26
7254 48
7255 3
7256 26
7257 32
7258 3
7259 26
7260 68
7261 23
7262 1
7263 5
7264 3
7265 6
7266 37
7267 66
7268 3
7269 3
7270 26
7271 26
7272 51
7273 26
7274 26
7275 22
7276 17
7277 77
7278 1
7279 26
7280 6
7281 3
7282 22
7283 24
7284 36
7285 7
7286 37
7287 30
7288 22
7289 36
7290 3
7291 17
7292 44
7293 22
7294 6
7295 7
7296 26
7297 7
7298 22
7299 21
7300 33
7301 48
7302 3
7303 15
7304 12
7305 22
7306 7
7307 34
7308 48
7309 80
7310 26
7311 26
7312 38
7313 3
7314 0
7315 47
7316 26
7317 77
7318 26
7319 53
7320 15
7321 26
7322 22
7323 26
7324 21
7325 33
7326 36
7327 85
7328 26
7329 6
7330 26
7331 22
7332 21
7333 22
7334 26
7335 3
7336 22
7337 44
7338 26
7339 5
7340 21
7341 7
7342 7
7343 48
7344 26
7345 16
7346 53
7347 48
7348 22
7349 3
7350 40
7351 26
7352 21
7353 21
7354 48
7355 49
7356 17
7357 21
7358 30
7359 26
7360 25
7361 17
7362 21
7363 58
7364 5
7365 38
7366 48
7367 48
7368 22
7369 22
7370 26
7371 61
7372 22
7373 52
7374 48
7375 33
7376 3
7377 44
7378 3
7379 23
7380 1
7381 83
7382 58
7383 1
7384 22
7385 37
7386 21
7387 54
7388 48
7389 1
7390 22
7391 26
7392 26
7393 22
7394 83
7395 3
7396 33
7397 48
7398 0
7399 1
7400 26
7401 22
7402 48
7403 32
7404 48
7405 58
7406 26
7407 5
7408 15
7409 5
7410 26
7411 54
7412 21
7413 7
7414 3
7415 3
7416 7
7417 7
7418 26
7419 50
7420 26
7421 3
7422 30
7423 23
7424 26
7425 48
7426 21
7427 7
7428 7
7429 22
7430 7
7431 26
7432 3
7433 3
7434 3
7435 3
7436 48
7437 5
7438 22
7439 17
7440 3
7441 7
7442 48
7443 53
7444 58
7445 26
7446 49
7447 22
7448 7
7449 7
7450 27
7451 7
7452 22
7453 48
7454 23
7455 7
7456 6
7457 0
7458 21
7459 7
7460 21
7461 18
7462 16
7463 1
7464 48
7465 22
7466 1
7467 3
7468 25
7469 26
7470 9
7471 61
7472 22
7473 26
7474 26
7475 26
7476 17
7477 5
7478 48
7479 48
7480 28
7481 62
7482 22
7483 26
7484 48
7485 61
7486 7
7487 48
7488 4
7489 3
7490 64
7491 87
7492 7
7493 7
7494 22
7495 24
7496 22
7497 48
7498 48
7499 4
7500 7
7501 1
7502 7
7503 48
7504 82
7505 37
7506 36
7507 32
7508 6
7509 21
7510 16
7511 24
7512 7
7513 26
7514 61
7515 49
7516 7
7517 50
7518 22
7519 22
7520 24
7521 22
7522 26
7523 48
7524 24
7525 24
7526 3
7527 22
7528 24
7529 1
7530 22
7531 22
7532 48
7533 24
7534 22
7535 7
7536 26
7537 24
7538 3
7539 21
7540 9
7541 1
7542 44
7543 22
7544 22
7545 22
7546 48
7547 21
7548 24
7549 21
7550 12
7551 24
7552 58
7553 21
7554 7
7555 5
7556 19
7557 7
7558 21
7559 11
7560 26
7561 48
7562 58
7563 44
7564 54
7565 21
7566 11
7567 16
7568 58
7569 48
7570 58
7571 40
7572 58
7573 26
7574 3
7575 26
7576 83
7577 38
7578 7
7579 58
7580 49
7581 36
7582 26
7583 24
7584 24
7585 24
7586 22
7587 26
7588 21
7589 58
7590 26
7591 48
7592 26
7593 24
7594 48
7595 3
7596 3
7597 32
7598 5
7599 22
7600 58
7601 21
7602 58
7603 22
7604 7
7605 21
7606 10
7607 7
7608 1
7609 18
7610 22
7611 3
7612 21
7613 58
7614 58
7615 3
7616 3
7617 79
7618 58
7619 21
7620 23
7621 21
7622 16
7623 7
7624 58
7625 23
7626 3
7627 45
7628 48
7629 21
7630 7
7631 24
7632 61
7633 7
7634 24
7635 48
7636 26
7637 48
7638 3
7639 37
7640 22
7641 11
7642 7
7643 26
7644 48
7645 4
7646 7
7647 11
7648 48
7649 5
7650 7
7651 21
7652 7
7653 21
7654 24
7655 22
7656 21
7657 26
7658 58
7659 6
7660 24
7661 74
7662 48
7663 7
7664 21
7665 7
7666 22
7667 22
7668 37
7669 26
7670 48
7671 3
7672 24
7673 3
7674 16
7675 24
7676 5
7677 48
7678 21
7679 7
7680 26
7681 48
7682 61
7683 3
7684 11
7685 12
7686 39
7687 16
7688 3
7689 21
7690 3
7691 7
7692 18
7693 64
7694 22
7695 58
7696 58
7697 7
7698 24
7699 86
7700 24
7701 22
7702 22
7703 5
7704 26
7705 22
7706 22
7707 44
7708 20
7709 58
7710 24
7711 54
7712 58
7713 7
7714 32
7715 24
7716 22
7717 48
7718 22
7719 3
7720 3
7721 73
7722 87
7723 48
7724 3
7725 58
7726 24
7727 21
7728 26
7729 58
7730 16
7731 58
7732 3
7733 26
7734 21
7735 58
7736 32
7737 7
7738 7
7739 15
7740 6
7741 24
7742 48
7743 71
7744 26
7745 3
7746 26
7747 38
7748 16
7749 48
7750 7
7751 58
7752 7
7753 21
7754 24
7755 7
7756 7
7757 22
7758 0
7759 26
7760 22
7761 7
7762 3
7763 22
7764 21
7765 3
7766 22
7767 32
7768 22
7769 45
7770 17
7771 22
7772 24
7773 22
7774 32
7775 22
7776 58
7777 32
7778 11
7779 26
7780 24
7781 32
7782 17
7783 24
7784 32
7785 24
7786 32
7787 62
7788 21
7789 7
7790 26
7791 7
7792 7
7793 52
7794 21
7795 1
7796 7
7797 26
7798 7
7799 72
7800 58
7801 22
7802 3
7803 3
7804 3
7805 22
7806 21
7807 32
7808 22
7809 80
7810 48
7811 24
7812 24
7813 1
7814 7
7815 37
7816 32
7817 5
7818 58
7819 46
7820 48
7821 26
7822 7
7823 58
7824 24
7825 32
7826 24
7827 24
7828 48
7829 32
7830 58
7831 21
7832 51
7833 26
7834 7
7835 21
7836 26
7837 32
7838 21
7839 21
7840 70
7841 26
7842 32
7843 48
7844 52
7845 11
7846 52
7847 32
7848 54
7849 7
7850 21
7851 73
7852 31
7853 21
7854 7
7855 19
7856 26
7857 3
7858 3
7859 49
7860 22
7861 58
7862 5
7863 7
7864 3
7865 32
7866 7
7867 48
7868 26
7869 50
7870 7
7871 3
7872 48
7873 26
7874 23
7875 3
7876 7
7877 58
7878 21
7879 58
7880 24
7881 22
7882 3
7883 21
7884 26
7885 21
7886 22
7887 21
7888 7
7889 87
7890 52
7891 24
7892 3
7893 35
7894 48
7895 32
7896 32
7897 24
7898 38
7899 32
7900 26
7901 58
7902 30
7903 24
7904 61
7905 22
7906 5
7907 24
7908 63
7909 19
7910 48
7911 22
7912 19
7913 22
7914 64
7915 3
7916 21
7917 22
7918 7
7919 3
7920 22
7921 58
7922 17
7923 48
7924 7
7925 48
7926 24
7927 58
7928 7
7929 17
7930 26
7931 3
7932 32
7933 5
7934 15
7935 21
7936 24
7937 21
7938 32
7939 11
7940 17
7941 21
7942 58
7943 21
7944 58
7945 7
7946 58
7947 22
7948 21
7949 63
7950 41
7951 32
7952 32
7953 17
7954 26
7955 64
7956 22
7957 26
7958 20
7959 17
7960 26
7961 49
7962 19
7963 22
7964 32
7965 41
7966 48
7967 21
7968 24
7969 7
7970 7
7971 21
7972 7
7973 21
7974 22
7975 18
7976 48
7977 17
7978 17
7979 4
7980 21
7981 17
7982 3
7983 15
7984 19
7985 42
7986 3
7987 21
7988 17
7989 21
7990 21
7991 15
7992 22
7993 7
7994 32
7995 22
7996 58
7997 24
7998 17
7999 48
8000 32
8001 17
8002 17
8003 22
8004 7
8005 1
8006 3
8007 21
8008 58
8009 30
8010 26
8011 45
8012 3
8013 3
8014 17
8015 21
8016 70
8017 58
8018 32
8019 22
8020 24
8021 48
8022 3
8023 32
8024 24
8025 32
8026 7
8027 26
8028 22
8029 32
8030 3
8031 15
8032 21
8033 50
8034 58
8035 56
8036 21
8037 58
8038 21
8039 16
8040 4
8041 15
8042 21
8043 24
8044 21
8045 8
8046 21
8047 17
8048 54
8049 48
8050 24
8051 21
8052 58
8053 15
8054 24
8055 3
8056 21
8057 58
8058 21
8059 16
8060 21
8061 17
8062 32
8063 23
8064 22
8065 26
8066 22
8067 32
8068 32
8069 26
8070 32
8071 24
8072 3
8073 26
8074 3
8075 48
8076 22
8077 22
8078 17
8079 22
8080 25
8081 7
8082 22
8083 26
8084 21
8085 17
8086 22
8087 17
8088 21
8089 3
8090 21
8091 24
8092 32
8093 3
8094 32
8095 24
8096 3
8097 32
8098 58
8099 3
8100 21
8101 27
8102 26
8103 44
8104 3
8105 11
8106 3
8107 24
8108 3
8109 45
8110 22
8111 44
8112 26
8113 32
8114 24
8115 3
8116 58
8117 24
8118 58
8119 32
8120 32
8121 32
8122 19
8123 26
8124 26
8125 26
8126 4
8127 6
8128 48
8129 48
8130 48
8131 7
8132 21
8133 21
8134 22
8135 58
8136 7
8137 32
8138 17
8139 19
8140 77
8141 23
8142 26
8143 58
8144 48
8145 22
8146 24
8147 24
8148 24
8149 22
8150 32
8151 24
8152 44
8153 24
8154 26
8155 23
8156 22
8157 48
8158 6
8159 58
8160 21
8161 22
8162 7
8163 39
8164 17
8165 13
8166 24
8167 22
8168 17
8169 6
8170 3
8171 32
8172 32
8173 26
8174 26
8175 21
8176 22
8177 48
8178 24
8179 45
8180 17
8181 17
8182 22
8183 19
8184 26
8185 6
8186 44
8187 7
8188 17
8189 24
8190 24
8191 1
8192 58
8193 67
8194 23
8195 66
8196 58
8197 84
8198 48
8199 19
8200 17
8201 48
8202 16
8203 39
8204 17
8205 37
8206 17
8207 3
8208 48
8209 23
8210 12
8211 48
8212 48
8213 58
8214 7
8215 26
8216 48
8217 58
8218 26
8219 49
8220 24
8221 23
8222 80
8223 28
8224 57
8225 69
8226 23
8227 48
8228 32
8229 23
8230 48
8231 24
8232 39
8233 44
8234 17
8235 32
8236 44
8237 53
8238 36
8239 23
8240 48
8241 19
8242 36
8243 17
8244 17
8245 38
8246 15
8247 21
8248 48
8249 26
8250 32
8251 26
8252 23
8253 26
8254 32
8255 54
8256 32
8257 37
8258 32
8259 17
8260 48
8261 24
8262 48
8263 62
8264 6
8265 26
8266 35
8267 32
8268 72
8269 16
8270 44
8271 59
8272 54
8273 15
8274 65
8275 23
8276 44
8277 5
8278 50
8279 36
8280 32
8281 48
8282 32
8283 58
8284 7
8285 31
8286 15
8287 26
8288 54
8289 58
8290 68
8291 22
8292 58
8293 25
8294 24
8295 30
8296 65
8297 11
8298 5
8299 58
8300 45
8301 24
8302 21
8303 58
8304 24
8305 15
8306 30
8307 37
8308 48
8309 58
8310 58
8311 23
8312 7
8313 48
8314 44
8315 17
8316 48
8317 21
8318 17
8319 30
8320 26
8321 9
8322 15
8323 22
8324 26
8325 32
8326 5
8327 7
8328 21
8329 21
8330 48
8331 5
8332 7
8333 30
8334 58
8335 16
8336 28
8337 87
8338 5
8339 24
8340 5
8341 82
8342 58
8343 5
8344 7
8345 7
8346 68
8347 24
8348 48
8349 28
8350 52
8351 48
8352 3
8353 37
8354 6
8355 32
8356 5
8357 24
8358 24
8359 50
8360 17
8361 58
8362 58
8363 21
8364 6
8365 26
8366 56
8367 28
8368 48
8369 5
8370 50
8371 50
8372 54
8373 38
8374 31
8375 56
8376 34
8377 17
8378 33
8379 82
8380 38
8381 7
8382 50
8383 38
8384 18
8385 32
8386 58
8387 30
8388 32
8389 58
8390 31
8391 7
8392 18
8393 5
8394 5
8395 43
8396 48
8397 17
8398 4
8399 37
8400 24
8401 30
8402 55
8403 26
8404 24
8405 44
8406 11
8407 37
8408 32
8409 15
8410 3
8411 58
8412 37
8413 78
8414 4
8415 37
8416 17
8417 75
8418 17
8419 58
8420 21
8421 48
8422 5
8423 4
8424 0
8425 24
8426 48
8427 24
8428 15
8429 15
8430 26
8431 32
8432 61
8433 74
8434 5
8435 28
8436 3
8437 6
8438 16
8439 8
8440 5
8441 18
8442 32
8443 44
8444 48
8445 36
8446 5
8447 33
8448 4
8449 26
8450 7
8451 24
8452 7
8453 17
8454 64
8455 48
8456 17
8457 17
8458 45
8459 64
8460 32
8461 24
8462 27
8463 46
8464 0
8465 24
8466 22
8467 6
8468 38
8469 24
8470 5
8471 42
8472 48
8473 17
8474 1
8475 50
8476 26
8477 4
8478 44
8479 7
8480 24
8481 44
8482 32
8483 48
8484 18
8485 22
8486 0
8487 59
8488 84
8489 16
8490 7
8491 31
8492 48
8493 26
8494 1
8495 22
8496 23
8497 44
8498 41
8499 15
8500 24
8501 61
8502 23
8503 26
8504 39
8505 39
8506 32
8507 26
8508 80
8509 23
8510 44
8511 42
8512 15
8513 47
8514 42
8515 42
8516 32
8517 15
8518 83
8519 49
8520 32
8521 17
8522 42
8523 85
8524 48
8525 44
8526 26
8527 32
8528 23
8529 58
8530 61
8531 17
8532 58
8533 17
8534 48
8535 32
8536 17
8537 58
8538 44
8539 36
8540 17
8541 6
8542 24
8543 16
8544 9
8545 4
8546 54
8547 54
8548 49
8549 74
8550 17
8551 37
8552 24
8553 24
8554 4
8555 16
8556 8
8557 24
8558 48
8559 17
8560 32
8561 37
8562 70
8563 14
8564 16
8565 3
8566 7
8567 73
8568 4
8569 54
8570 70
8571 12
8572 24
8573 19
8574 17
8575 4
8576 48
8577 48
8578 48
8579 22
8580 30
8581 7
8582 3
8583 11
8584 3
8585 73
8586 86
8587 16
8588 4
8589 68
8590 17
8591 32
8592 16
8593 23
8594 64
8595 67
8596 48
8597 51
8598 3
8599 48
8600 62
8601 23
8602 27
8603 19
8604 11
8605 19
8606 48
8607 3
8608 51
8609 6
8610 48
8611 28
8612 5
8613 48
8614 3
8615 52
8616 3
8617 24
8618 26
8619 15
8620 17
8621 3
8622 15
8623 48
8624 32
8625 30
8626 16
8627 22
8628 3
8629 3
8630 58
8631 15
8632 17
8633 23
8634 22
8635 51
8636 48
8637 22
8638 3
8639 3
8640 52
8641 23
8642 5
8643 57
8644 3
8645 48
8646 17
8647 48
8648 48
8649 74
8650 7
8651 22
8652 12
8653 11
8654 19
8655 17
8656 22
8657 22
8658 48
8659 26
8660 6
8661 57
8662 44
8663 22
8664 54
8665 24
8666 22
8667 3
8668 3
8669 44
8670 19
8671 48
8672 16
8673 26
8674 16
8675 1
8676 1
8677 48
8678 5
8679 48
8680 45
8681 3
8682 3
8683 56
8684 22
8685 48
8686 17
8687 11
8688 22
8689 22
8690 1
8691 50
8692 31
8693 30
8694 8
8695 42
8696 22
8697 35
8698 50
8699 58
8700 26
8701 54
8702 5
8703 48
8704 30
8705 22
8706 22
8707 1
8708 60
8709 30
8710 48
8711 16
8712 30
8713 3
8714 22
8715 1
8716 24
8717 21
8718 72
8719 60
8720 72
8721 28
8722 52
8723 24
8724 48
8725 48
8726 21
8727 21
8728 47
8729 3
8730 6
8731 48
8732 32
8733 55
8734 11
8735 26
8736 21
8737 19
8738 11
8739 25
8740 42
8741 58
8742 1
8743 15
8744 30
8745 22
8746 21
8747 48
8748 21
8749 48
8750 11
8751 48
8752 55
8753 22
8754 22
8755 22
8756 22
8757 1
8758 3
8759 5
8760 1
8761 87
8762 1
8763 21
8764 22
8765 3
8766 5
8767 30
8768 68
8769 58
8770 22
8771 36
8772 15
8773 22
8774 30
8775 83
8776 31
8777 22
8778 30
8779 21
8780 21
8781 22
8782 48
8783 19
8784 38
8785 21
8786 21
8787 4
8788 17
8789 19
8790 53
8791 48
8792 21
8793 21
8794 22
8795 16
8796 21
8797 30
8798 50
8799 21
8800 1
8801 3
8802 21
8803 13
8804 36
8805 32
8806 26
8807 16
8808 3
8809 12
8810 21
8811 17
8812 17
8813 3
8814 76
8815 41
8816 17
8817 32
8818 26
8819 85
8820 44
8821 3
8822 1
8823 32
8824 24
8825 21
8826 48
8827 56
8828 22
8829 38
8830 54
8831 28
8832 48
8833 52
8834 21
8835 60
8836 28
8837 24
8838 23
8839 39
8840 11
8841 22
8842 17
8843 1
8844 22
8845 21
8846 1
8847 48
8848 50
8849 26
8850 24
8851 3
8852 11
8853 58
8854 3
8855 22
8856 22
8857 19
8858 36
8859 23
8860 17
8861 21
8862 62
8863 87
8864 22
8865 17
8866 32
8867 1
8868 6
8869 3
8870 50
8871 30
8872 19
8873 57
8874 32
8875 3
8876 3
8877 22
8878 3
8879 3
8880 48
8881 36
8882 37
8883 48
8884 22
8885 21
8886 3
8887 17
8888 21
8889 55
8890 28
8891 48
8892 86
8893 42
8894 3
8895 3
8896 48
8897 21
8898 0
8899 3
8900 1
8901 0
8902 21
8903 61
8904 58
8905 22
8906 52
8907 0
8908 11
8909 50
8910 61
8911 42
8912 18
8913 38
8914 22
8915 1
8916 36
8917 54
8918 58
8919 21
8920 21
8921 22
8922 64
8923 22
8924 50
8925 3
8926 3
8927 1
8928 22
8929 11
8930 3
8931 22
8932 3
8933 15
8934 48
8935 61
8936 3
8937 48
8938 3
8939 24
8940 30
8941 4
8942 21
8943 48
8944 65
8945 18
8946 30
8947 7
8948 17
8949 7
8950 22
8951 15
8952 7
8953 15
8954 7
8955 21
8956 51
8957 54
8958 21
8959 1
8960 24
8961 6
8962 4
8963 32
8964 48
8965 17
8966 4
8967 16
8968 7
8969 17
8970 22
8971 81
8972 55
8973 32
8974 24
8975 24
8976 40
8977 38
8978 4
8979 79
8980 21
8981 11
8982 17
8983 22
8984 22
8985 21
8986 22
8987 7
8988 3
8989 22
8990 7
8991 48
8992 7
8993 30
8994 22
8995 22
8996 22
8997 21
8998 15
8999 30
9000 48
9001 3
9002 7
9003 55
9004 3
9005 49
9006 84
9007 4
9008 27
9009 7
9010 21
9011 85
9012 3
9013 22
9014 37
9015 16
9016 7
9017 1
9018 7
9019 22
9020 15
9021 11
9022 68
9023 17
9024 22
9025 17
9026 48
9027 24
9028 44
9029 1
9030 7
9031 15
9032 17
9033 11
9034 48
9035 22
9036 69
9037 24
9038 61
9039 3
9040 58
9041 21
9042 56
9043 48
9044 1
9045 21
9046 48
9047 3
9048 35
9049 30
9050 21
9051 21
9052 7
9053 36
9054 11
9055 17
9056 4
9057 7
9058 3
9059 48
9060 30
9061 21
9062 7
9063 22
9064 48
9065 40
9066 48
9067 5
9068 7
9069 23
9070 22
9071 7
9072 65
9073 21
9074 22
9075 62
9076 30
9077 30
9078 30
9079 48
9080 32
9081 15
9082 17
9083 3
9084 21
9085 54
9086 48
9087 22
9088 41
9089 23
9090 3
9091 58
9092 22
9093 1
9094 3
9095 22
9096 50
9097 11
9098 7
9099 48
9100 64
9101 1
9102 48
9103 3
9104 3
9105 11
9106 22
9107 11
9108 24
9109 21
9110 22
9111 7
9112 48
9113 17
9114 22
9115 7
9116 30
9117 21
9118 77
9119 50
9120 22
9121 7
9122 22
9123 15
9124 7
9125 7
9126 37
9127 48
9128 15
9129 15
9130 32
9131 3
9132 7
9133 30
9134 22
9135 54
9136 22
9137 48
9138 21
9139 9
9140 22
9141 32
9142 48
9143 17
9144 21
9145 22
9146 56
9147 48
9148 48
9149 21
9150 3
9151 23
9152 19
9153 1
9154 7
9155 37
9156 22
9157 26
9158 30
9159 44
9160 48
9161 30
9162 5
9163 23
9164 3
9165 22
9166 21
9167 30
9168 6
9169 22
9170 1
9171 66
9172 87
9173 22
9174 15
9175 48
9176 21
9177 7
9178 30
9179 48
9180 17
9181 3
9182 25
9183 7
9184 81
9185 21
9186 15
9187 3
9188 22
9189 7
9190 15
9191 23
9192 22
9193 22
9194 3
9195 0
9196 6
9197 32
9198 23
9199 7
9200 22
9201 3
9202 48
9203 22
9204 3
9205 7
9206 1
9207 3
9208 22
9209 1
9210 28
9211 16
9212 21
9213 1
9214 86
9215 21
9216 33
9217 61
9218 3
9219 7
9220 21
9221 17
9222 7
9223 48
9224 3
9225 32
9226 58
9227 23
9228 1
9229 68
9230 4
9231 41
9232 0
9233 13
9234 3
9235 30
9236 32
9237 7
9238 3
9239 4
9240 15
9241 22
9242 0
9243 22
9244 58
9245 48
9246 39
9247 22
9248 58
9249 3
9250 22
9251 39
9252 32
9253 21
9254 7
9255 7
9256 15
9257 58
9258 21
9259 16
9260 22
9261 2
9262 3
9263 48
9264 7
9265 21
9266 15
9267 17
9268 6
9269 7
9270 50
9271 3
9272 3
9273 21
9274 23
9275 23
9276 7
9277 58
9278 54
9279 3
9280 2
9281 6
9282 21
9283 58
9284 26
9285 1
9286 48
9287 48
9288 48
9289 63
9290 22
9291 26
9292 22
9293 22
9294 26
9295 48
9296 15
9297 3
9298 21
9299 0
9300 7
9301 37
9302 26
9303 30
9304 3
9305 26
9306 7
9307 26
9308 3
9309 56
9310 22
9311 26
9312 3
9313 17
9314 44
9315 41
9316 26
9317 23
9318 62
9319 21
9320 26
9321 17
9322 58
9323 54
9324 28
9325 7
9326 37
9327 22
9328 3
9329 17
9330 26
9331 3
9332 22
9333 22
9334 24
9335 3
9336 80
9337 26
9338 26
9339 3
9340 17
9341 65
9342 7
9343 7
9344 27
9345 7
9346 50
9347 52
9348 48
9349 21
9350 22
9351 7
9352 48
9353 48
9354 7
9355 15
9356 6
9357 23
9358 22
9359 48
9360 7
9361 58
9362 21
9363 5
9364 3
9365 48
9366 36
9367 37
9368 23
9369 7
9370 1
9371 7
9372 84
9373 1
9374 3
9375 7
9376 3
9377 23
9378 7
9379 7
9380 22
9381 9
9382 26
9383 57
9384 26
9385 3
9386 22
9387 6
9388 58
9389 28
9390 18
9391 19
9392 21
9393 21
9394 22
9395 29
9396 26
9397 24
9398 48
9399 44
9400 20
9401 38
9402 3
9403 7
9404 27
9405 2
9406 57
9407 6
9408 50
9409 26
9410 22
9411 17
9412 7
9413 22
9414 32
9415 1
9416 22
9417 26
9418 57
9419 3
9420 21
9421 22
9422 22
9423 38
9424 13
9425 54
9426 3
9427 26
9428 5
9429 7
9430 22
9431 26
9432 3
9433 44
9434 22
9435 26
9436 17
9437 15
9438 38
9439 26
9440 7
9441 48
9442 18
9443 26
9444 61
9445 3
9446 7
9447 26
9448 21
9449 4
9450 48
9451 48
9452 48
9453 61
9454 26
9455 21
9456 24
9457 48
9458 50
9459 22
9460 22
9461 21
9462 23
9463 48
9464 26
9465 48
9466 19
9467 57
9468 60
9469 5
9470 26
9471 14
9472 48
9473 22
9474 7
9475 64
9476 22
9477 48
9478 23
9479 26
9480 48
9481 21
9482 48
9483 23
9484 7
9485 7
9486 26
9487 21
9488 48
9489 3
9490 48
9491 42
9492 22
9493 22
9494 5
9495 48
9496 7
9497 7
9498 7
9499 48
9500 44
9501 8
9502 3
9503 12
9504 3
9505 33
9506 42
9507 45
9508 7
9509 22
9510 62
9511 1
9512 3
9513 7
9514 22
9515 7
9516 22
9517 26
9518 86
9519 17
9520 48
9521 5
9522 18
9523 24
9524 58
9525 48
9526 24
9527 26
9528 21
9529 7
9530 26
9531 48
9532 22
9533 21
9534 21
9535 22
9536 26
9537 21
9538 24
9539 37
9540 26
9541 24
9542 24
9543 21
9544 44
9545 5
9546 38
9547 66
9548 16
9549 22
9550 26
9551 3
9552 66
9553 44
9554 3
9555 45
9556 6
9557 21
9558 7
9559 26
9560 11
9561 7
9562 48
9563 24
9564 44
9565 48
9566 28
9567 42
9568 21
9569 48
9570 11
9571 24
9572 54
9573 21
9574 23
9575 24
9576 15
9577 22
9578 3
9579 22
9580 22
9581 22
9582 54
9583 18
9584 7
9585 62
9586 21
9587 3
9588 7
9589 22
9590 23
9591 22
9592 7
9593 26
9594 57
9595 3
9596 21
9597 45
9598 23
9599 26
9600 26
9601 65
9602 17
9603 3
9604 21
9605 24
9606 19
9607 22
9608 24
9609 17
9610 10
9611 21
9612 21
9613 22
9614 24
9615 3
9616 24
9617 48
9618 6
9619 26
9620 61
9621 22
9622 21
9623 28
9624 6
9625 19
9626 26
9627 24
9628 21
9629 58
9630 36
9631 24
9632 58
9633 49
9634 21
9635 3
9636 21
9637 26
9638 1
9639 26
9640 24
9641 24
9642 7
9643 22
9644 21
9645 17
9646 16
9647 7
9648 16
9649 5
9650 58
9651 21
9652 48
9653 33
9654 58
9655 44
9656 58
9657 21
9658 48
9659 48
9660 21
9661 58
9662 16
9663 7
9664 3
9665 3
9666 26
9667 26
9668 26
9669 34
9670 3
9671 24
9672 43
9673 58
9674 58
9675 7
9676 24
9677 24
9678 26
9679 22
9680 0
9681 24
9682 13
9683 58
9684 3
9685 64
9686 64
9687 38
9688 58
9689 22
9690 24
9691 39
9692 7
9693 7
9694 21
9695 22
9696 7
9697 3
9698 35
9699 21
9700 48
9701 12
9702 26
9703 19
9704 3
9705 26
9706 7
9707 22
9708 35
9709 21
9710 16
9711 30
9712 4
9713 11
9714 30
9715 26
9716 26
9717 21
9718 16
9719 24
9720 2
9721 21
9722 22
9723 58
9724 58
9725 48
9726 22
9727 58
9728 16
9729 7
9730 19
9731 24
9732 3
9733 58
9734 52
9735 22
9736 58
9737 48
9738 28
9739 58
9740 21
9741 1
9742 58
9743 22
9744 24
9745 24
9746 1
9747 26
9748 21
9749 22
9750 64
9751 22
9752 3
9753 3
9754 24
9755 48
9756 24
9757 26
9758 26
9759 32
9760 32
9761 32
9762 31
9763 48
9764 29
9765 26
9766 7
9767 58
9768 48
9769 24
9770 48
9771 3
9772 21
9773 21
9774 26
9775 3
9776 3
9777 3
9778 26
9779 7
9780 26
9781 48
9782 24
9783 26
9784 48
9785 11
9786 7
9787 58
9788 7
9789 7
9790 74
9791 26
9792 24
9793 7
9794 48
9795 22
9796 21
9797 24
9798 56
9799 58
9800 45
9801 11
9802 21
9803 22
9804 21
9805 3
9806 6
9807 50
9808 38
9809 32
9810 16
9811 48
9812 26
9813 11
9814 24
9815 24
9816 12
9817 3
9818 48
9819 24
9820 21
9821 26
9822 32
9823 24
9824 24
9825 58
9826 32
9827 50
9828 58
9829 3
9830 48
9831 48
9832 43
9833 26
9834 7
9835 24
9836 3
9837 22
9838 3
9839 24
9840 58
9841 32
9842 32
9843 3
9844 21
9845 7
9846 21
9847 58
9848 48
9849 21
9850 48
9851 22
9852 7
9853 87
9854 3
9855 26
9856 32
9857 37
9858 3
9859 22
9860 0
9861 3
9862 21
9863 22
9864 26
9865 58
9866 1
9867 22
9868 48
9869 48
9870 26
9871 24
9872 5
9873 3
9874 22
9875 26
9876 28
9877 6
9878 21
9879 32
9880 19
9881 33
9882 22
9883 48
9884 11
9885 3
9886 48
9887 48
9888 68
9889 32
9890 48
9891 22
9892 26
9893 21
9894 58
9895 48
9896 48
9897 24
9898 21
9899 32
9900 24
9901 48
9902 24
9903 84
9904 22
9905 32
9906 7
9907 7
9908 56
9909 58
9910 58
9911 19
9912 3
9913 22
9914 7
9915 52
9916 24
9917 26
9918 1
9919 15
9920 23
9921 22
9922 50
9923 22
9924 3
9925 40
9926 48
9927 21
9928 26
9929 58
9930 0
9931 23
9932 26
9933 7
9934 32
9935 11
9936 7
9937 7
9938 32
9939 44
9940 32
9941 15
9942 22
9943 26
9944 22
9945 33
9946 7
9947 32
9948 3
9949 7
9950 15
9951 7
9952 24
9953 48
9954 4
9955 33
9956 30
9957 26
9958 58
9959 3
9960 58
9961 24
9962 32
9963 58
9964 26
9965 30
9966 17
9967 24
9968 15
9969 7
9970 3
9971 22
9972 22
9973 24
9974 17
9975 86
9976 26
9977 4
9978 17
9979 22
9980 50
9981 62
9982 48
9983 48
9984 30
9985 21
9986 17
9987 3
9988 7
9989 7
9990 3
9991 22
9992 48
9993 15
9994 24
9995 26
9996 3
9997 24
9998 17
9999 7
