0 0
1 1
2 2
3 3
4 4
5 5
6 6
7 7
8 8
9 9
10 10
11 11
12 1
13 12
14 13
15 14
16 15
17 16
18 17
19 18
20 19
21 20
22 21
23 22
24 12
25 23
26 24
27 25
28 26
29 27
30 28
31 29
32 12
33 25
34 30
35 12
36 26
37 31
38 12
39 12
40 32
41 33
42 12
43 31
44 34
45 35
46 32
47 14
48 1
49 36
50 23
51 37
52 20
53 35
54 1
55 38
56 11
57 39
58 40
59 1
60 41
61 42
62 43
63 31
64 44
65 1
66 45
67 46
68 47
69 24
70 30
71 48
72 49
73 50
74 51
75 46
76 52
77 26
78 53
79 41
80 54
81 1
82 55
83 56
84 51
85 57
86 23
87 17
88 58
89 51
90 20
91 1
92 59
93 60
94 44
95 23
96 61
97 19
98 62
99 63
100 25
101 1
102 64
103 65
104 41
105 66
106 9
107 67
108 20
109 23
110 51
111 68
112 41
113 23
114 69
115 70
116 71
117 72
118 73
119 1
120 51
121 26
122 74
123 29
124 12
125 75
126 50
127 76
128 77
129 78
130 79
131 30
132 27
133 80
134 80
135 12
136 20
137 6
138 81
139 82
140 83
141 84
142 16
143 1
144 85
145 86
146 53
147 1
148 61
149 50
150 87
151 88
152 24
153 1
154 12
155 51
156 89
157 50
158 90
159 72
160 91
161 53
162 82
163 14
164 92
165 89
166 80
167 51
168 93
169 29
170 33
171 0
172 12
173 86
174 94
175 19
176 63
177 51
178 21
179 95
180 96
181 93
182 1
183 75
184 1
185 71
186 21
187 12
188 31
189 1
190 12
191 97
192 1
193 98
194 82
195 99
196 7
197 26
198 94
199 51
200 72
201 50
202 26
203 100
204 51
205 12
206 10
207 21
208 0
209 101
210 25
211 99
212 102
213 103
214 63
215 20
216 104
217 11
218 28
219 105
220 106
221 0
222 31
223 50
224 107
225 6
226 108
227 62
228 37
229 100
230 44
231 109
232 66
233 110
234 95
235 47
236 71
237 111
238 1
239 112
240 12
241 58
242 95
243 30
244 1
245 113
246 114
247 31
248 89
249 12
250 73
251 89
252 1
253 1
254 1
255 115
256 116
257 114
258 25
259 12
260 116
261 0
262 117
263 1
264 18
265 45
266 75
267 10
268 118
269 9
270 91
271 24
272 119
273 120
274 41
275 121
276 122
277 1
278 71
279 123
280 124
281 114
282 125
283 92
284 126
285 31
286 30
287 25
288 127
289 29
290 9
291 66
292 62
293 128
294 11
295 129
296 66
297 51
298 66
299 130
300 12
301 105
302 1
303 131
304 45
305 29
306 24
307 132
308 6
309 11
310 133
311 90
312 12
313 12
314 71
315 63
316 122
317 12
318 64
319 134
320 33
321 135
322 130
323 136
324 12
325 1
326 131
327 137
328 31
329 56
330 0
331 12
332 138
333 1
334 139
335 12
336 62
337 41
338 44
339 1
340 47
341 22
342 80
343 53
344 122
345 135
346 140
347 141
348 142
349 143
350 43
351 68
352 109
353 2
354 1
355 7
356 144
357 79
358 76
359 27
360 118
361 17
362 89
363 20
364 145
365 43
366 1
367 146
368 81
369 66
370 147
371 24
372 69
373 0
374 130
375 53
376 80
377 148
378 109
379 149
380 150
381 7
382 29
383 1
384 2
385 121
386 122
387 26
388 12
389 66
390 134
391 65
392 121
393 13
394 6
395 25
396 134
397 151
398 99
399 152
400 21
401 86
402 153
403 23
404 1
405 9
406 12
407 51
408 154
409 53
410 24
411 8
412 3
413 155
414 26
415 13
416 50
417 12
418 12
419 156
420 41
421 4
422 49
423 9
424 1
425 56
426 8
427 70
428 157
429 158
430 86
431 154
432 61
433 159
434 98
435 160
436 138
437 6
438 26
439 6
440 110
441 93
442 15
443 93
444 123
445 89
446 103
447 39
448 161
449 0
450 11
451 1
452 162
453 0
454 132
455 52
456 23
457 51
458 123
459 106
460 29
461 27
462 108
463 12
464 28
465 30
466 1
467 87
468 163
469 0
470 102
471 12
472 1
473 12
474 107
475 53
476 0
477 159
478 26
479 89
480 71
481 50
482 164
483 6
484 9
485 132
486 25
487 89
488 46
489 140
490 42
491 48
492 51
493 31
494 81
495 14
496 113
497 165
498 1
499 15
500 28
501 62
502 122
503 6
504 137
505 9
506 75
507 166
508 68
509 80
510 15
511 62
512 12
513 122
514 79
515 117
516 167
517 53
518 122
519 86
520 109
521 83
522 103
523 168
524 169
525 63
526 114
527 68
528 130
529 9
530 88
531 170
532 102
533 68
534 1
535 89
536 31
537 20
538 1
539 33
540 153
541 12
542 75
543 110
544 9
545 44
546 166
547 92
548 51
549 19
550 146
551 34
552 171
553 18
554 103
555 53
556 31
557 129
558 6
559 20
560 43
561 172
562 12
563 1
564 25
565 134
566 26
567 72
568 18
569 131
570 89
571 73
572 23
573 111
574 12
575 12
576 23
577 44
578 12
579 23
580 97
581 9
582 1
583 20
584 64
585 6
586 20
587 12
588 41
589 95
590 9
591 56
592 26
593 129
594 83
595 1
596 26
597 173
598 121
599 15
600 29
601 86
602 31
603 0
604 119
605 138
606 31
607 159
608 6
609 71
610 71
611 19
612 11
613 26
614 69
615 78
616 85
617 41
618 9
619 174
620 56
621 175
622 50
623 62
624 130
625 79
626 68
627 155
628 174
629 23
630 173
631 111
632 176
633 125
634 71
635 12
636 169
637 1
638 11
639 18
640 177
641 155
642 50
643 12
644 1
645 7
646 40
647 129
648 29
649 79
650 154
651 12
652 0
653 51
654 159
655 1
656 43
657 119
658 44
659 123
660 51
661 116
662 20
663 178
664 166
665 138
666 1
667 166
668 71
669 68
670 44
671 26
672 109
673 83
674 1
675 33
676 71
677 40
678 62
679 3
680 89
681 167
682 99
683 18
684 84
685 79
686 114
687 177
688 23
689 66
690 130
691 47
692 140
693 3
694 105
695 179
696 19
697 71
698 86
699 129
700 43
701 1
702 51
703 26
704 51
705 1
706 114
707 29
708 23
709 1
710 10
711 172
712 44
713 89
714 12
715 50
716 12
717 180
718 20
719 181
720 2
721 20
722 13
723 29
724 181
725 74
726 173
727 12
728 174
729 51
730 23
731 33
732 104
733 136
734 11
735 12
736 41
737 51
738 65
739 104
740 111
741 162
742 103
743 20
744 1
745 182
746 49
747 129
748 68
749 136
750 92
751 74
752 104
753 1
754 21
755 24
756 183
757 103
758 114
759 120
760 68
761 138
762 88
763 1
764 41
765 12
766 20
767 63
768 146
769 43
770 68
771 0
772 6
773 41
774 130
775 184
776 25
777 148
778 71
779 6
780 86
781 167
782 185
783 40
784 12
785 186
786 63
787 31
788 49
789 118
790 187
791 4
792 21
793 0
794 109
795 33
796 89
797 12
798 12
799 53
800 41
801 131
802 11
803 101
804 188
805 80
806 68
807 86
808 63
809 129
810 14
811 183
812 12
813 23
814 6
815 1
816 26
817 62
818 167
819 79
820 30
821 64
822 146
823 109
824 25
825 128
826 189
827 76
828 156
829 111
830 1
831 44
832 46
833 93
834 68
835 63
836 38
837 125
838 44
839 1
840 114
841 146
842 62
843 23
844 75
845 190
846 56
847 173
848 125
849 12
850 166
851 71
852 91
853 1
854 155
855 163
856 30
857 1
858 122
859 166
860 44
861 57
862 23
863 34
864 155
865 103
866 106
867 14
868 191
869 68
870 173
871 53
872 31
873 25
874 81
875 1
876 20
877 112
878 103
879 51
880 23
881 25
882 50
883 134
884 71
885 90
886 19
887 1
888 94
889 51
890 152
891 184
892 20
893 50
894 71
895 138
896 133
897 71
898 159
899 58
900 173
901 0
902 50
903 192
904 12
905 121
906 173
907 7
908 50
909 6
910 21
911 127
912 139
913 193
914 12
915 12
916 25
917 82
918 194
919 195
920 160
921 12
922 0
923 6
924 117
925 41
926 26
927 12
928 27
929 138
930 30
931 139
932 1
933 68
934 6
935 71
936 79
937 31
938 146
939 1
940 189
941 1
942 1
943 184
944 6
945 1
946 87
947 92
948 13
949 40
950 11
951 103
952 149
953 85
954 196
955 1
956 169
957 104
958 44
959 28
960 44
961 56
962 62
963 51
964 1
965 13
966 104
967 117
968 37
969 75
970 184
971 66
972 44
973 79
974 98
975 1
976 1
977 1
978 160
979 174
980 30
981 20
982 12
983 145
984 84
985 197
986 12
987 25
988 132
989 26
990 144
991 129
992 27
993 66
994 12
995 92
996 12
997 189
998 12
999 68
1000 144
1001 112
1002 24
1003 84
1004 1
1005 29
1006 152
1007 71
1008 11
1009 12
1010 12
1011 24
1012 9
1013 62
1014 14
1015 20
1016 49
1017 56
1018 19
1019 1
1020 100
1021 1
1022 13
1023 117
1024 62
1025 189
1026 51
1027 145
1028 198
1029 12
1030 82
1031 114
1032 62
1033 83
1034 41
1035 50
1036 128
1037 1
1038 11
1039 25
1040 173
1041 120
1042 25
1043 171
1044 68
1045 12
1046 5
1047 56
1048 30
1049 198
1050 59
1051 29
1052 173
1053 85
1054 113
1055 79
1056 160
1057 25
1058 128
1059 12
1060 24
1061 25
1062 90
1063 50
1064 1
1065 134
1066 164
1067 92
1068 80
1069 146
1070 61
1071 97
1072 68
1073 109
1074 195
1075 144
1076 23
1077 62
1078 62
1079 169
1080 50
1081 1
1082 20
1083 108
1084 104
1085 25
1086 40
1087 1
1088 129
1089 181
1090 128
1091 2
1092 112
1093 51
1094 79
1095 21
1096 14
1097 16
1098 86
1099 12
1100 53
1101 104
1102 144
1103 135
1104 22
1105 144
1106 146
1107 11
1108 198
1109 51
1110 111
1111 12
1112 140
1113 13
1114 91
1115 138
1116 112
1117 82
1118 44
1119 193
1120 53
1121 72
1122 107
1123 177
1124 146
1125 129
1126 129
1127 27
1128 1
1129 46
1130 0
1131 23
1132 119
1133 47
1134 186
1135 68
1136 199
1137 198
1138 27
1139 19
1140 41
1141 20
1142 107
1143 44
1144 12
1145 92
1146 42
1147 71
1148 119
1149 200
1150 9
1151 139
1152 137
1153 41
1154 1
1155 183
1156 133
1157 100
1158 11
1159 24
1160 12
1161 27
1162 137
1163 131
1164 28
1165 1
1166 98
1167 20
1168 39
1169 113
1170 39
1171 75
1172 157
1173 130
1174 4
1175 109
1176 95
1177 30
1178 187
1179 20
1180 12
1181 82
1182 79
1183 167
1184 103
1185 134
1186 103
1187 29
1188 161
1189 26
1190 23
1191 110
1192 71
1193 44
1194 42
1195 181
1196 30
1197 1
1198 192
1199 1
1200 99
1201 173
1202 19
1203 201
1204 1
1205 30
1206 1
1207 46
1208 202
1209 154
1210 177
1211 4
1212 50
1213 123
1214 195
1215 114
1216 31
1217 0
1218 159
1219 140
1220 89
1221 81
1222 174
1223 12
1224 62
1225 173
1226 29
1227 1
1228 50
1229 30
1230 15
1231 103
1232 1
1233 75
1234 154
1235 154
1236 173
1237 109
1238 1
1239 169
1240 1
1241 1
1242 1
1243 51
1244 51
1245 1
1246 50
1247 38
1248 135
1249 130
1250 39
1251 45
1252 168
1253 48
1254 12
1255 145
1256 6
1257 133
1258 12
1259 78
1260 35
1261 203
1262 12
1263 41
1264 145
1265 12
1266 71
1267 89
1268 129
1269 74
1270 198
1271 160
1272 62
1273 23
1274 101
1275 13
1276 12
1277 113
1278 144
1279 111
1280 68
1281 71
1282 41
1283 27
1284 102
1285 53
1286 100
1287 12
1288 173
1289 1
1290 71
1291 11
1292 177
1293 92
1294 71
1295 14
1296 83
1297 2
1298 3
1299 200
1300 199
1301 41
1302 137
1303 204
1304 105
1305 20
1306 145
1307 1
1308 50
1309 112
1310 86
1311 71
1312 102
1313 114
1314 24
1315 42
1316 199
1317 159
1318 13
1319 44
1320 152
1321 23
1322 51
1323 146
1324 1
1325 1
1326 44
1327 1
1328 12
1329 106
1330 20
1331 1
1332 145
1333 79
1334 79
1335 12
1336 131
1337 23
1338 27
1339 18
1340 44
1341 1
1342 98
1343 169
1344 205
1345 190
1346 26
1347 43
1348 103
1349 1
1350 71
1351 145
1352 155
1353 190
1354 30
1355 25
1356 188
1357 9
1358 142
1359 25
1360 40
1361 1
1362 1
1363 191
1364 165
1365 90
1366 84
1367 119
1368 199
1369 89
1370 23
1371 20
1372 40
1373 12
1374 79
1375 56
1376 23
1377 115
1378 1
1379 61
1380 60
1381 0
1382 114
1383 12
1384 13
1385 1
1386 160
1387 89
1388 23
1389 71
1390 140
1391 12
1392 105
1393 86
1394 68
1395 173
1396 22
1397 84
1398 173
1399 6
1400 26
1401 99
1402 16
1403 55
1404 150
1405 1
1406 66
1407 21
1408 46
1409 1
1410 173
1411 75
1412 26
1413 125
1414 68
1415 62
1416 75
1417 1
1418 85
1419 114
1420 13
1421 92
1422 30
1423 47
1424 188
1425 13
1426 142
1427 55
1428 198
1429 88
1430 28
1431 92
1432 27
1433 62
1434 23
1435 159
1436 45
1437 24
1438 164
1439 1
1440 9
1441 156
1442 169
1443 12
1444 20
1445 140
1446 106
1447 89
1448 1
1449 206
1450 41
1451 92
1452 1
1453 195
1454 50
1455 88
1456 12
1457 50
1458 1
1459 1
1460 13
1461 33
1462 159
1463 176
1464 152
1465 81
1466 138
1467 26
1468 192
1469 169
1470 195
1471 92
1472 173
1473 23
1474 77
1475 41
1476 180
1477 140
1478 158
1479 31
1480 134
1481 196
1482 114
1483 160
1484 0
1485 12
1486 13
1487 20
1488 50
1489 1
1490 181
1491 79
1492 162
1493 195
1494 14
1495 25
1496 71
1497 134
1498 197
1499 41
1500 66
1501 191
1502 202
1503 102
1504 135
1505 142
1506 71
1507 140
1508 125
1509 207
1510 173
1511 152
1512 188
1513 71
1514 6
1515 8
1516 46
1517 0
1518 81
1519 168
1520 130
1521 73
1522 176
1523 12
1524 173
1525 144
1526 92
1527 66
1528 72
1529 19
1530 131
1531 106
1532 73
1533 73
1534 98
1535 173
1536 71
1537 58
1538 6
1539 103
1540 114
1541 50
1542 187
1543 186
1544 30
1545 108
1546 24
1547 6
1548 104
1549 41
1550 6
1551 31
1552 103
1553 27
1554 4
1555 113
1556 68
1557 62
1558 81
1559 41
1560 66
1561 25
1562 1
1563 20
1564 11
1565 50
1566 71
1567 12
1568 50
1569 181
1570 30
1571 68
1572 62
1573 68
1574 173
1575 5
1576 1
1577 9
1578 44
1579 13
1580 38
1581 26
1582 168
1583 92
1584 183
1585 4
1586 29
1587 71
1588 50
1589 49
1590 25
1591 162
1592 134
1593 1
1594 30
1595 197
1596 114
1597 57
1598 142
1599 4
1600 52
1601 12
1602 34
1603 12
1604 115
1605 89
1606 12
1607 108
1608 208
1609 203
1610 140
1611 173
1612 1
1613 112
1614 42
1615 19
1616 50
1617 13
1618 49
1619 1
1620 62
1621 75
1622 125
1623 50
1624 12
1625 146
1626 9
1627 49
1628 209
1629 164
1630 75
1631 20
1632 53
1633 20
1634 36
1635 75
1636 27
1637 6
1638 210
1639 86
1640 208
1641 1
1642 81
1643 89
1644 50
1645 13
1646 32
1647 114
1648 45
1649 119
1650 119
1651 194
1652 12
1653 1
1654 30
1655 41
1656 193
1657 149
1658 89
1659 125
1660 116
1661 91
1662 43
1663 0
1664 44
1665 12
1666 50
1667 198
1668 11
1669 50
1670 12
1671 12
1672 6
1673 68
1674 65
1675 189
1676 114
1677 6
1678 30
1679 71
1680 12
1681 8
1682 41
1683 104
1684 25
1685 29
1686 12
1687 1
1688 78
1689 28
1690 31
1691 145
1692 17
1693 202
1694 68
1695 119
1696 41
1697 211
1698 9
1699 13
1700 90
1701 26
1702 146
1703 212
1704 31
1705 107
1706 92
1707 11
1708 135
1709 208
1710 31
1711 9
1712 9
1713 12
1714 1
1715 71
1716 52
1717 49
1718 41
1719 139
1720 159
1721 76
1722 156
1723 17
1724 51
1725 25
1726 211
1727 57
1728 68
1729 118
1730 41
1731 173
1732 188
1733 111
1734 125
1735 26
1736 29
1737 12
1738 122
1739 52
1740 63
1741 12
1742 49
1743 128
1744 196
1745 167
1746 211
1747 26
1748 25
1749 46
1750 206
1751 12
1752 1
1753 188
1754 86
1755 25
1756 6
1757 114
1758 130
1759 208
1760 176
1761 51
1762 180
1763 92
1764 137
1765 111
1766 130
1767 108
1768 131
1769 134
1770 213
1771 83
1772 6
1773 109
1774 183
1775 99
1776 137
1777 101
1778 53
1779 12
1780 214
1781 91
1782 154
1783 210
1784 130
1785 181
1786 141
1787 44
1788 50
1789 79
1790 171
1791 206
1792 100
1793 71
1794 88
1795 110
1796 1
1797 120
1798 1
1799 30
1800 171
1801 11
1802 159
1803 114
1804 41
1805 41
1806 173
1807 68
1808 99
1809 1
1810 30
1811 114
1812 211
1813 42
1814 92
1815 25
1816 12
1817 12
1818 11
1819 163
1820 132
1821 110
1822 195
1823 102
1824 142
1825 189
1826 84
1827 112
1828 137
1829 51
1830 68
1831 103
1832 6
1833 44
1834 44
1835 145
1836 92
1837 41
1838 145
1839 180
1840 51
1841 3
1842 86
1843 51
1844 169
1845 122
1846 114
1847 100
1848 26
1849 92
1850 81
1851 63
1852 43
1853 47
1854 183
1855 18
1856 39
1857 56
1858 79
1859 26
1860 21
1861 12
1862 51
1863 25
1864 202
1865 6
1866 47
1867 157
1868 79
1869 176
1870 7
1871 76
1872 15
1873 50
1874 1
1875 31
1876 208
1877 171
1878 31
1879 151
1880 81
1881 1
1882 131
1883 30
1884 197
1885 47
1886 130
1887 51
1888 12
1889 1
1890 99
1891 122
1892 41
1893 211
1894 50
1895 20
1896 196
1897 27
1898 20
1899 198
1900 1
1901 4
1902 144
1903 71
1904 176
1905 44
1906 12
1907 0
1908 30
1909 7
1910 1
1911 41
1912 24
1913 173
1914 1
1915 79
1916 106
1917 83
1918 139
1919 116
1920 29
1921 71
1922 13
1923 0
1924 40
1925 23
1926 79
1927 62
1928 97
1929 83
1930 31
1931 202
1932 42
1933 7
1934 131
1935 12
1936 165
1937 1
1938 41
1939 136
1940 197
1941 31
1942 131
1943 1
1944 1
1945 92
1946 68
1947 131
1948 75
1949 99
1950 1
1951 25
1952 144
1953 34
1954 41
1955 12
1956 6
1957 50
1958 12
1959 12
1960 59
1961 75
1962 23
1963 41
1964 20
1965 12
1966 41
1967 1
1968 26
1969 24
1970 61
1971 149
1972 83
1973 44
1974 35
1975 50
1976 87
1977 117
1978 6
1979 62
1980 69
1981 64
1982 7
1983 159
1984 173
1985 1
1986 0
1987 109
1988 200
1989 181
1990 51
1991 50
1992 71
1993 53
1994 4
1995 57
1996 205
1997 31
1998 89
1999 6
2000 117
2001 23
2002 47
2003 31
2004 63
2005 41
2006 25
2007 114
2008 71
2009 51
2010 46
2011 13
2012 10
2013 180
2014 12
2015 26
2016 31
2017 21
2018 92
2019 88
2020 102
2021 26
2022 3
2023 12
2024 94
2025 23
2026 75
2027 0
2028 181
2029 112
2030 174
2031 75
2032 125
2033 12
2034 12
2035 27
2036 1
2037 1
2038 27
2039 135
2040 49
2041 174
2042 79
2043 26
2044 98
2045 44
2046 27
2047 61
2048 197
2049 12
2050 26
2051 12
2052 1
2053 1
2054 76
2055 31
2056 1
2057 144
2058 5
2059 67
2060 159
2061 12
2062 132
2063 154
2064 159
2065 205
2066 68
2067 128
2068 141
2069 31
2070 20
2071 71
2072 20
2073 1
2074 98
2075 21
2076 0
2077 21
2078 36
2079 24
2080 79
2081 104
2082 166
2083 30
2084 12
2085 29
2086 56
2087 89
2088 39
2089 1
2090 146
2091 155
2092 51
2093 21
2094 44
2095 167
2096 33
2097 21
2098 10
2099 31
2100 158
2101 12
2102 12
2103 171
2104 50
2105 44
2106 187
2107 29
2108 12
2109 30
2110 162
2111 94
2112 75
2113 154
2114 75
2115 15
2116 2
2117 24
2118 1
2119 24
2120 105
2121 92
2122 25
2123 12
2124 1
2125 35
2126 80
2127 21
2128 20
2129 12
2130 55
2131 176
2132 27
2133 86
2134 68
2135 19
2136 71
2137 73
2138 117
2139 94
2140 114
2141 162
2142 41
2143 12
2144 6
2145 23
2146 89
2147 194
2148 176
2149 131
2150 215
2151 26
2152 12
2153 106
2154 1
2155 53
2156 19
2157 103
2158 62
2159 100
2160 171
2161 117
2162 1
2163 1
2164 20
2165 142
2166 160
2167 198
2168 23
2169 66
2170 94
2171 1
2172 51
2173 1
2174 12
2175 41
2176 186
2177 123
2178 56
2179 9
2180 174
2181 26
2182 51
2183 10
2184 25
2185 59
2186 139
2187 12
2188 13
2189 1
2190 27
2191 24
2192 16
2193 171
2194 123
2195 20
2196 174
2197 1
2198 62
2199 19
2200 89
2201 186
2202 41
2203 130
2204 109
2205 201
2206 84
2207 184
2208 31
2209 45
2210 46
2211 23
2212 72
2213 144
2214 41
2215 207
2216 130
2217 24
2218 12
2219 71
2220 75
2221 12
2222 62
2223 96
2224 138
2225 30
2226 19
2227 133
2228 31
2229 12
2230 144
2231 153
2232 61
2233 133
2234 31
2235 12
2236 87
2237 14
2238 105
2239 21
2240 0
2241 84
2242 164
2243 146
2244 102
2245 12
2246 29
2247 25
2248 86
2249 84
2250 31
2251 3
2252 108
2253 160
2254 30
2255 31
2256 129
2257 29
2258 121
2259 105
2260 181
2261 39
2262 12
2263 1
2264 177
2265 27
2266 142
2267 145
2268 13
2269 1
2270 130
2271 1
2272 29
2273 89
2274 51
2275 92
2276 146
2277 12
2278 114
2279 12
2280 1
2281 1
2282 13
2283 89
2284 41
2285 21
2286 12
2287 134
2288 103
2289 29
2290 177
2291 74
2292 67
2293 163
2294 0
2295 25
2296 51
2297 41
2298 31
2299 26
2300 13
2301 12
2302 6
2303 25
2304 1
2305 53
2306 27
2307 145
2308 44
2309 95
2310 117
2311 145
2312 107
2313 138
2314 98
2315 27
2316 62
2317 12
2318 1
2319 28
2320 18
2321 63
2322 33
2323 177
2324 26
2325 97
2326 24
2327 1
2328 153
2329 152
2330 109
2331 46
2332 26
2333 158
2334 24
2335 23
2336 105
2337 24
2338 174
2339 75
2340 81
2341 81
2342 65
2343 72
2344 188
2345 152
2346 71
2347 27
2348 151
2349 64
2350 68
2351 31
2352 22
2353 145
2354 138
2355 1
2356 29
2357 33
2358 2
2359 104
2360 12
2361 6
2362 12
2363 102
2364 41
2365 81
2366 142
2367 148
2368 1
2369 52
2370 31
2371 1
2372 102
2373 93
2374 115
2375 12
2376 165
2377 151
2378 97
2379 79
2380 25
2381 102
2382 51
2383 99
2384 31
2385 67
2386 1
2387 32
2388 136
2389 50
2390 12
2391 21
2392 31
2393 12
2394 117
2395 113
2396 109
2397 20
2398 133
2399 26
2400 164
2401 1
2402 89
2403 114
2404 1
2405 20
2406 89
2407 99
2408 83
2409 114
2410 174
2411 26
2412 51
2413 163
2414 12
2415 50
2416 129
2417 146
2418 1
2419 12
2420 89
2421 97
2422 138
2423 173
2424 146
2425 23
2426 1
2427 30
2428 24
2429 212
2430 29
2431 6
2432 137
2433 68
2434 104
2435 12
2436 47
2437 23
2438 119
2439 12
2440 138
2441 47
2442 21
2443 6
2444 118
2445 51
2446 63
2447 45
2448 6
2449 71
2450 166
2451 20
2452 202
2453 51
2454 12
2455 140
2456 62
2457 91
2458 25
2459 23
2460 41
2461 14
2462 99
2463 47
2464 20
2465 17
2466 127
2467 31
2468 26
2469 6
2470 26
2471 51
2472 133
2473 135
2474 21
2475 114
2476 79
2477 12
2478 68
2479 94
2480 197
2481 213
2482 1
2483 166
2484 75
2485 50
2486 189
2487 31
2488 194
2489 4
2490 19
2491 0
2492 12
2493 107
2494 25
2495 56
2496 75
2497 21
2498 142
2499 138
2500 140
2501 149
2502 107
2503 20
2504 15
2505 1
2506 4
2507 24
2508 51
2509 185
2510 23
2511 197
2512 169
2513 83
2514 71
2515 41
2516 41
2517 94
2518 166
2519 24
2520 18
2521 42
2522 147
2523 1
2524 12
2525 6
2526 41
2527 131
2528 133
2529 29
2530 102
2531 1
2532 51
2533 161
2534 31
2535 41
2536 140
2537 142
2538 6
2539 0
2540 146
2541 169
2542 71
2543 129
2544 31
2545 142
2546 133
2547 19
2548 57
2549 51
2550 186
2551 50
2552 12
2553 12
2554 146
2555 1
2556 99
2557 12
2558 24
2559 129
2560 89
2561 41
2562 52
2563 33
2564 12
2565 211
2566 109
2567 12
2568 211
2569 12
2570 25
2571 6
2572 29
2573 71
2574 122
2575 21
2576 1
2577 6
2578 14
2579 130
2580 145
2581 131
2582 81
2583 31
2584 1
2585 3
2586 41
2587 146
2588 12
2589 1
2590 62
2591 26
2592 26
2593 12
2594 9
2595 26
2596 140
2597 62
2598 86
2599 114
2600 128
2601 146
2602 103
2603 101
2604 52
2605 144
2606 89
2607 130
2608 122
2609 144
2610 25
2611 162
2612 62
2613 171
2614 44
2615 180
2616 12
2617 2
2618 155
2619 12
2620 142
2621 20
2622 81
2623 1
2624 104
2625 41
2626 12
2627 20
2628 23
2629 53
2630 50
2631 21
2632 20
2633 134
2634 49
2635 203
2636 25
2637 12
2638 1
2639 46
2640 1
2641 41
2642 207
2643 21
2644 12
2645 140
2646 216
2647 129
2648 18
2649 89
2650 12
2651 119
2652 12
2653 71
2654 122
2655 18
2656 104
2657 197
2658 89
2659 3
2660 41
2661 89
2662 41
2663 216
2664 11
2665 9
2666 21
2667 111
2668 1
2669 25
2670 50
2671 161
2672 171
2673 25
2674 1
2675 108
2676 71
2677 40
2678 68
2679 40
2680 91
2681 4
2682 137
2683 104
2684 62
2685 166
2686 26
2687 21
2688 174
2689 31
2690 169
2691 117
2692 51
2693 213
2694 72
2695 93
2696 142
2697 12
2698 50
2699 1
2700 12
2701 77
2702 51
2703 1
2704 12
2705 30
2706 216
2707 26
2708 90
2709 12
2710 1
2711 167
2712 56
2713 144
2714 212
2715 1
2716 53
2717 78
2718 51
2719 107
2720 18
2721 30
2722 101
2723 108
2724 79
2725 92
2726 178
2727 9
2728 62
2729 114
2730 206
2731 12
2732 81
2733 41
2734 50
2735 51
2736 167
2737 115
2738 18
2739 62
2740 40
2741 6
2742 75
2743 164
2744 50
2745 1
2746 176
2747 173
2748 131
2749 51
2750 26
2751 47
2752 71
2753 68
2754 18
2755 12
2756 47
2757 31
2758 1
2759 174
2760 131
2761 197
2762 127
2763 68
2764 12
2765 118
2766 44
2767 12
2768 127
2769 19
2770 12
2771 44
2772 4
2773 146
2774 169
2775 20
2776 117
2777 3
2778 191
2779 144
2780 55
2781 86
2782 137
2783 24
2784 10
2785 107
2786 183
2787 131
2788 41
2789 38
2790 111
2791 29
2792 25
2793 133
2794 50
2795 41
2796 59
2797 86
2798 198
2799 1
2800 1
2801 12
2802 190
2803 205
2804 137
2805 41
2806 1
2807 44
2808 23
2809 145
2810 74
2811 30
2812 142
2813 12
2814 9
2815 51
2816 75
2817 51
2818 23
2819 144
2820 188
2821 111
2822 191
2823 144
2824 78
2825 12
2826 6
2827 171
2828 109
2829 27
2830 6
2831 75
2832 88
2833 26
2834 161
2835 174
2836 86
2837 173
2838 41
2839 11
2840 138
2841 186
2842 146
2843 99
2844 26
2845 31
2846 21
2847 166
2848 21
2849 44
2850 62
2851 12
2852 115
2853 50
2854 92
2855 30
2856 68
2857 92
2858 114
2859 20
2860 0
2861 140
2862 12
2863 188
2864 12
2865 1
2866 12
2867 53
2868 93
2869 29
2870 66
2871 1
2872 162
2873 46
2874 12
2875 1
2876 99
2877 85
2878 51
2879 92
2880 75
2881 177
2882 100
2883 27
2884 145
2885 131
2886 63
2887 6
2888 1
2889 104
2890 1
2891 24
2892 188
2893 19
2894 78
2895 1
2896 25
2897 104
2898 34
2899 0
2900 25
2901 63
2902 113
2903 50
2904 167
2905 13
2906 92
2907 89
2908 12
2909 205
2910 164
2911 27
2912 183
2913 105
2914 173
2915 136
2916 125
2917 197
2918 41
2919 12
2920 146
2921 62
2922 21
2923 89
2924 44
2925 46
2926 3
2927 188
2928 53
2929 73
2930 12
2931 29
2932 41
2933 81
2934 146
2935 33
2936 195
2937 25
2938 11
2939 26
2940 80
2941 30
2942 173
2943 109
2944 44
2945 184
2946 11
2947 51
2948 6
2949 134
2950 125
2951 66
2952 56
2953 12
2954 188
2955 31
2956 94
2957 30
2958 102
2959 14
2960 91
2961 195
2962 18
2963 117
2964 44
2965 163
2966 103
2967 94
2968 6
2969 23
2970 144
2971 25
2972 95
2973 87
2974 21
2975 160
2976 19
2977 102
2978 167
2979 43
2980 12
2981 1
2982 26
2983 104
2984 6
2985 117
2986 26
2987 199
2988 50
2989 114
2990 140
2991 149
2992 26
2993 9
2994 155
2995 113
2996 9
2997 68
2998 44
2999 37
3000 100
3001 137
3002 185
3003 195
3004 1
3005 103
3006 12
3007 49
3008 62
3009 174
3010 20
3011 145
3012 155
3013 87
3014 23
3015 21
3016 94
3017 56
3018 1
3019 25
3020 103
3021 145
3022 4
3023 1
3024 89
3025 44
3026 50
3027 99
3028 40
3029 57
3030 31
3031 26
3032 12
3033 139
3034 12
3035 103
3036 6
3037 68
3038 42
3039 41
3040 89
3041 1
3042 21
3043 20
3044 41
3045 89
3046 0
3047 1
3048 30
3049 92
3050 1
3051 12
3052 1
3053 6
3054 114
3055 52
3056 37
3057 50
3058 1
3059 31
3060 89
3061 50
3062 89
3063 9
3064 50
3065 26
3066 50
3067 27
3068 9
3069 2
3070 112
3071 4
3072 51
3073 166
3074 1
3075 81
3076 47
3077 129
3078 102
3079 75
3080 99
3081 17
3082 102
3083 2
3084 121
3085 61
3086 56
3087 146
3088 39
3089 149
3090 9
3091 53
3092 0
3093 1
3094 50
3095 114
3096 140
3097 202
3098 183
3099 0
3100 30
3101 12
3102 20
3103 22
3104 47
3105 50
3106 66
3107 1
3108 20
3109 111
3110 92
3111 29
3112 75
3113 67
3114 30
3115 0
3116 50
3117 25
3118 86
3119 136
3120 6
3121 24
3122 146
3123 20
3124 91
3125 131
3126 71
3127 27
3128 79
3129 87
3130 103
3131 12
3132 27
3133 89
3134 12
3135 24
3136 41
3137 89
3138 51
3139 133
3140 192
3141 179
3142 0
3143 68
3144 97
3145 79
3146 44
3147 207
3148 62
3149 1
3150 131
3151 75
3152 50
3153 49
3154 17
3155 51
3156 52
3157 51
3158 0
3159 86
3160 74
3161 28
3162 173
3163 33
3164 1
3165 3
3166 31
3167 127
3168 173
3169 138
3170 103
3171 62
3172 158
3173 139
3174 31
3175 53
3176 78
3177 29
3178 194
3179 26
3180 28
3181 138
3182 71
3183 6
3184 41
3185 12
3186 26
3187 92
3188 12
3189 44
3190 53
3191 31
3192 80
3193 103
3194 31
3195 23
3196 1
3197 90
3198 0
3199 91
3200 209
3201 91
3202 50
3203 119
3204 103
3205 102
3206 1
3207 138
3208 12
3209 111
3210 33
3211 12
3212 19
3213 34
3214 50
3215 83
3216 27
3217 14
3218 1
3219 123
3220 26
3221 1
3222 144
3223 195
3224 53
3225 44
3226 146
3227 74
3228 199
3229 1
3230 0
3231 200
3232 89
3233 12
3234 193
3235 153
3236 144
3237 136
3238 1
3239 183
3240 0
3241 1
3242 1
3243 86
3244 41
3245 94
3246 47
3247 56
3248 53
3249 6
3250 183
3251 9
3252 138
3253 21
3254 86
3255 81
3256 173
3257 71
3258 9
3259 158
3260 12
3261 99
3262 44
3263 160
3264 145
3265 20
3266 180
3267 198
3268 20
3269 179
3270 45
3271 128
3272 11
3273 56
3274 72
3275 71
3276 177
3277 47
3278 83
3279 129
3280 123
3281 8
3282 19
3283 25
3284 129
3285 68
3286 89
3287 0
3288 98
3289 24
3290 79
3291 68
3292 122
3293 91
3294 125
3295 0
3296 155
3297 20
3298 109
3299 41
3300 41
3301 154
3302 47
3303 12
3304 31
3305 12
3306 41
3307 1
3308 47
3309 30
3310 99
3311 92
3312 24
3313 29
3314 31
3315 127
3316 184
3317 119
3318 63
3319 46
3320 95
3321 162
3322 144
3323 193
3324 20
3325 21
3326 50
3327 72
3328 102
3329 119
3330 78
3331 12
3332 12
3333 71
3334 179
3335 102
3336 21
3337 46
3338 187
3339 1
3340 205
3341 42
3342 73
3343 74
3344 173
3345 8
3346 130
3347 50
3348 62
3349 28
3350 1
3351 8
3352 122
3353 117
3354 159
3355 138
3356 23
3357 94
3358 73
3359 45
3360 117
3361 12
3362 41
3363 26
3364 207
3365 114
3366 144
3367 20
3368 1
3369 26
3370 45
3371 45
3372 30
3373 23
3374 68
3375 13
3376 179
3377 32
3378 86
3379 71
3380 110
3381 183
3382 186
3383 146
3384 89
3385 74
3386 155
3387 153
3388 173
3389 1
3390 66
3391 30
3392 217
3393 4
3394 172
3395 83
3396 12
3397 12
3398 41
3399 51
3400 114
3401 1
3402 75
3403 187
3404 19
3405 12
3406 50
3407 50
3408 49
3409 1
3410 75
3411 155
3412 205
3413 56
3414 39
3415 91
3416 74
3417 1
3418 44
3419 41
3420 25
3421 44
3422 142
3423 185
3424 74
3425 4
3426 29
3427 191
3428 87
3429 44
3430 1
3431 115
3432 16
3433 95
3434 177
3435 133
3436 159
3437 1
3438 86
3439 21
3440 12
3441 21
3442 100
3443 146
3444 21
3445 79
3446 176
3447 0
3448 119
3449 51
3450 1
3451 12
3452 6
3453 56
3454 92
3455 92
3456 1
3457 125
3458 12
3459 74
3460 71
3461 138
3462 20
3463 21
3464 13
3465 18
3466 154
3467 19
3468 1
3469 1
3470 19
3471 138
3472 88
3473 83
3474 50
3475 66
3476 27
3477 69
3478 29
3479 41
3480 12
3481 31
3482 50
3483 66
3484 106
3485 12
3486 148
3487 13
3488 92
3489 116
3490 29
3491 129
3492 39
3493 62
3494 10
3495 99
3496 20
3497 79
3498 45
3499 9
3500 31
3501 13
3502 75
3503 163
3504 140
3505 24
3506 137
3507 12
3508 144
3509 27
3510 107
3511 25
3512 41
3513 202
3514 140
3515 0
3516 20
3517 1
3518 189
3519 66
3520 23
3521 169
3522 28
3523 26
3524 44
3525 99
3526 1
3527 1
3528 34
3529 68
3530 114
3531 140
3532 13
3533 41
3534 68
3535 41
3536 28
3537 21
3538 1
3539 169
3540 12
3541 138
3542 42
3543 198
3544 211
3545 50
3546 12
3547 0
3548 173
3549 24
3550 91
3551 138
3552 13
3553 92
3554 23
3555 131
3556 68
3557 30
3558 68
3559 40
3560 13
3561 94
3562 6
3563 1
3564 23
3565 210
3566 29
3567 131
3568 27
3569 45
3570 50
3571 145
3572 30
3573 62
3574 173
3575 63
3576 25
3577 64
3578 173
3579 102
3580 50
3581 28
3582 37
3583 157
3584 189
3585 127
3586 14
3587 102
3588 20
3589 103
3590 74
3591 144
3592 23
3593 61
3594 49
3595 1
3596 156
3597 92
3598 15
3599 24
3600 18
3601 12
3602 99
3603 28
3604 1
3605 197
3606 111
3607 26
3608 12
3609 49
3610 5
3611 87
3612 44
3613 75
3614 14
3615 145
3616 113
3617 50
3618 102
3619 51
3620 1
3621 74
3622 31
3623 73
3624 41
3625 63
3626 188
3627 40
3628 92
3629 207
3630 30
3631 24
3632 25
3633 1
3634 145
3635 43
3636 26
3637 166
3638 20
3639 63
3640 142
3641 5
3642 151
3643 24
3644 30
3645 25
3646 151
3647 1
3648 120
3649 99
3650 71
3651 13
3652 21
3653 51
3654 25
3655 145
3656 23
3657 75
3658 173
3659 44
3660 166
3661 12
3662 75
3663 32
3664 19
3665 75
3666 53
3667 183
3668 130
3669 41
3670 10
3671 176
3672 173
3673 12
3674 71
3675 23
3676 12
3677 26
3678 51
3679 51
3680 13
3681 121
3682 25
3683 20
3684 12
3685 177
3686 26
3687 41
3688 56
3689 39
3690 169
3691 211
3692 75
3693 189
3694 63
3695 26
3696 12
3697 140
3698 41
3699 13
3700 81
3701 49
3702 12
3703 1
3704 119
3705 113
3706 26
3707 6
3708 121
3709 20
3710 41
3711 92
3712 99
3713 99
3714 195
3715 120
3716 1
3717 50
3718 12
3719 172
3720 27
3721 185
3722 169
3723 92
3724 33
3725 45
3726 56
3727 13
3728 13
3729 176
3730 30
3731 20
3732 32
3733 13
3734 12
3735 12
3736 184
3737 31
3738 62
3739 74
3740 20
3741 144
3742 20
3743 71
3744 13
3745 137
3746 31
3747 12
3748 128
3749 9
3750 7
3751 26
3752 31
3753 12
3754 75
3755 73
3756 45
3757 41
3758 53
3759 1
3760 57
3761 6
3762 97
3763 192
3764 31
3765 12
3766 101
3767 130
3768 24
3769 117
3770 31
3771 56
3772 12
3773 23
3774 24
3775 68
3776 51
3777 23
3778 11
3779 1
3780 56
3781 71
3782 117
3783 83
3784 176
3785 103
3786 3
3787 12
3788 29
3789 1
3790 89
3791 1
3792 68
3793 34
3794 41
3795 129
3796 26
3797 99
3798 25
3799 91
3800 131
3801 62
3802 36
3803 89
3804 33
3805 66
3806 23
3807 187
3808 24
3809 21
3810 121
3811 3
3812 183
3813 21
3814 179
3815 29
3816 30
3817 41
3818 16
3819 20
3820 12
3821 26
3822 10
3823 9
3824 1
3825 0
3826 103
3827 100
3828 62
3829 208
3830 36
3831 75
3832 62
3833 41
3834 113
3835 45
3836 75
3837 19
3838 187
3839 6
3840 106
3841 47
3842 1
3843 6
3844 89
3845 41
3846 120
3847 151
3848 0
3849 151
3850 31
3851 89
3852 1
3853 68
3854 102
3855 122
3856 46
3857 151
3858 26
3859 1
3860 79
3861 71
3862 12
3863 101
3864 25
3865 50
3866 20
3867 198
3868 146
3869 75
3870 72
3871 83
3872 21
3873 18
3874 44
3875 8
3876 159
3877 20
3878 107
3879 86
3880 1
3881 16
3882 0
3883 12
3884 99
3885 31
3886 144
3887 51
3888 146
3889 17
3890 34
3891 131
3892 146
3893 6
3894 31
3895 51
3896 160
3897 128
3898 31
3899 76
3900 41
3901 51
3902 12
3903 130
3904 71
3905 212
3906 129
3907 26
3908 12
3909 134
3910 195
3911 6
3912 68
3913 56
3914 27
3915 204
3916 89
3917 23
3918 41
3919 31
3920 166
3921 12
3922 12
3923 11
3924 86
3925 142
3926 71
3927 95
3928 177
3929 30
3930 1
3931 83
3932 71
3933 10
3934 3
3935 11
3936 184
3937 1
3938 12
3939 9
3940 79
3941 184
3942 1
3943 91
3944 20
3945 26
3946 3
3947 145
3948 6
3949 119
3950 9
3951 23
3952 93
3953 1
3954 89
3955 146
3956 62
3957 158
3958 111
3959 176
3960 138
3961 56
3962 103
3963 20
3964 67
3965 33
3966 45
3967 80
3968 24
3969 130
3970 23
3971 162
3972 6
3973 1
3974 144
3975 128
3976 198
3977 68
3978 12
3979 168
3980 103
3981 117
3982 120
3983 1
3984 85
3985 9
3986 34
3987 89
3988 12
3989 51
3990 146
3991 6
3992 53
3993 21
3994 159
3995 131
3996 6
3997 12
3998 210
3999 21
4000 1
4001 164
4002 167
4003 50
4004 30
4005 27
4006 68
4007 120
4008 50
4009 25
4010 21
4011 11
4012 12
4013 80
4014 84
4015 210
4016 41
4017 41
4018 14
4019 29
4020 1
4021 25
4022 3
4023 52
4024 40
4025 68
4026 97
4027 31
4028 116
4029 89
4030 162
4031 160
4032 1
4033 20
4034 11
4035 91
4036 1
4037 1
4038 1
4039 71
4040 1
4041 145
4042 50
4043 146
4044 41
4045 36
4046 185
4047 117
4048 152
4049 30
4050 79
4051 71
4052 10
4053 30
4054 101
4055 75
4056 12
4057 86
4058 11
4059 146
4060 19
4061 117
4062 25
4063 159
4064 0
4065 1
4066 144
4067 0
4068 15
4069 144
4070 158
4071 25
4072 154
4073 95
4074 184
4075 47
4076 25
4077 75
4078 89
4079 6
4080 100
4081 13
4082 1
4083 92
4084 13
4085 1
4086 43
4087 203
4088 29
4089 17
4090 178
4091 159
4092 149
4093 92
4094 12
4095 114
4096 26
4097 21
4098 12
4099 12
4100 138
4101 98
4102 202
4103 203
4104 135
4105 113
4106 51
4107 198
4108 25
4109 11
4110 62
4111 71
4112 93
4113 23
4114 11
4115 12
4116 133
4117 26
4118 1
4119 136
4120 126
4121 37
4122 18
4123 81
4124 3
4125 29
4126 96
4127 1
4128 122
4129 177
4130 12
4131 7
4132 173
4133 105
4134 62
4135 37
4136 105
4137 31
4138 149
4139 56
4140 97
4141 75
4142 3
4143 41
4144 51
4145 89
4146 1
4147 111
4148 103
4149 50
4150 177
4151 71
4152 74
4153 13
4154 16
4155 90
4156 6
4157 6
4158 12
4159 18
4160 51
4161 91
4162 185
4163 3
4164 167
4165 86
4166 202
4167 25
4168 30
4169 11
4170 160
4171 162
4172 91
4173 119
4174 114
4175 68
4176 20
4177 9
4178 1
4179 146
4180 12
4181 26
4182 26
4183 41
4184 129
4185 98
4186 163
4187 86
4188 23
4189 41
4190 20
4191 159
4192 122
4193 114
4194 21
4195 89
4196 12
4197 12
4198 66
4199 121
4200 64
4201 142
4202 76
4203 154
4204 71
4205 20
4206 30
4207 47
4208 31
4209 44
4210 117
4211 51
4212 113
4213 50
4214 135
4215 46
4216 154
4217 30
4218 1
4219 64
4220 102
4221 16
4222 92
4223 64
4224 51
4225 1
4226 26
4227 74
4228 103
4229 139
4230 152
4231 62
4232 21
4233 73
4234 129
4235 173
4236 29
4237 31
4238 201
4239 27
4240 144
4241 41
4242 45
4243 25
4244 98
4245 25
4246 31
4247 158
4248 154
4249 217
4250 109
4251 173
4252 12
4253 51
4254 109
4255 53
4256 79
4257 1
4258 209
4259 152
4260 166
4261 92
4262 146
4263 195
4264 71
4265 72
4266 31
4267 16
4268 13
4269 166
4270 142
4271 26
4272 183
4273 154
4274 1
4275 86
4276 3
4277 74
4278 51
4279 71
4280 1
4281 103
4282 9
4283 173
4284 60
4285 12
4286 108
4287 26
4288 9
4289 83
4290 30
4291 80
4292 3
4293 21
4294 25
4295 12
4296 173
4297 157
4298 174
4299 68
4300 29
4301 26
4302 50
4303 26
4304 12
4305 169
4306 79
4307 12
4308 4
4309 12
4310 162
4311 21
4312 153
4313 208
4314 171
4315 51
4316 29
4317 109
4318 20
4319 83
4320 41
4321 12
4322 12
4323 29
4324 21
4325 103
4326 30
4327 1
4328 117
4329 21
4330 0
4331 41
4332 45
4333 173
4334 6
4335 51
4336 129
4337 173
4338 133
4339 132
4340 205
4341 68
4342 12
4343 53
4344 12
4345 24
4346 31
4347 12
4348 12
4349 1
4350 12
4351 195
4352 18
4353 25
4354 70
4355 12
4356 30
4357 29
4358 198
4359 101
4360 41
4361 31
4362 126
4363 89
4364 29
4365 168
4366 30
4367 1
4368 62
4369 148
4370 173
4371 85
4372 12
4373 66
4374 41
4375 146
4376 74
4377 12
4378 109
4379 98
4380 1
4381 26
4382 92
4383 187
4384 139
4385 103
4386 86
4387 87
4388 32
4389 23
4390 1
4391 62
4392 45
4393 0
4394 168
4395 129
4396 12
4397 65
4398 1
4399 89
4400 75
4401 1
4402 30
4403 1
4404 132
4405 144
4406 23
4407 114
4408 164
4409 68
4410 155
4411 164
4412 12
4413 115
4414 1
4415 183
4416 140
4417 1
4418 106
4419 186
4420 80
4421 1
4422 48
4423 9
4424 51
4425 12
4426 92
4427 61
4428 89
4429 90
4430 68
4431 25
4432 104
4433 51
4434 108
4435 29
4436 12
4437 68
4438 51
4439 89
4440 170
4441 117
4442 106
4443 142
4444 34
4445 39
4446 12
4447 121
4448 142
4449 20
4450 41
4451 12
4452 142
4453 1
4454 3
4455 26
4456 109
4457 97
4458 20
4459 159
4460 21
4461 21
4462 167
4463 82
4464 30
4465 1
4466 107
4467 44
4468 120
4469 1
4470 166
4471 75
4472 3
4473 44
4474 23
4475 133
4476 214
4477 80
4478 6
4479 114
4480 186
4481 99
4482 21
4483 174
4484 143
4485 29
4486 23
4487 1
4488 133
4489 1
4490 89
4491 1
4492 51
4493 31
4494 25
4495 169
4496 4
4497 146
4498 166
4499 27
4500 79
4501 89
4502 3
4503 51
4504 53
4505 31
4506 114
4507 12
4508 15
4509 1
4510 50
4511 134
4512 98
4513 1
4514 23
4515 0
4516 1
4517 3
4518 23
4519 107
4520 31
4521 31
4522 59
4523 12
4524 13
4525 31
4526 9
4527 1
4528 1
4529 166
4530 32
4531 161
4532 1
4533 51
4534 167
4535 104
4536 29
4537 12
4538 201
4539 104
4540 90
4541 102
4542 49
4543 146
4544 203
4545 33
4546 9
4547 31
4548 121
4549 92
4550 207
4551 121
4552 173
4553 114
4554 9
4555 67
4556 20
4557 12
4558 39
4559 56
4560 86
4561 29
4562 174
4563 82
4564 146
4565 90
4566 12
4567 53
4568 44
4569 81
4570 89
4571 7
4572 1
4573 173
4574 104
4575 140
4576 131
4577 36
4578 63
4579 1
4580 12
4581 129
4582 122
4583 53
4584 31
4585 50
4586 89
4587 1
4588 91
4589 34
4590 12
4591 27
4592 103
4593 179
4594 66
4595 125
4596 209
4597 31
4598 19
4599 12
4600 20
4601 12
4602 1
4603 25
4604 144
4605 44
4606 12
4607 103
4608 24
4609 51
4610 211
4611 195
4612 9
4613 179
4614 30
4615 133
4616 21
4617 140
4618 21
4619 50
4620 154
4621 89
4622 158
4623 20
4624 109
4625 19
4626 24
4627 81
4628 120
4629 186
4630 50
4631 1
4632 28
4633 79
4634 20
4635 1
4636 12
4637 44
4638 168
4639 6
4640 71
4641 144
4642 54
4643 25
4644 98
4645 118
4646 76
4647 146
4648 29
4649 99
4650 9
4651 51
4652 41
4653 92
4654 14
4655 148
4656 1
4657 29
4658 7
4659 50
4660 144
4661 120
4662 8
4663 133
4664 26
4665 71
4666 31
4667 56
4668 166
4669 120
4670 21
4671 1
4672 81
4673 71
4674 106
4675 51
4676 86
4677 68
4678 137
4679 50
4680 149
4681 128
4682 13
4683 42
4684 1
4685 25
4686 21
4687 12
4688 51
4689 93
4690 53
4691 13
4692 105
4693 46
4694 99
4695 29
4696 1
4697 121
4698 174
4699 11
4700 142
4701 114
4702 23
4703 80
4704 179
4705 30
4706 31
4707 102
4708 82
4709 50
4710 12
4711 1
4712 12
4713 25
4714 12
4715 75
4716 21
4717 113
4718 95
4719 68
4720 6
4721 120
4722 43
4723 139
4724 9
4725 198
4726 36
4727 23
4728 75
4729 30
4730 91
4731 31
4732 62
4733 144
4734 12
4735 174
4736 63
4737 120
4738 63
4739 77
4740 107
4741 129
4742 1
4743 12
4744 39
4745 129
4746 1
4747 90
4748 198
4749 104
4750 26
4751 50
4752 89
4753 31
4754 50
4755 51
4756 56
4757 194
4758 43
4759 109
4760 41
4761 11
4762 78
4763 83
4764 97
4765 139
4766 9
4767 50
4768 0
4769 68
4770 20
4771 13
4772 129
4773 200
4774 71
4775 42
4776 39
4777 145
4778 21
4779 12
4780 25
4781 173
4782 12
4783 1
4784 71
4785 9
4786 212
4787 99
4788 17
4789 20
4790 88
4791 146
4792 30
4793 174
4794 86
4795 131
4796 12
4797 0
4798 9
4799 89
4800 21
4801 116
4802 20
4803 108
4804 98
4805 103
4806 52
4807 102
4808 1
4809 69
4810 104
4811 50
4812 138
4813 41
4814 11
4815 25
4816 23
4817 114
4818 11
4819 50
4820 67
4821 44
4822 1
4823 34
4824 12
4825 186
4826 197
4827 72
4828 88
4829 17
4830 7
4831 83
4832 19
4833 162
4834 1
4835 15
4836 25
4837 62
4838 198
4839 49
4840 199
4841 196
4842 209
4843 9
4844 114
4845 1
4846 151
4847 4
4848 104
4849 85
4850 27
4851 183
4852 1
4853 116
4854 132
4855 23
4856 30
4857 10
4858 30
4859 184
4860 173
4861 131
4862 33
4863 27
4864 89
4865 102
4866 1
4867 6
4868 1
4869 38
4870 104
4871 72
4872 1
4873 34
4874 20
4875 51
4876 9
4877 71
4878 24
4879 76
4880 31
4881 27
4882 133
4883 1
4884 26
4885 13
4886 9
4887 41
4888 109
4889 18
4890 102
4891 14
4892 125
4893 100
4894 41
4895 15
4896 125
4897 99
4898 112
4899 129
4900 71
4901 86
4902 126
4903 41
4904 20
4905 163
4906 12
4907 6
4908 103
4909 24
4910 24
4911 71
4912 1
4913 12
4914 12
4915 27
4916 138
4917 50
4918 96
4919 74
4920 205
4921 173
4922 187
4923 144
4924 71
4925 1
4926 62
4927 144
4928 186
4929 182
4930 136
4931 86
4932 1
4933 23
4934 30
4935 2
4936 99
4937 102
4938 115
4939 1
4940 28
4941 78
4942 111
4943 164
4944 187
4945 12
4946 149
4947 27
4948 1
4949 131
4950 183
4951 9
4952 72
4953 59
4954 90
4955 140
4956 9
4957 19
4958 166
4959 1
4960 4
4961 11
4962 31
4963 117
4964 30
4965 50
4966 183
4967 122
4968 18
4969 88
4970 41
4971 104
4972 107
4973 140
4974 23
4975 68
4976 29
4977 41
4978 44
4979 162
4980 20
4981 40
4982 172
4983 142
4984 104
4985 41
4986 82
4987 186
4988 1
4989 19
4990 11
4991 51
4992 136
4993 26
4994 20
4995 12
4996 1
4997 125
4998 1
4999 23
5000 114
5001 199
5002 46
5003 51
5004 186
5005 114
5006 21
5007 126
5008 17
5009 9
5010 26
5011 115
5012 91
5013 41
5014 68
5015 27
5016 31
5017 165
5018 23
5019 188
5020 60
5021 47
5022 163
5023 20
5024 12
5025 81
5026 164
5027 26
5028 63
5029 108
5030 20
5031 11
5032 133
5033 24
5034 22
5035 14
5036 173
5037 1
5038 104
5039 173
5040 62
5041 144
5042 84
5043 62
5044 89
5045 89
5046 145
5047 12
5048 53
5049 119
5050 25
5051 160
5052 125
5053 129
5054 137
5055 174
5056 1
5057 27
5058 129
5059 12
5060 44
5061 107
5062 142
5063 114
5064 125
5065 41
5066 51
5067 125
5068 75
5069 87
5070 112
5071 62
5072 17
5073 1
5074 85
5075 73
5076 1
5077 73
5078 79
5079 167
5080 209
5081 1
5082 0
5083 167
5084 34
5085 1
5086 51
5087 53
5088 26
5089 152
5090 51
5091 209
5092 25
5093 194
5094 81
5095 12
5096 129
5097 28
5098 202
5099 89
5100 47
5101 12
5102 3
5103 62
5104 182
5105 109
5106 130
5107 29
5108 173
5109 30
5110 68
5111 178
5112 198
5113 144
5114 89
5115 93
5116 47
5117 21
5118 30
5119 140
5120 89
5121 79
5122 210
5123 19
5124 49
5125 125
5126 41
5127 167
5128 78
5129 195
5130 55
5131 139
5132 20
5133 12
5134 78
5135 169
5136 24
5137 29
5138 198
5139 79
5140 133
5141 41
5142 1
5143 107
5144 138
5145 1
5146 71
5147 57
5148 15
5149 41
5150 198
5151 24
5152 1
5153 31
5154 154
5155 44
5156 27
5157 19
5158 146
5159 90
5160 89
5161 13
5162 71
5163 18
5164 41
5165 174
5166 50
5167 183
5168 62
5169 68
5170 71
5171 1
5172 107
5173 12
5174 184
5175 114
5176 26
5177 133
5178 87
5179 1
5180 12
5181 0
5182 173
5183 31
5184 139
5185 57
5186 81
5187 19
5188 110
5189 50
5190 18
5191 84
5192 0
5193 183
5194 27
5195 25
5196 12
5197 12
5198 155
5199 40
5200 84
5201 173
5202 129
5203 27
5204 50
5205 35
5206 89
5207 26
5208 41
5209 89
5210 26
5211 71
5212 44
5213 62
5214 44
5215 114
5216 3
5217 44
5218 68
5219 21
5220 25
5221 12
5222 27
5223 198
5224 12
5225 2
5226 131
5227 40
5228 62
5229 156
5230 29
5231 12
5232 50
5233 74
5234 174
5235 66
5236 41
5237 86
5238 79
5239 1
5240 27
5241 155
5242 51
5243 25
5244 9
5245 149
5246 89
5247 117
5248 112
5249 1
5250 113
5251 50
5252 112
5253 27
5254 12
5255 20
5256 12
5257 89
5258 83
5259 140
5260 41
5261 114
5262 71
5263 20
5264 74
5265 34
5266 154
5267 6
5268 23
5269 12
5270 28
5271 39
5272 67
5273 13
5274 168
5275 71
5276 12
5277 144
5278 63
5279 34
5280 71
5281 146
5282 29
5283 133
5284 89
5285 130
5286 1
5287 202
5288 77
5289 6
5290 12
5291 1
5292 29
5293 13
5294 26
5295 102
5296 44
5297 9
5298 29
5299 23
5300 1
5301 89
5302 23
5303 12
5304 52
5305 20
5306 135
5307 209
5308 7
5309 66
5310 27
5311 88
5312 50
5313 68
5314 183
5315 82
5316 23
5317 12
5318 71
5319 1
5320 25
5321 12
5322 66
5323 112
5324 68
5325 18
5326 168
5327 67
5328 88
5329 12
5330 1
5331 12
5332 125
5333 163
5334 26
5335 197
5336 62
5337 68
5338 208
5339 6
5340 155
5341 12
5342 1
5343 33
5344 105
5345 31
5346 79
5347 140
5348 20
5349 148
5350 198
5351 41
5352 1
5353 25
5354 176
5355 195
5356 125
5357 21
5358 41
5359 208
5360 20
5361 35
5362 18
5363 146
5364 26
5365 148
5366 27
5367 6
5368 6
5369 12
5370 89
5371 137
5372 1
5373 20
5374 107
5375 81
5376 51
5377 91
5378 121
5379 18
5380 26
5381 31
5382 63
5383 12
5384 1
5385 158
5386 1
5387 45
5388 1
5389 4
5390 164
5391 89
5392 62
5393 173
5394 125
5395 131
5396 209
5397 1
5398 31
5399 24
5400 42
5401 173
5402 75
5403 7
5404 41
5405 26
5406 122
5407 25
5408 1
5409 65
5410 13
5411 20
5412 121
5413 39
5414 0
5415 173
5416 21
5417 1
5418 1
5419 24
5420 86
5421 0
5422 1
5423 44
5424 21
5425 12
5426 20
5427 50
5428 189
5429 38
5430 91
5431 177
5432 104
5433 26
5434 28
5435 62
5436 29
5437 62
5438 153
5439 191
5440 93
5441 12
5442 188
5443 50
5444 192
5445 79
5446 191
5447 6
5448 121
5449 29
5450 9
5451 51
5452 0
5453 9
5454 94
5455 27
5456 62
5457 19
5458 68
5459 1
5460 34
5461 105
5462 23
5463 24
5464 131
5465 193
5466 41
5467 106
5468 51
5469 29
5470 30
5471 29
5472 6
5473 1
5474 24
5475 123
5476 103
5477 144
5478 212
5479 24
5480 47
5481 12
5482 176
5483 51
5484 75
5485 159
5486 21
5487 92
5488 13
5489 71
5490 216
5491 25
5492 1
5493 12
5494 1
5495 142
5496 44
5497 130
5498 26
5499 0
5500 73
5501 177
5502 1
5503 49
5504 134
5505 122
5506 25
5507 122
5508 133
5509 24
5510 68
5511 29
5512 1
5513 0
5514 135
5515 19
5516 198
5517 1
5518 21
5519 31
5520 1
5521 53
5522 79
5523 173
5524 41
5525 191
5526 180
5527 50
5528 29
5529 138
5530 184
5531 79
5532 89
5533 6
5534 1
5535 12
5536 195
5537 119
5538 40
5539 134
5540 25
5541 6
5542 26
5543 202
5544 176
5545 23
5546 12
5547 50
5548 66
5549 32
5550 12
5551 19
5552 27
5553 81
5554 99
5555 0
5556 61
5557 145
5558 23
5559 149
5560 122
5561 1
5562 71
5563 27
5564 83
5565 51
5566 6
5567 62
5568 12
5569 189
5570 12
5571 125
5572 137
5573 112
5574 86
5575 71
5576 112
5577 146
5578 63
5579 30
5580 26
5581 195
5582 87
5583 104
5584 21
5585 188
5586 1
5587 26
5588 6
5589 21
5590 6
5591 8
5592 13
5593 46
5594 129
5595 79
5596 50
5597 6
5598 209
5599 152
5600 202
5601 1
5602 12
5603 30
5604 151
5605 197
5606 56
5607 31
5608 62
5609 116
5610 89
5611 97
5612 41
5613 26
5614 29
5615 68
5616 31
5617 69
5618 47
5619 79
5620 44
5621 209
5622 198
5623 102
5624 117
5625 211
5626 98
5627 19
5628 1
5629 90
5630 12
5631 161
5632 0
5633 41
5634 0
5635 30
5636 81
5637 167
5638 68
5639 26
5640 157
5641 50
5642 12
5643 1
5644 112
5645 108
5646 198
5647 187
5648 83
5649 56
5650 9
5651 30
5652 146
5653 41
5654 12
5655 89
5656 1
5657 86
5658 136
5659 12
5660 60
5661 97
5662 4
5663 6
5664 11
5665 13
5666 114
5667 78
5668 6
5669 31
5670 68
5671 81
5672 51
5673 97
5674 125
5675 20
5676 50
5677 9
5678 29
5679 134
5680 28
5681 34
5682 9
5683 66
5684 181
5685 29
5686 23
5687 127
5688 0
5689 56
5690 6
5691 138
5692 102
5693 131
5694 12
5695 27
5696 104
5697 44
5698 135
5699 9
5700 12
5701 56
5702 1
5703 12
5704 34
5705 1
5706 102
5707 86
5708 30
5709 20
5710 169
5711 1
5712 50
5713 89
5714 6
5715 31
5716 20
5717 169
5718 79
5719 79
5720 79
5721 21
5722 146
5723 51
5724 68
5725 20
5726 89
5727 42
5728 68
5729 79
5730 89
5731 108
5732 109
5733 12
5734 56
5735 30
5736 173
5737 89
5738 179
5739 27
5740 12
5741 57
5742 30
5743 186
5744 62
5745 9
5746 31
5747 51
5748 135
5749 20
5750 145
5751 12
5752 117
5753 92
5754 26
5755 198
5756 12
5757 6
5758 27
5759 11
5760 66
5761 114
5762 99
5763 104
5764 44
5765 21
5766 43
5767 31
5768 25
5769 166
5770 56
5771 135
5772 73
5773 24
5774 25
5775 71
5776 23
5777 41
5778 82
5779 6
5780 1
5781 50
5782 91
5783 6
5784 93
5785 29
5786 71
5787 120
5788 1
5789 89
5790 24
5791 30
5792 75
5793 1
5794 152
5795 134
5796 50
5797 9
5798 82
5799 20
5800 19
5801 77
5802 13
5803 68
5804 81
5805 164
5806 50
5807 31
5808 183
5809 98
5810 24
5811 1
5812 23
5813 145
5814 31
5815 75
5816 188
5817 44
5818 46
5819 53
5820 12
5821 136
5822 62
5823 71
5824 41
5825 122
5826 146
5827 1
5828 0
5829 1
5830 12
5831 75
5832 146
5833 119
5834 105
5835 1
5836 204
5837 50
5838 103
5839 131
5840 20
5841 182
5842 21
5843 121
5844 131
5845 74
5846 89
5847 41
5848 202
5849 97
5850 6
5851 120
5852 12
5853 50
5854 53
5855 100
5856 193
5857 50
5858 3
5859 9
5860 22
5861 22
5862 11
5863 25
5864 130
5865 1
5866 56
5867 12
5868 193
5869 139
5870 9
5871 173
5872 193
5873 6
5874 13
5875 69
5876 34
5877 121
5878 1
5879 139
5880 91
5881 168
5882 41
5883 26
5884 1
5885 1
5886 1
5887 17
5888 62
5889 1
5890 128
5891 112
5892 107
5893 40
5894 86
5895 145
5896 42
5897 74
5898 50
5899 145
5900 62
5901 146
5902 140
5903 46
5904 1
5905 54
5906 51
5907 127
5908 67
5909 184
5910 19
5911 81
5912 160
5913 128
5914 12
5915 159
5916 211
5917 31
5918 6
5919 138
5920 30
5921 188
5922 11
5923 1
5924 1
5925 1
5926 57
5927 44
5928 117
5929 89
5930 26
5931 73
5932 71
5933 44
5934 45
5935 139
5936 128
5937 99
5938 12
5939 31
5940 191
5941 142
5942 197
5943 1
5944 56
5945 1
5946 151
5947 68
5948 71
5949 30
5950 1
5951 89
5952 78
5953 12
5954 26
5955 157
5956 1
5957 17
5958 13
5959 92
5960 41
5961 50
5962 89
5963 1
5964 5
5965 122
5966 12
5967 47
5968 1
5969 163
5970 12
5971 75
5972 180
5973 122
5974 24
5975 12
5976 206
5977 43
5978 1
5979 41
5980 12
5981 21
5982 51
5983 62
5984 52
5985 120
5986 44
5987 163
5988 62
5989 41
5990 26
5991 108
5992 12
5993 25
5994 10
5995 50
5996 40
5997 50
5998 79
5999 6
6000 103
6001 146
6002 75
6003 39
6004 0
6005 144
6006 12
6007 188
6008 131
6009 117
6010 12
6011 138
6012 117
6013 14
6014 20
6015 1
6016 167
6017 21
6018 6
6019 146
6020 51
6021 44
6022 26
6023 20
6024 73
6025 193
6026 11
6027 2
6028 12
6029 31
6030 163
6031 51
6032 167
6033 12
6034 30
6035 77
6036 137
6037 20
6038 216
6039 56
6040 25
6041 26
6042 56
6043 34
6044 56
6045 83
6046 27
6047 21
6048 69
6049 176
6050 12
6051 71
6052 165
6053 188
6054 7
6055 30
6056 79
6057 83
6058 169
6059 173
6060 98
6061 12
6062 176
6063 23
6064 1
6065 27
6066 41
6067 25
6068 57
6069 25
6070 204
6071 12
6072 51
6073 24
6074 2
6075 149
6076 30
6077 187
6078 41
6079 1
6080 1
6081 49
6082 111
6083 18
6084 100
6085 6
6086 3
6087 6
6088 79
6089 195
6090 167
6091 38
6092 115
6093 2
6094 7
6095 146
6096 128
6097 1
6098 103
6099 161
6100 12
6101 66
6102 174
6103 188
6104 41
6105 23
6106 30
6107 20
6108 31
6109 1
6110 79
6111 26
6112 6
6113 111
6114 12
6115 41
6116 56
6117 50
6118 186
6119 136
6120 20
6121 81
6122 7
6123 17
6124 25
6125 15
6126 12
6127 6
6128 131
6129 12
6130 108
6131 12
6132 24
6133 21
6134 1
6135 46
6136 163
6137 18
6138 109
6139 62
6140 1
6141 89
6142 12
6143 12
6144 121
6145 27
6146 25
6147 186
6148 49
6149 25
6150 81
6151 66
6152 173
6153 44
6154 3
6155 12
6156 31
6157 60
6158 12
6159 162
6160 21
6161 109
6162 142
6163 30
6164 163
6165 56
6166 102
6167 68
6168 12
6169 9
6170 103
6171 142
6172 98
6173 107
6174 120
6175 1
6176 67
6177 24
6178 98
6179 44
6180 25
6181 38
6182 83
6183 71
6184 71
6185 193
6186 195
6187 12
6188 23
6189 140
6190 134
6191 41
6192 6
6193 99
6194 28
6195 129
6196 154
6197 132
6198 44
6199 11
6200 63
6201 142
6202 10
6203 57
6204 1
6205 21
6206 23
6207 83
6208 129
6209 144
6210 1
6211 27
6212 12
6213 125
6214 56
6215 148
6216 66
6217 86
6218 112
6219 199
6220 86
6221 15
6222 1
6223 22
6224 51
6225 75
6226 87
6227 102
6228 68
6229 63
6230 1
6231 97
6232 114
6233 94
6234 50
6235 87
6236 104
6237 186
6238 64
6239 141
6240 105
6241 25
6242 111
6243 203
6244 146
6245 40
6246 70
6247 145
6248 80
6249 102
6250 93
6251 12
6252 128
6253 0
6254 125
6255 75
6256 11
6257 134
6258 49
6259 154
6260 90
6261 13
6262 11
6263 6
6264 29
6265 173
6266 6
6267 49
6268 23
6269 111
6270 2
6271 1
6272 109
6273 122
6274 7
6275 47
6276 53
6277 64
6278 7
6279 1
6280 78
6281 109
6282 12
6283 56
6284 9
6285 144
6286 29
6287 71
6288 142
6289 117
6290 81
6291 87
6292 134
6293 105
6294 2
6295 171
6296 216
6297 51
6298 146
6299 1
6300 62
6301 154
6302 98
6303 211
6304 12
6305 12
6306 105
6307 50
6308 26
6309 47
6310 104
6311 162
6312 61
6313 103
6314 119
6315 1
6316 94
6317 157
6318 49
6319 125
6320 89
6321 173
6322 49
6323 119
6324 27
6325 0
6326 154
6327 173
6328 58
6329 12
6330 1
6331 46
6332 208
6333 130
6334 12
6335 6
6336 50
6337 21
6338 25
6339 167
6340 53
6341 173
6342 155
6343 131
6344 97
6345 190
6346 114
6347 25
6348 53
6349 162
6350 1
6351 142
6352 26
6353 25
6354 133
6355 1
6356 188
6357 20
6358 173
6359 64
6360 146
6361 81
6362 1
6363 29
6364 87
6365 62
6366 45
6367 86
6368 62
6369 23
6370 1
6371 114
6372 51
6373 12
6374 12
6375 26
6376 71
6377 51
6378 155
6379 118
6380 47
6381 174
6382 105
6383 43
6384 123
6385 20
6386 1
6387 12
6388 133
6389 12
6390 146
6391 25
6392 22
6393 18
6394 90
6395 113
6396 9
6397 21
6398 12
6399 102
6400 174
6401 142
6402 51
6403 1
6404 89
6405 21
6406 68
6407 137
6408 30
6409 23
6410 50
6411 6
6412 165
6413 158
6414 12
6415 1
6416 20
6417 18
6418 92
6419 11
6420 53
6421 6
6422 15
6423 102
6424 45
6425 0
6426 68
6427 187
6428 120
6429 12
6430 50
6431 132
6432 13
6433 23
6434 166
6435 6
6436 103
6437 183
6438 131
6439 3
6440 132
6441 23
6442 1
6443 6
6444 50
6445 12
6446 97
6447 138
6448 89
6449 1
6450 188
6451 14
6452 166
6453 97
6454 198
6455 26
6456 29
6457 1
6458 56
6459 92
6460 166
6461 1
6462 99
6463 79
6464 165
6465 105
6466 79
6467 74
6468 0
6469 121
6470 20
6471 145
6472 12
6473 51
6474 2
6475 168
6476 92
6477 105
6478 104
6479 186
6480 194
6481 41
6482 166
6483 26
6484 12
6485 209
6486 11
6487 50
6488 28
6489 1
6490 90
6491 19
6492 168
6493 9
6494 167
6495 39
6496 198
6497 86
6498 189
6499 21
6500 145
6501 11
6502 142
6503 146
6504 69
6505 185
6506 1
6507 1
6508 89
6509 71
6510 1
6511 71
6512 173
6513 44
6514 162
6515 138
6516 147
6517 1
6518 27
6519 3
6520 167
6521 6
6522 0
6523 97
6524 174
6525 15
6526 11
6527 53
6528 8
6529 51
6530 138
6531 1
6532 123
6533 12
6534 24
6535 51
6536 12
6537 12
6538 17
6539 30
6540 5
6541 86
6542 30
6543 121
6544 26
6545 21
6546 12
6547 85
6548 68
6549 0
6550 216
6551 121
6552 16
6553 42
6554 24
6555 31
6556 146
6557 3
6558 11
6559 6
6560 18
6561 129
6562 208
6563 12
6564 97
6565 44
6566 109
6567 131
6568 53
6569 12
6570 68
6571 174
6572 86
6573 20
6574 183
6575 1
6576 15
6577 25
6578 12
6579 12
6580 189
6581 12
6582 23
6583 151
6584 89
6585 71
6586 35
6587 34
6588 3
6589 50
6590 88
6591 131
6592 20
6593 26
6594 176
6595 28
6596 145
6597 50
6598 12
6599 122
6600 1
6601 185
6602 12
6603 18
6604 9
6605 26
6606 31
6607 3
6608 68
6609 51
6610 30
6611 133
6612 129
6613 30
6614 1
6615 174
6616 53
6617 145
6618 113
6619 167
6620 23
6621 28
6622 89
6623 169
6624 51
6625 53
6626 1
6627 173
6628 23
6629 53
6630 35
6631 79
6632 1
6633 174
6634 39
6635 89
6636 12
6637 186
6638 23
6639 12
6640 23
6641 145
6642 122
6643 72
6644 145
6645 96
6646 34
6647 27
6648 146
6649 135
6650 41
6651 20
6652 79
6653 141
6654 155
6655 74
6656 61
6657 114
6658 3
6659 1
6660 70
6661 186
6662 62
6663 12
6664 75
6665 19
6666 12
6667 140
6668 131
6669 109
6670 74
6671 146
6672 1
6673 83
6674 19
6675 12
6676 75
6677 185
6678 144
6679 1
6680 138
6681 72
6682 53
6683 93
6684 0
6685 12
6686 1
6687 44
6688 44
6689 41
6690 12
6691 20
6692 129
6693 160
6694 186
6695 69
6696 13
6697 211
6698 140
6699 79
6700 155
6701 71
6702 173
6703 50
6704 50
6705 1
6706 7
6707 49
6708 32
6709 12
6710 68
6711 104
6712 12
6713 186
6714 30
6715 30
6716 41
6717 99
6718 3
6719 24
6720 44
6721 142
6722 144
6723 1
6724 89
6725 138
6726 28
6727 36
6728 6
6729 9
6730 12
6731 68
6732 26
6733 9
6734 92
6735 96
6736 137
6737 100
6738 131
6739 98
6740 50
6741 12
6742 137
6743 114
6744 29
6745 6
6746 1
6747 111
6748 1
6749 68
6750 4
6751 56
6752 25
6753 4
6754 26
6755 198
6756 41
6757 25
6758 51
6759 44
6760 109
6761 1
6762 35
6763 89
6764 13
6765 8
6766 186
6767 214
6768 94
6769 29
6770 4
6771 26
6772 9
6773 50
6774 140
6775 155
6776 68
6777 28
6778 92
6779 46
6780 32
6781 112
6782 71
6783 41
6784 1
6785 68
6786 89
6787 50
6788 144
6789 92
6790 121
6791 148
6792 12
6793 86
6794 146
6795 1
6796 12
6797 20
6798 51
6799 0
6800 1
6801 1
6802 102
6803 16
6804 0
6805 51
6806 1
6807 173
6808 42
6809 51
6810 19
6811 3
6812 9
6813 9
6814 88
6815 62
6816 210
6817 146
6818 6
6819 21
6820 108
6821 12
6822 43
6823 129
6824 24
6825 23
6826 92
6827 24
6828 146
6829 25
6830 20
6831 56
6832 23
6833 25
6834 198
6835 33
6836 200
6837 1
6838 79
6839 183
6840 89
6841 45
6842 12
6843 25
6844 49
6845 51
6846 9
6847 11
6848 6
6849 25
6850 137
6851 53
6852 56
6853 96
6854 19
6855 50
6856 12
6857 71
6858 80
6859 12
6860 110
6861 21
6862 50
6863 25
6864 99
6865 19
6866 91
6867 41
6868 106
6869 25
6870 91
6871 112
6872 23
6873 66
6874 181
6875 23
6876 198
6877 146
6878 51
6879 103
6880 11
6881 29
6882 88
6883 88
6884 114
6885 34
6886 25
6887 62
6888 12
6889 173
6890 84
6891 117
6892 34
6893 107
6894 146
6895 110
6896 71
6897 31
6898 89
6899 17
6900 6
6901 106
6902 68
6903 68
6904 12
6905 26
6906 7
6907 30
6908 12
6909 12
6910 46
6911 44
6912 112
6913 188
6914 39
6915 12
6916 142
6917 109
6918 44
6919 18
6920 137
6921 163
6922 23
6923 163
6924 89
6925 9
6926 86
6927 184
6928 68
6929 21
6930 12
6931 41
6932 93
6933 97
6934 99
6935 18
6936 155
6937 89
6938 15
6939 39
6940 162
6941 31
6942 6
6943 186
6944 1
6945 85
6946 96
6947 129
6948 6
6949 1
6950 173
6951 1
6952 160
6953 102
6954 68
6955 39
6956 202
6957 1
6958 201
6959 24
6960 24
6961 13
6962 12
6963 51
6964 12
6965 81
6966 158
6967 104
6968 174
6969 60
6970 51
6971 62
6972 31
6973 66
6974 122
6975 12
6976 12
6977 12
6978 20
6979 149
6980 1
6981 174
6982 17
6983 62
6984 18
6985 137
6986 40
6987 46
6988 8
6989 12
6990 68
6991 48
6992 25
6993 40
6994 68
6995 71
6996 79
6997 23
6998 31
6999 12
7000 13
7001 12
7002 23
7003 9
7004 72
7005 1
7006 6
7007 44
7008 44
7009 86
7010 146
7011 75
7012 23
7013 61
7014 13
7015 9
7016 134
7017 57
7018 89
7019 1
7020 21
7021 91
7022 0
7023 141
7024 30
7025 41
7026 23
7027 82
7028 0
7029 1
7030 25
7031 194
7032 28
7033 21
7034 51
7035 186
7036 51
7037 24
7038 178
7039 144
7040 117
7041 47
7042 134
7043 125
7044 93
7045 42
7046 114
7047 1
7048 130
7049 44
7050 104
7051 160
7052 105
7053 107
7054 1
7055 13
7056 166
7057 149
7058 6
7059 71
7060 51
7061 30
7062 41
7063 40
7064 18
7065 24
7066 100
7067 23
7068 78
7069 6
7070 24
7071 133
7072 12
7073 13
7074 14
7075 49
7076 73
7077 51
7078 184
7079 1
7080 14
7081 146
7082 102
7083 0
7084 24
7085 43
7086 53
7087 62
7088 41
7089 160
7090 26
7091 84
7092 20
7093 144
7094 1
7095 50
7096 207
7097 92
7098 162
7099 46
7100 89
7101 174
7102 62
7103 27
7104 91
7105 41
7106 24
7107 45
7108 27
7109 108
7110 79
7111 62
7112 41
7113 104
7114 142
7115 94
7116 39
7117 50
7118 114
7119 1
7120 107
7121 25
7122 74
7123 31
7124 0
7125 117
7126 23
7127 41
7128 169
7129 114
7130 92
7131 26
7132 39
7133 62
7134 198
7135 28
7136 144
7137 12
7138 12
7139 11
7140 6
7141 210
7142 68
7143 50
7144 169
7145 125
7146 15
7147 92
7148 41
7149 19
7150 71
7151 200
7152 10
7153 20
7154 25
7155 92
7156 25
7157 80
7158 91
7159 49
7160 26
7161 12
7162 0
7163 9
7164 51
7165 114
7166 34
7167 79
7168 201
7169 26
7170 86
7171 207
7172 1
7173 98
7174 103
7175 14
7176 20
7177 154
7178 18
7179 104
7180 90
7181 114
7182 27
7183 0
7184 68
7185 98
7186 146
7187 181
7188 0
7189 158
7190 39
7191 9
7192 50
7193 29
7194 89
7195 137
7196 89
7197 68
7198 1
7199 1
7200 12
7201 92
7202 31
7203 27
7204 27
7205 23
7206 25
7207 209
7208 39
7209 147
7210 173
7211 145
7212 195
7213 146
7214 13
7215 50
7216 71
7217 20
7218 20
7219 80
7220 45
7221 41
7222 109
7223 175
7224 29
7225 27
7226 1
7227 177
7228 152
7229 199
7230 20
7231 6
7232 44
7233 0
7234 71
7235 1
7236 56
7237 14
7238 47
7239 98
7240 13
7241 31
7242 146
7243 71
7244 51
7245 71
7246 25
7247 9
7248 200
7249 103
7250 24
7251 40
7252 68
7253 30
7254 117
7255 59
7256 103
7257 19
7258 102
7259 51
7260 6
7261 29
7262 9
7263 26
7264 71
7265 109
7266 25
7267 25
7268 13
7269 12
7270 173
7271 120
7272 81
7273 183
7274 0
7275 56
7276 56
7277 23
7278 16
7279 62
7280 122
7281 21
7282 102
7283 11
7284 13
7285 40
7286 30
7287 16
7288 26
7289 24
7290 51
7291 41
7292 52
7293 78
7294 12
7295 86
7296 31
7297 29
7298 18
7299 81
7300 12
7301 1
7302 12
7303 11
7304 137
7305 114
7306 31
7307 12
7308 29
7309 23
7310 127
7311 44
7312 130
7313 1
7314 21
7315 31
7316 140
7317 138
7318 154
7319 41
7320 20
7321 55
7322 104
7323 26
7324 86
7325 20
7326 33
7327 20
7328 114
7329 26
7330 146
7331 41
7332 24
7333 13
7334 89
7335 36
7336 25
7337 1
7338 30
7339 1
7340 41
7341 79
7342 29
7343 83
7344 104
7345 135
7346 12
7347 1
7348 136
7349 7
7350 121
7351 84
7352 25
7353 11
7354 179
7355 25
7356 20
7357 89
7358 1
7359 12
7360 1
7361 9
7362 68
7363 12
7364 29
7365 51
7366 12
7367 1
7368 11
7369 6
7370 47
7371 22
7372 1
7373 12
7374 138
7375 105
7376 29
7377 27
7378 157
7379 30
7380 62
7381 131
7382 50
7383 31
7384 6
7385 98
7386 12
7387 1
7388 39
7389 12
7390 12
7391 172
7392 41
7393 212
7394 41
7395 44
7396 104
7397 68
7398 138
7399 50
7400 26
7401 1
7402 64
7403 71
7404 101
7405 110
7406 20
7407 146
7408 104
7409 25
7410 125
7411 162
7412 136
7413 125
7414 100
7415 168
7416 20
7417 146
7418 145
7419 208
7420 1
7421 138
7422 68
7423 125
7424 41
7425 25
7426 1
7427 6
7428 75
7429 31
7430 12
7431 118
7432 129
7433 107
7434 129
7435 47
7436 51
7437 19
7438 23
7439 70
7440 12
7441 79
7442 23
7443 51
7444 145
7445 202
7446 23
7447 167
7448 195
7449 83
7450 6
7451 26
7452 6
7453 23
7454 98
7455 30
7456 152
7457 41
7458 41
7459 50
7460 27
7461 79
7462 73
7463 1
7464 12
7465 27
7466 198
7467 53
7468 96
7469 50
7470 24
7471 27
7472 0
7473 145
7474 173
7475 47
7476 1
7477 75
7478 114
7479 47
7480 102
7481 12
7482 6
7483 74
7484 115
7485 12
7486 129
7487 2
7488 1
7489 81
7490 27
7491 85
7492 26
7493 41
7494 9
7495 6
7496 46
7497 6
7498 83
7499 135
7500 79
7501 140
7502 112
7503 158
7504 0
7505 169
7506 20
7507 11
7508 12
7509 113
7510 147
7511 81
7512 1
7513 12
7514 1
7515 1
7516 25
7517 173
7518 1
7519 40
7520 25
7521 1
7522 131
7523 26
7524 23
7525 1
7526 40
7527 23
7528 146
7529 1
7530 13
7531 159
7532 1
7533 40
7534 19
7535 117
7536 99
7537 29
7538 188
7539 92
7540 31
7541 50
7542 28
7543 20
7544 6
7545 21
7546 20
7547 66
7548 66
7549 75
7550 1
7551 109
7552 81
7553 73
7554 50
7555 121
7556 122
7557 29
7558 145
7559 1
7560 71
7561 34
7562 12
7563 122
7564 75
7565 14
7566 23
7567 202
7568 195
7569 51
7570 70
7571 23
7572 89
7573 173
7574 29
7575 71
7576 24
7577 9
7578 51
7579 129
7580 92
7581 46
7582 41
7583 122
7584 164
7585 14
7586 21
7587 12
7588 41
7589 31
7590 62
7591 26
7592 53
7593 25
7594 31
7595 205
7596 21
7597 152
7598 147
7599 91
7600 12
7601 1
7602 1
7603 77
7604 46
7605 51
7606 4
7607 151
7608 53
7609 41
7610 111
7611 50
7612 50
7613 109
7614 122
7615 149
7616 197
7617 12
7618 1
7619 142
7620 41
7621 1
7622 12
7623 25
7624 197
7625 12
7626 89
7627 46
7628 26
7629 1
7630 1
7631 19
7632 131
7633 143
7634 139
7635 1
7636 210
7637 44
7638 30
7639 40
7640 119
7641 12
7642 24
7643 66
7644 6
7645 1
7646 1
7647 12
7648 12
7649 112
7650 25
7651 29
7652 0
7653 50
7654 131
7655 81
7656 152
7657 197
7658 73
7659 39
7660 27
7661 25
7662 44
7663 41
7664 10
7665 210
7666 99
7667 103
7668 12
7669 30
7670 99
7671 23
7672 26
7673 89
7674 146
7675 41
7676 1
7677 131
7678 53
7679 31
7680 58
7681 86
7682 41
7683 26
7684 41
7685 0
7686 71
7687 20
7688 12
7689 120
7690 1
7691 26
7692 98
7693 30
7694 12
7695 23
7696 159
7697 27
7698 21
7699 214
7700 71
7701 188
7702 187
7703 30
7704 12
7705 1
7706 16
7707 195
7708 71
7709 12
7710 4
7711 20
7712 12
7713 43
7714 102
7715 102
7716 24
7717 6
7718 1
7719 23
7720 1
7721 138
7722 1
7723 12
7724 24
7725 79
7726 41
7727 75
7728 81
7729 120
7730 56
7731 71
7732 50
7733 30
7734 1
7735 185
7736 71
7737 105
7738 12
7739 1
7740 40
7741 62
7742 81
7743 103
7744 132
7745 104
7746 26
7747 27
7748 31
7749 26
7750 140
7751 163
7752 17
7753 44
7754 162
7755 69
7756 21
7757 0
7758 17
7759 12
7760 4
7761 29
7762 50
7763 56
7764 39
7765 4
7766 21
7767 98
7768 44
7769 113
7770 13
7771 21
7772 1
7773 211
7774 20
7775 0
7776 218
7777 40
7778 161
7779 146
7780 20
7781 20
7782 214
7783 81
7784 12
7785 112
7786 64
7787 26
7788 104
7789 20
7790 11
7791 71
7792 41
7793 1
7794 41
7795 122
7796 51
7797 27
7798 27
7799 98
7800 194
7801 89
7802 25
7803 75
7804 51
7805 75
7806 184
7807 16
7808 30
7809 135
7810 22
7811 29
7812 52
7813 6
7814 87
7815 97
7816 71
7817 154
7818 119
7819 27
7820 13
7821 26
7822 23
7823 13
7824 103
7825 12
7826 11
7827 0
7828 1
7829 12
7830 50
7831 1
7832 0
7833 130
7834 128
7835 13
7836 13
7837 12
7838 106
7839 25
7840 130
7841 9
7842 202
7843 9
7844 59
7845 24
7846 70
7847 79
7848 12
7849 27
7850 199
7851 145
7852 137
7853 109
7854 50
7855 169
7856 5
7857 12
7858 12
7859 75
7860 72
7861 26
7862 26
7863 140
7864 1
7865 30
7866 39
7867 62
7868 111
7869 89
7870 56
7871 3
7872 156
7873 51
7874 71
7875 14
7876 146
7877 25
7878 75
7879 216
7880 1
7881 6
7882 202
7883 56
7884 12
7885 12
7886 33
7887 21
7888 130
7889 20
7890 12
7891 13
7892 13
7893 29
7894 24
7895 120
7896 42
7897 6
7898 14
7899 1
7900 13
7901 1
7902 137
7903 113
7904 141
7905 66
7906 68
7907 1
7908 73
7909 7
7910 122
7911 116
7912 182
7913 51
7914 1
7915 114
7916 27
7917 1
7918 145
7919 89
7920 26
7921 50
7922 13
7923 74
7924 53
7925 34
7926 44
7927 43
7928 14
7929 12
7930 126
7931 142
7932 11
7933 188
7934 0
7935 167
7936 66
7937 25
7938 97
7939 6
7940 25
7941 177
7942 23
7943 171
7944 161
7945 126
7946 181
7947 24
7948 44
7949 25
7950 47
7951 41
7952 14
7953 56
7954 61
7955 147
7956 166
7957 9
7958 27
7959 4
7960 30
7961 102
7962 50
7963 162
7964 62
7965 62
7966 47
7967 12
7968 146
7969 41
7970 110
7971 148
7972 87
7973 171
7974 20
7975 136
7976 31
7977 31
7978 188
7979 130
7980 199
7981 21
7982 11
7983 20
7984 89
7985 125
7986 30
7987 1
7988 68
7989 128
7990 184
7991 89
7992 56
7993 68
7994 50
7995 17
7996 12
7997 44
7998 145
7999 56
8000 163
8001 33
8002 11
8003 18
8004 18
8005 75
8006 167
8007 68
8008 0
8009 11
8010 6
8011 114
8012 91
8013 205
8014 56
8015 174
8016 12
8017 145
8018 41
8019 18
8020 44
8021 12
8022 62
8023 0
8024 71
8025 29
8026 50
8027 137
8028 68
8029 7
8030 12
8031 188
8032 9
8033 66
8034 136
8035 27
8036 30
8037 75
8038 93
8039 107
8040 130
8041 13
8042 122
8043 188
8044 173
8045 145
8046 109
8047 86
8048 103
8049 162
8050 44
8051 1
8052 92
8053 1
8054 138
8055 89
8056 119
8057 47
8058 9
8059 12
8060 120
8061 181
8062 20
8063 27
8064 11
8065 71
8066 25
8067 109
8068 12
8069 92
8070 188
8071 25
8072 162
8073 154
8074 68
8075 81
8076 1
8077 30
8078 3
8079 109
8080 21
8081 39
8082 142
8083 34
8084 1
8085 17
8086 68
8087 31
8088 31
8089 41
8090 41
8091 11
8092 50
8093 201
8094 1
8095 12
8096 40
8097 89
8098 44
8099 183
8100 156
8101 12
8102 81
8103 26
8104 29
8105 0
8106 31
8107 1
8108 90
8109 44
8110 51
8111 139
8112 30
8113 173
8114 145
8115 68
8116 46
8117 31
8118 83
8119 44
8120 25
8121 144
8122 27
8123 186
8124 41
8125 188
8126 17
8127 12
8128 87
8129 149
8130 86
8131 102
8132 8
8133 26
8134 26
8135 108
8136 31
8137 197
8138 12
8139 71
8140 12
8141 25
8142 9
8143 75
8144 23
8145 31
8146 113
8147 51
8148 30
8149 20
8150 30
8151 173
8152 6
8153 34
8154 1
8155 44
8156 162
8157 63
8158 89
8159 71
8160 89
8161 100
8162 68
8163 25
8164 158
8165 144
8166 9
8167 158
8168 1
8169 177
8170 122
8171 25
8172 75
8173 90
8174 71
8175 134
8176 56
8177 12
8178 144
8179 102
8180 12
8181 13
8182 186
8183 1
8184 89
8185 71
8186 134
8187 71
8188 131
8189 47
8190 173
8191 136
8192 33
8193 0
8194 166
8195 31
8196 117
8197 51
8198 23
8199 167
8200 117
8201 1
8202 120
8203 34
8204 188
8205 211
8206 1
8207 25
8208 123
8209 25
8210 131
8211 66
8212 29
8213 69
8214 61
8215 159
8216 108
8217 110
8218 167
8219 186
8220 29
8221 0
8222 146
8223 142
8224 174
8225 21
8226 6
8227 156
8228 20
8229 161
8230 1
8231 181
8232 22
8233 142
8234 18
8235 144
8236 120
8237 25
8238 120
8239 1
8240 1
8241 18
8242 211
8243 1
8244 13
8245 84
8246 1
8247 30
8248 13
8249 146
8250 61
8251 21
8252 167
8253 3
8254 71
8255 205
8256 158
8257 97
8258 111
8259 138
8260 89
8261 167
8262 114
8263 119
8264 14
8265 6
8266 29
8267 83
8268 186
8269 167
8270 24
8271 51
8272 11
8273 1
8274 86
8275 30
8276 142
8277 18
8278 87
8279 1
8280 12
8281 6
8282 6
8283 12
8284 3
8285 177
8286 62
8287 120
8288 155
8289 154
8290 11
8291 43
8292 1
8293 44
8294 1
8295 209
8296 173
8297 24
8298 177
8299 134
8300 83
8301 171
8302 51
8303 1
8304 1
8305 30
8306 50
8307 1
8308 186
8309 27
8310 104
8311 181
8312 125
8313 29
8314 62
8315 114
8316 175
8317 52
8318 53
8319 12
8320 104
8321 12
8322 120
8323 1
8324 23
8325 51
8326 16
8327 108
8328 51
8329 12
8330 166
8331 30
8332 25
8333 26
8334 26
8335 185
8336 1
8337 79
8338 1
8339 117
8340 43
8341 152
8342 24
8343 166
8344 44
8345 95
8346 85
8347 53
8348 29
8349 1
8350 19
8351 1
8352 12
8353 25
8354 53
8355 133
8356 21
8357 9
8358 186
8359 33
8360 86
8361 177
8362 12
8363 96
8364 30
8365 214
8366 53
8367 103
8368 6
8369 97
8370 66
8371 65
8372 4
8373 50
8374 137
8375 21
8376 25
8377 23
8378 1
8379 216
8380 0
8381 30
8382 53
8383 6
8384 131
8385 176
8386 12
8387 132
8388 202
8389 1
8390 71
8391 26
8392 92
8393 30
8394 44
8395 68
8396 68
8397 120
8398 3
8399 102
8400 20
8401 23
8402 6
8403 26
8404 41
8405 108
8406 68
8407 104
8408 104
8409 1
8410 13
8411 9
8412 12
8413 1
8414 68
8415 173
8416 79
8417 112
8418 31
8419 159
8420 163
8421 213
8422 25
8423 46
8424 27
8425 120
8426 12
8427 11
8428 21
8429 41
8430 9
8431 131
8432 137
8433 31
8434 23
8435 87
8436 94
8437 25
8438 53
8439 146
8440 113
8441 166
8442 120
8443 62
8444 27
8445 4
8446 41
8447 169
8448 20
8449 43
8450 147
8451 202
8452 130
8453 121
8454 1
8455 4
8456 41
8457 44
8458 30
8459 167
8460 108
8461 1
8462 4
8463 118
8464 121
8465 21
8466 195
8467 1
8468 25
8469 26
8470 51
8471 0
8472 129
8473 12
8474 1
8475 89
8476 86
8477 53
8478 174
8479 55
8480 142
8481 1
8482 162
8483 114
8484 12
8485 179
8486 66
8487 12
8488 174
8489 83
8490 1
8491 71
8492 12
8493 174
8494 12
8495 145
8496 109
8497 30
8498 159
8499 120
8500 130
8501 97
8502 90
8503 186
8504 66
8505 31
8506 212
8507 149
8508 51
8509 218
8510 121
8511 3
8512 53
8513 105
8514 66
8515 164
8516 34
8517 188
8518 77
8519 12
8520 150
8521 56
8522 138
8523 140
8524 91
8525 30
8526 9
8527 200
8528 6
8529 71
8530 68
8531 50
8532 123
8533 42
8534 103
8535 31
8536 131
8537 1
8538 30
8539 68
8540 27
8541 134
8542 160
8543 176
8544 4
8545 126
8546 41
8547 38
8548 216
8549 50
8550 160
8551 90
8552 114
8553 131
8554 9
8555 9
8556 144
8557 20
8558 99
8559 50
8560 170
8561 12
8562 214
8563 44
8564 14
8565 113
8566 45
8567 27
8568 169
8569 82
8570 77
8571 26
8572 92
8573 209
8574 181
8575 6
8576 53
8577 12
8578 62
8579 69
8580 6
8581 186
8582 1
8583 102
8584 120
8585 40
8586 102
8587 30
8588 166
8589 119
8590 174
8591 199
8592 174
8593 30
8594 103
8595 120
8596 181
8597 157
8598 66
8599 67
8600 62
8601 180
8602 50
8603 186
8604 72
8605 0
8606 189
8607 12
8608 80
8609 167
8610 109
8611 87
8612 12
8613 109
8614 146
8615 27
8616 68
8617 87
8618 88
8619 30
8620 62
8621 23
8622 20
8623 26
8624 1
8625 186
8626 75
8627 113
8628 86
8629 60
8630 17
8631 44
8632 63
8633 166
8634 90
8635 6
8636 103
8637 46
8638 79
8639 99
8640 28
8641 211
8642 12
8643 89
8644 68
8645 26
8646 1
8647 207
8648 9
8649 197
8650 186
8651 43
8652 9
8653 122
8654 24
8655 6
8656 53
8657 21
8658 56
8659 90
8660 108
8661 183
8662 3
8663 156
8664 27
8665 203
8666 71
8667 75
8668 176
8669 163
8670 31
8671 167
8672 18
8673 132
8674 133
8675 89
8676 135
8677 187
8678 1
8679 99
8680 108
8681 114
8682 109
8683 23
8684 19
8685 86
8686 54
8687 29
8688 30
8689 210
8690 143
8691 173
8692 89
8693 30
8694 1
8695 50
8696 27
8697 9
8698 1
8699 37
8700 61
8701 3
8702 194
8703 6
8704 70
8705 179
8706 51
8707 12
8708 1
8709 62
8710 177
8711 29
8712 30
8713 203
8714 50
8715 150
8716 6
8717 5
8718 20
8719 80
8720 0
8721 44
8722 51
8723 24
8724 1
8725 103
8726 31
8727 169
8728 62
8729 105
8730 188
8731 140
8732 1
8733 18
8734 11
8735 79
8736 186
8737 199
8738 24
8739 0
8740 131
8741 20
8742 12
8743 1
8744 12
8745 62
8746 41
8747 25
8748 20
8749 1
8750 186
8751 6
8752 99
8753 68
8754 114
8755 31
8756 24
8757 68
8758 21
8759 51
8760 89
8761 23
8762 161
8763 140
8764 41
8765 99
8766 23
8767 21
8768 44
8769 1
8770 111
8771 10
8772 11
8773 36
8774 86
8775 11
8776 71
8777 173
8778 20
8779 89
8780 23
8781 4
8782 0
8783 102
8784 187
8785 25
8786 12
8787 1
8788 173
8789 68
8790 1
8791 133
8792 30
8793 23
8794 1
8795 12
8796 120
8797 104
8798 208
8799 79
8800 99
8801 207
8802 13
8803 62
8804 1
8805 138
8806 173
8807 164
8808 198
8809 146
8810 109
8811 1
8812 26
8813 97
8814 53
8815 20
8816 173
8817 166
8818 214
8819 31
8820 11
8821 19
8822 12
8823 190
8824 104
8825 8
8826 12
8827 88
8828 116
8829 41
8830 12
8831 23
8832 102
8833 191
8834 23
8835 12
8836 121
8837 23
8838 25
8839 24
8840 91
8841 71
8842 146
8843 133
8844 71
8845 190
8846 83
8847 139
8848 99
8849 56
8850 173
8851 1
8852 1
8853 29
8854 29
8855 12
8856 91
8857 122
8858 133
8859 103
8860 89
8861 89
8862 1
8863 9
8864 191
8865 18
8866 111
8867 101
8868 109
8869 41
8870 34
8871 44
8872 71
8873 89
8874 33
8875 6
8876 51
8877 131
8878 106
8879 20
8880 25
8881 48
8882 14
8883 42
8884 142
8885 18
8886 129
8887 41
8888 106
8889 51
8890 19
8891 146
8892 19
8893 117
8894 12
8895 201
8896 56
8897 64
8898 173
8899 12
8900 102
8901 138
8902 11
8903 114
8904 31
8905 89
8906 32
8907 40
8908 20
8909 186
8910 89
8911 61
8912 92
8913 50
8914 74
8915 21
8916 12
8917 9
8918 138
8919 42
8920 1
8921 144
8922 6
8923 59
8924 128
8925 42
8926 24
8927 34
8928 72
8929 21
8930 164
8931 86
8932 25
8933 103
8934 13
8935 95
8936 44
8937 114
8938 12
8939 102
8940 22
8941 113
8942 1
8943 71
8944 89
8945 184
8946 66
8947 41
8948 41
8949 24
8950 79
8951 103
8952 25
8953 13
8954 6
8955 190
8956 106
8957 88
8958 92
8959 163
8960 201
8961 103
8962 173
8963 62
8964 9
8965 167
8966 62
8967 140
8968 12
8969 44
8970 120
8971 12
8972 21
8973 68
8974 12
8975 79
8976 51
8977 44
8978 144
8979 13
8980 159
8981 155
8982 114
8983 44
8984 1
8985 133
8986 217
8987 31
8988 62
8989 112
8990 133
8991 0
8992 114
8993 102
8994 1
8995 71
8996 1
8997 34
8998 1
8999 4
9000 146
9001 17
9002 43
9003 12
9004 125
9005 13
9006 79
9007 47
9008 103
9009 27
9010 199
9011 9
9012 44
9013 1
9014 144
9015 26
9016 187
9017 81
9018 21
9019 4
9020 86
9021 25
9022 50
9023 103
9024 9
9025 72
9026 83
9027 62
9028 30
9029 12
9030 12
9031 80
9032 31
9033 65
9034 40
9035 11
9036 71
9037 109
9038 142
9039 11
9040 21
9041 197
9042 142
9043 71
9044 0
9045 38
9046 1
9047 25
9048 68
9049 53
9050 41
9051 17
9052 86
9053 182
9054 1
9055 1
9056 23
9057 56
9058 12
9059 21
9060 76
9061 17
9062 1
9063 99
9064 51
9065 1
9066 71
9067 1
9068 155
9069 51
9070 25
9071 160
9072 187
9073 31
9074 12
9075 114
9076 1
9077 25
9078 193
9079 1
9080 62
9081 20
9082 56
9083 145
9084 26
9085 10
9086 20
9087 12
9088 112
9089 1
9090 26
9091 1
9092 3
9093 129
9094 81
9095 1
9096 12
9097 30
9098 41
9099 11
9100 31
9101 11
9102 50
9103 1
9104 124
9105 199
9106 86
9107 23
9108 50
9109 25
9110 20
9111 134
9112 5
9113 122
9114 189
9115 155
9116 1
9117 1
9118 74
9119 6
9120 125
9121 50
9122 12
9123 155
9124 62
9125 37
9126 86
9127 88
9128 50
9129 94
9130 125
9131 155
9132 47
9133 36
9134 12
9135 90
9136 9
9137 75
9138 102
9139 9
9140 62
9141 62
9142 6
9143 1
9144 26
9145 12
9146 12
9147 26
9148 114
9149 112
9150 56
9151 41
9152 61
9153 101
9154 1
9155 213
9156 51
9157 31
9158 41
9159 9
9160 51
9161 44
9162 6
9163 51
9164 180
9165 177
9166 146
9167 12
9168 186
9169 147
9170 89
9171 71
9172 11
9173 12
9174 202
9175 155
9176 37
9177 9
9178 103
9179 1
9180 93
9181 104
9182 24
9183 95
9184 89
9185 183
9186 17
9187 75
9188 12
9189 13
9190 76
9191 7
9192 24
9193 202
9194 41
9195 73
9196 44
9197 130
9198 71
9199 23
9200 60
9201 77
9202 13
9203 148
9204 194
9205 27
9206 44
9207 91
9208 133
9209 44
9210 41
9211 31
9212 81
9213 39
9214 140
9215 115
9216 12
9217 64
9218 31
9219 12
9220 149
9221 99
9222 12
9223 66
9224 145
9225 47
9226 173
9227 68
9228 26
9229 79
9230 15
9231 173
9232 51
9233 115
9234 19
9235 135
9236 66
9237 41
9238 117
9239 163
9240 200
9241 186
9242 62
9243 51
9244 1
9245 1
9246 73
9247 31
9248 189
9249 16
9250 102
9251 120
9252 12
9253 115
9254 25
9255 109
9256 6
9257 23
9258 112
9259 1
9260 23
9261 135
9262 1
9263 12
9264 173
9265 144
9266 51
9267 26
9268 1
9269 41
9270 138
9271 9
9272 202
9273 14
9274 20
9275 92
9276 44
9277 20
9278 188
9279 68
9280 89
9281 57
9282 1
9283 111
9284 131
9285 19
9286 169
9287 26
9288 68
9289 146
9290 133
9291 130
9292 1
9293 1
9294 204
9295 17
9296 19
9297 154
9298 62
9299 11
9300 34
9301 26
9302 140
9303 27
9304 12
9305 120
9306 30
9307 131
9308 145
9309 102
9310 81
9311 9
9312 6
9313 103
9314 187
9315 21
9316 71
9317 71
9318 6
9319 9
9320 23
9321 107
9322 142
9323 94
9324 152
9325 171
9326 112
9327 26
9328 39
9329 7
9330 30
9331 42
9332 50
9333 21
9334 71
9335 81
9336 20
9337 96
9338 53
9339 146
9340 26
9341 138
9342 73
9343 1
9344 160
9345 31
9346 66
9347 112
9348 26
9349 89
9350 133
9351 27
9352 12
9353 122
9354 140
9355 83
9356 68
9357 179
9358 0
9359 47
9360 188
9361 91
9362 112
9363 195
9364 40
9365 12
9366 1
9367 20
9368 40
9369 1
9370 1
9371 103
9372 91
9373 95
9374 9
9375 12
9376 103
9377 89
9378 111
9379 108
9380 50
9381 24
9382 41
9383 45
9384 62
9385 26
9386 212
9387 145
9388 174
9389 45
9390 68
9391 6
9392 26
9393 200
9394 1
9395 129
9396 167
9397 51
9398 114
9399 71
9400 41
9401 1
9402 34
9403 6
9404 50
9405 38
9406 47
9407 160
9408 1
9409 45
9410 50
9411 79
9412 137
9413 70
9414 27
9415 50
9416 51
9417 24
9418 26
9419 41
9420 79
9421 12
9422 12
9423 27
9424 26
9425 19
9426 12
9427 1
9428 199
9429 41
9430 12
9431 97
9432 1
9433 25
9434 51
9435 28
9436 11
9437 1
9438 90
9439 13
9440 11
9441 57
9442 51
9443 141
9444 85
9445 51
9446 12
9447 138
9448 51
9449 209
9450 12
9451 11
9452 172
9453 9
9454 73
9455 4
9456 1
9457 136
9458 79
9459 20
9460 51
9461 142
9462 99
9463 6
9464 167
9465 46
9466 62
9467 47
9468 12
9469 50
9470 10
9471 12
9472 29
9473 28
9474 75
9475 195
9476 9
9477 154
9478 51
9479 51
9480 146
9481 177
9482 26
9483 11
9484 50
9485 102
9486 152
9487 81
9488 79
9489 6
9490 79
9491 133
9492 50
9493 41
9494 27
9495 174
9496 20
9497 91
9498 1
9499 20
9500 106
9501 51
9502 68
9503 12
9504 12
9505 4
9506 86
9507 146
9508 81
9509 45
9510 182
9511 9
9512 205
9513 133
9514 44
9515 47
9516 117
9517 78
9518 100
9519 159
9520 39
9521 81
9522 121
9523 68
9524 97
9525 1
9526 89
9527 188
9528 83
9529 41
9530 145
9531 138
9532 138
9533 6
9534 29
9535 66
9536 138
9537 11
9538 137
9539 1
9540 50
9541 12
9542 51
9543 6
9544 189
9545 41
9546 29
9547 24
9548 1
9549 117
9550 71
9551 23
9552 12
9553 12
9554 21
9555 23
9556 195
9557 23
9558 139
9559 59
9560 24
9561 40
9562 23
9563 121
9564 6
9565 71
9566 12
9567 112
9568 24
9569 62
9570 20
9571 138
9572 68
9573 44
9574 62
9575 51
9576 44
9577 26
9578 11
9579 145
9580 140
9581 26
9582 28
9583 25
9584 11
9585 146
9586 47
9587 71
9588 26
9589 25
9590 25
9591 105
9592 81
9593 168
9594 83
9595 12
9596 118
9597 25
9598 119
9599 139
9600 91
9601 146
9602 25
9603 23
9604 133
9605 50
9606 25
9607 6
9608 41
9609 6
9610 205
9611 118
9612 23
9613 1
9614 44
9615 0
9616 144
9617 31
9618 24
9619 6
9620 55
9621 12
9622 44
9623 173
9624 146
9625 12
9626 97
9627 25
9628 112
9629 0
9630 103
9631 131
9632 23
9633 24
9634 19
9635 198
9636 48
9637 1
9638 103
9639 114
9640 66
9641 30
9642 44
9643 145
9644 29
9645 146
9646 133
9647 115
9648 145
9649 79
9650 12
9651 134
9652 0
9653 56
9654 86
9655 1
9656 1
9657 9
9658 26
9659 130
9660 139
9661 19
9662 51
9663 158
9664 24
9665 142
9666 25
9667 20
9668 159
9669 23
9670 44
9671 1
9672 1
9673 41
9674 122
9675 112
9676 1
9677 56
9678 27
9679 151
9680 25
9681 41
9682 35
9683 24
9684 6
9685 25
9686 29
9687 1
9688 25
9689 89
9690 46
9691 20
9692 42
9693 1
9694 203
9695 20
9696 46
9697 145
9698 29
9699 23
9700 71
9701 68
9702 198
9703 184
9704 98
9705 191
9706 13
9707 1
9708 35
9709 211
9710 23
9711 188
9712 15
9713 19
9714 34
9715 44
9716 86
9717 50
9718 89
9719 198
9720 183
9721 98
9722 22
9723 29
9724 114
9725 133
9726 122
9727 1
9728 120
9729 29
9730 63
9731 31
9732 68
9733 75
9734 12
9735 122
9736 51
9737 2
9738 218
9739 101
9740 133
9741 19
9742 81
9743 19
9744 51
9745 89
9746 1
9747 70
9748 108
9749 92
9750 76
9751 63
9752 138
9753 20
9754 100
9755 188
9756 1
9757 51
9758 188
9759 21
9760 41
9761 29
9762 60
9763 0
9764 9
9765 129
9766 1
9767 103
9768 72
9769 26
9770 50
9771 74
9772 131
9773 50
9774 50
9775 4
9776 134
9777 210
9778 1
9779 29
9780 51
9781 5
9782 180
9783 100
9784 102
9785 61
9786 119
9787 75
9788 89
9789 1
9790 6
9791 9
9792 89
9793 47
9794 197
9795 180
9796 67
9797 27
9798 26
9799 53
9800 41
9801 177
9802 173
9803 41
9804 31
9805 26
9806 27
9807 6
9808 41
9809 14
9810 51
9811 199
9812 140
9813 23
9814 25
9815 1
9816 31
9817 103
9818 1
9819 50
9820 25
9821 24
9822 131
9823 130
9824 27
9825 1
9826 158
9827 171
9828 41
9829 103
9830 25
9831 31
9832 138
9833 85
9834 41
9835 175
9836 24
9837 27
9838 95
9839 114
9840 71
9841 20
9842 188
9843 8
9844 138
9845 20
9846 29
9847 89
9848 23
9849 103
9850 0
9851 12
9852 145
9853 53
9854 39
9855 0
9856 96
9857 23
9858 30
9859 60
9860 31
9861 47
9862 23
9863 29
9864 81
9865 109
9866 41
9867 30
9868 1
9869 121
9870 118
9871 120
9872 44
9873 49
9874 75
9875 25
9876 25
9877 1
9878 112
9879 44
9880 111
9881 1
9882 122
9883 195
9884 188
9885 6
9886 117
9887 136
9888 20
9889 74
9890 161
9891 1
9892 30
9893 173
9894 34
9895 87
9896 60
9897 51
9898 6
9899 56
9900 123
9901 86
9902 3
9903 159
9904 126
9905 118
9906 12
9907 44
9908 183
9909 68
9910 31
9911 0
9912 131
9913 114
9914 73
9915 29
9916 103
9917 12
9918 84
9919 56
9920 41
9921 84
9922 75
9923 12
9924 12
9925 19
9926 21
9927 30
9928 139
9929 6
9930 13
9931 68
9932 30
9933 12
9934 23
9935 50
9936 173
9937 146
9938 1
9939 81
9940 142
9941 25
9942 92
9943 3
9944 12
9945 12
9946 195
9947 182
9948 199
9949 1
9950 50
9951 30
9952 81
9953 129
9954 47
9955 75
9956 146
9957 75
9958 29
9959 12
9960 31
9961 103
9962 11
9963 208
9964 12
9965 189
9966 139
9967 199
9968 1
9969 12
9970 41
9971 115
9972 188
9973 160
9974 6
9975 1
9976 51
9977 74
9978 116
9979 1
9980 71
9981 148
9982 25
9983 7
9984 44
9985 31
9986 41
9987 9
9988 52
9989 35
9990 26
9991 4
9992 125
9993 26
9994 111
9995 89
9996 124
9997 131
9998 26
9999 131
10000 1
10001 122
10002 109
10003 26
10004 17
10005 92
10006 12
10007 12
10008 79
10009 114
10010 50
10011 47
10012 13
10013 99
10014 27
10015 164
10016 217
10017 76
10018 162
10019 128
10020 113
10021 51
10022 31
10023 86
10024 131
10025 162
10026 177
10027 169
10028 50
10029 97
10030 144
10031 19
10032 47
10033 25
10034 112
10035 85
10036 141
10037 12
10038 13
10039 71
10040 20
10041 162
10042 97
10043 122
10044 1
10045 20
10046 142
10047 173
10048 90
10049 41
10050 21
10051 30
10052 144
10053 53
10054 184
10055 30
10056 1
10057 85
10058 121
10059 145
10060 81
10061 195
10062 1
10063 30
10064 131
10065 29
10066 81
10067 5
10068 103
10069 189
10070 41
10071 171
10072 109
10073 26
10074 27
10075 103
10076 12
10077 117
10078 37
10079 12
10080 12
10081 30
10082 9
10083 44
10084 44
10085 79
10086 167
10087 79
10088 91
10089 104
10090 103
10091 31
10092 1
10093 46
10094 74
10095 29
10096 139
10097 29
10098 15
10099 168
10100 1
10101 42
10102 0
10103 24
10104 25
10105 81
10106 6
10107 202
10108 108
10109 173
10110 127
10111 46
10112 91
10113 133
10114 44
10115 31
10116 20
10117 107
10118 51
10119 30
10120 27
10121 102
10122 44
10123 62
10124 174
10125 23
10126 47
10127 12
10128 1
10129 68
10130 131
10131 69
10132 89
10133 159
10134 2
10135 26
10136 42
10137 81
10138 2
10139 41
10140 190
10141 12
10142 41
10143 174
10144 41
10145 12
10146 176
10147 94
10148 31
10149 81
10150 6
10151 194
10152 3
10153 53
10154 55
10155 1
10156 26
10157 4
10158 148
10159 1
10160 137
10161 85
10162 6
10163 142
10164 41
10165 24
10166 12
10167 1
10168 13
10169 108
10170 24
10171 128
10172 69
10173 23
10174 30
10175 1
10176 12
10177 183
10178 103
10179 47
10180 25
10181 30
10182 1
10183 1
10184 20
10185 69
10186 25
10187 146
10188 30
10189 31
10190 85
10191 79
10192 96
10193 12
10194 1
10195 92
10196 162
10197 117
10198 6
10199 68
10200 99
10201 81
10202 54
10203 12
10204 89
10205 173
10206 1
10207 70
10208 1
10209 136
10210 11
10211 103
10212 41
10213 12
10214 12
10215 120
10216 71
10217 12
10218 81
10219 25
10220 71
10221 166
10222 30
10223 117
10224 12
10225 75
10226 131
10227 25
10228 92
10229 66
10230 131
10231 56
10232 71
10233 181
10234 26
10235 1
10236 12
10237 30
10238 21
10239 71
10240 193
10241 20
10242 188
10243 41
10244 155
10245 173
10246 19
10247 68
10248 105
10249 11
10250 29
10251 179
10252 99
10253 86
10254 124
10255 209
10256 174
10257 31
10258 51
10259 53
10260 107
10261 41
10262 197
10263 142
10264 183
10265 12
10266 98
10267 63
10268 87
10269 120
10270 36
10271 1
10272 31
10273 5
10274 147
10275 105
10276 25
10277 68
10278 1
10279 1
10280 17
10281 129
10282 36
10283 122
10284 43
10285 142
10286 142
10287 18
10288 44
10289 120
10290 4
10291 41
10292 202
10293 20
10294 68
10295 7
10296 79
10297 159
10298 56
10299 6
10300 112
10301 49
10302 1
10303 74
10304 53
10305 30
10306 12
10307 25
10308 1
10309 136
10310 30
10311 41
10312 18
10313 25
10314 87
10315 71
10316 159
10317 183
10318 59
10319 130
10320 106
10321 162
10322 154
10323 188
10324 51
10325 11
10326 80
10327 128
10328 122
10329 11
10330 31
10331 71
10332 103
10333 12
10334 89
10335 167
10336 131
10337 137
10338 12
10339 26
10340 26
10341 79
10342 12
10343 67
10344 139
10345 81
10346 12
10347 51
10348 3
10349 1
10350 12
10351 190
10352 154
10353 51
10354 165
10355 21
10356 4
10357 144
10358 186
10359 83
10360 81
10361 92
10362 173
10363 23
10364 89
10365 1
10366 50
10367 30
10368 19
10369 18
10370 33
10371 103
10372 85
10373 7
10374 20
10375 129
10376 92
10377 131
10378 174
10379 121
10380 26
10381 9
10382 131
10383 1
10384 61
10385 25
10386 89
10387 12
10388 12
10389 73
10390 183
10391 40
10392 205
10393 1
10394 23
10395 75
10396 186
10397 56
10398 207
10399 68
10400 30
10401 24
10402 1
10403 144
10404 129
10405 7
10406 168
10407 119
10408 127
10409 81
10410 188
10411 11
10412 104
10413 197
10414 6
10415 94
10416 68
10417 31
10418 99
10419 1
10420 51
10421 23
10422 74
10423 188
10424 159
10425 188
10426 7
10427 198
10428 14
10429 75
10430 87
10431 145
10432 30
10433 174
10434 53
10435 162
10436 23
10437 174
10438 139
10439 12
10440 145
10441 12
10442 71
10443 21
10444 89
10445 25
10446 50
10447 155
10448 202
10449 155
10450 44
10451 31
10452 132
10453 30
10454 144
10455 146
10456 53
10457 79
10458 17
10459 152
10460 144
10461 12
10462 62
10463 75
10464 45
10465 51
10466 23
10467 71
10468 21
10469 151
10470 29
10471 104
10472 104
10473 1
10474 133
10475 23
10476 1
10477 146
10478 41
10479 23
10480 40
10481 20
10482 31
10483 62
10484 0
10485 138
10486 29
10487 198
10488 41
10489 184
10490 166
10491 1
10492 171
10493 28
10494 43
10495 33
10496 202
10497 62
10498 26
10499 8
10500 21
10501 27
10502 6
10503 50
10504 110
10505 26
10506 26
10507 151
10508 0
10509 12
10510 168
10511 205
10512 56
10513 1
10514 27
10515 113
10516 9
10517 31
10518 159
10519 6
10520 114
10521 138
10522 7
10523 162
10524 173
10525 30
10526 30
10527 164
10528 13
10529 24
10530 1
10531 26
10532 26
10533 56
10534 12
10535 131
10536 108
10537 50
10538 1
10539 1
10540 209
10541 53
10542 29
10543 148
10544 145
10545 12
10546 79
10547 32
10548 86
10549 62
10550 75
10551 41
10552 29
10553 30
10554 73
10555 53
10556 12
10557 25
10558 50
10559 180
10560 186
10561 133
10562 114
10563 12
10564 1
10565 29
10566 56
10567 72
10568 73
10569 89
10570 146
10571 1
10572 87
10573 21
10574 6
10575 32
10576 71
10577 27
10578 12
10579 59
10580 89
10581 207
10582 25
10583 1
10584 9
10585 16
10586 186
10587 158
10588 8
10589 1
10590 103
10591 31
10592 60
10593 174
10594 12
10595 108
10596 81
10597 120
10598 1
10599 20
10600 128
10601 131
10602 117
10603 47
10604 131
10605 129
10606 161
10607 50
10608 23
10609 9
10610 164
10611 12
10612 19
10613 25
10614 150
10615 1
10616 12
10617 109
10618 89
10619 1
10620 21
10621 50
10622 188
10623 179
10624 18
10625 41
10626 44
10627 27
10628 156
10629 179
10630 12
10631 56
10632 173
10633 45
10634 54
10635 0
10636 154
10637 212
10638 122
10639 159
10640 50
10641 23
10642 142
10643 12
10644 24
10645 12
10646 146
10647 9
10648 1
10649 114
10650 12
10651 89
10652 25
10653 12
10654 1
10655 62
10656 66
10657 3
10658 187
10659 56
10660 22
10661 12
10662 38
10663 76
10664 173
10665 79
10666 57
10667 50
10668 95
10669 62
10670 12
10671 50
10672 51
10673 80
10674 68
10675 188
10676 177
10677 89
10678 66
10679 1
10680 149
10681 1
10682 109
10683 41
10684 14
10685 41
10686 1
10687 87
10688 23
10689 55
10690 114
10691 89
10692 2
10693 144
10694 12
10695 62
10696 179
10697 29
10698 20
10699 196
10700 108
10701 215
10702 133
10703 24
10704 174
10705 191
10706 106
10707 103
10708 1
10709 51
10710 163
10711 175
10712 21
10713 121
10714 141
10715 26
10716 1
10717 33
10718 53
10719 187
10720 20
10721 13
10722 91
10723 146
10724 23
10725 80
10726 68
10727 102
10728 31
10729 50
10730 74
10731 39
10732 1
10733 19
10734 12
10735 197
10736 51
10737 104
10738 30
10739 89
10740 173
10741 63
10742 108
10743 130
10744 31
10745 165
10746 51
10747 3
10748 176
10749 12
10750 25
10751 25
10752 4
10753 41
10754 49
10755 146
10756 96
10757 71
10758 23
10759 7
10760 39
10761 59
10762 155
10763 89
10764 9
10765 31
10766 90
10767 79
10768 173
10769 197
10770 6
10771 62
10772 66
10773 145
10774 51
10775 131
10776 142
10777 100
10778 109
10779 111
10780 1
10781 155
10782 23
10783 12
10784 8
10785 23
10786 102
10787 30
10788 89
10789 6
10790 134
10791 94
10792 1
10793 104
10794 50
10795 89
10796 50
10797 167
10798 68
10799 1
10800 99
10801 86
10802 20
10803 1
10804 197
10805 1
10806 41
10807 18
10808 1
10809 12
10810 103
10811 20
10812 80
10813 12
10814 3
10815 33
10816 39
10817 10
10818 0
10819 144
10820 80
10821 145
10822 12
10823 1
10824 135
10825 99
10826 99
10827 20
10828 62
10829 41
10830 0
10831 13
10832 41
10833 134
10834 11
10835 27
10836 27
10837 1
10838 175
10839 26
10840 71
10841 4
10842 21
10843 148
10844 68
10845 40
10846 7
10847 40
10848 173
10849 28
10850 12
10851 9
10852 67
10853 197
10854 0
10855 117
10856 1
10857 113
10858 24
10859 43
10860 9
10861 87
10862 6
10863 12
10864 30
10865 12
10866 190
10867 74
10868 44
10869 26
10870 12
10871 1
10872 1
10873 104
10874 9
10875 51
10876 4
10877 109
10878 74
10879 1
10880 95
10881 42
10882 171
10883 12
10884 184
10885 0
10886 12
10887 71
10888 1
10889 40
10890 12
10891 144
10892 3
10893 23
10894 89
10895 62
10896 131
10897 136
10898 84
10899 51
10900 1
10901 12
10902 41
10903 92
10904 12
10905 1
10906 12
10907 122
10908 12
10909 51
10910 71
10911 71
10912 175
10913 155
10914 109
10915 109
10916 12
10917 61
10918 12
10919 186
10920 1
10921 112
10922 19
10923 107
10924 129
10925 129
10926 131
10927 211
10928 138
10929 1
10930 90
10931 35
10932 133
10933 92
10934 142
10935 144
10936 89
10937 23
10938 134
10939 6
10940 136
10941 42
10942 169
10943 31
10944 41
10945 90
10946 68
10947 12
10948 1
10949 109
10950 112
10951 206
10952 1
10953 4
10954 112
10955 26
10956 71
10957 80
10958 188
10959 53
10960 41
10961 103
10962 4
10963 180
10964 11
10965 62
10966 142
10967 22
10968 1
10969 1
10970 92
10971 1
10972 145
10973 95
10974 47
10975 73
10976 25
10977 128
10978 117
10979 112
10980 92
10981 12
10982 13
10983 12
10984 71
10985 201
10986 56
10987 13
10988 103
10989 9
10990 44
10991 41
10992 39
10993 114
10994 29
10995 34
10996 30
10997 130
10998 71
10999 45
11000 21
11001 198
11002 26
11003 30
11004 81
11005 20
11006 142
11007 49
11008 44
11009 194
11010 20
11011 106
11012 129
11013 155
11014 100
11015 102
11016 55
11017 176
11018 1
11019 114
11020 19
11021 21
11022 60
11023 1
11024 68
11025 89
11026 31
11027 66
11028 47
11029 212
11030 1
11031 20
11032 30
11033 1
11034 24
11035 12
11036 140
11037 51
11038 53
11039 184
11040 52
11041 19
11042 99
11043 108
11044 125
11045 20
11046 100
11047 28
11048 1
11049 11
11050 126
11051 24
11052 31
11053 108
11054 13
11055 211
11056 92
11057 50
11058 122
11059 96
11060 71
11061 11
11062 9
11063 51
11064 153
11065 25
11066 125
11067 12
11068 81
11069 20
11070 62
11071 163
11072 28
11073 105
11074 50
11075 19
11076 53
11077 149
11078 1
11079 41
11080 112
11081 173
11082 47
11083 93
11084 41
11085 125
11086 18
11087 114
11088 33
11089 53
11090 9
11091 1
11092 189
11093 144
11094 13
11095 102
11096 12
11097 31
11098 50
11099 26
11100 62
11101 89
11102 50
11103 30
11104 125
11105 157
11106 66
11107 204
11108 16
11109 25
11110 23
11111 37
11112 125
11113 30
11114 195
11115 26
11116 112
11117 89
11118 44
11119 107
11120 144
11121 25
11122 88
11123 51
11124 145
11125 31
11126 27
11127 24
11128 26
11129 71
11130 163
11131 19
11132 159
11133 41
11134 2
11135 183
11136 24
11137 9
11138 13
11139 0
11140 9
11141 75
11142 171
11143 79
11144 194
11145 15
11146 144
11147 146
11148 90
11149 142
11150 28
11151 31
11152 188
11153 29
11154 146
11155 98
11156 2
11157 0
11158 163
11159 1
11160 131
11161 1
11162 138
11163 12
11164 25
11165 1
11166 96
11167 20
11168 169
11169 21
11170 101
11171 26
11172 50
11173 41
11174 1
11175 0
11176 12
11177 99
11178 137
11179 108
11180 23
11181 117
11182 62
11183 41
11184 73
11185 163
11186 2
11187 118
11188 145
11189 89
11190 7
11191 24
11192 47
11193 183
11194 29
11195 71
11196 140
11197 23
11198 26
11199 6
11200 91
11201 199
11202 1
11203 13
11204 11
11205 1
11206 173
11207 25
11208 12
11209 195
11210 30
11211 6
11212 20
11213 0
11214 34
11215 78
11216 88
11217 6
11218 145
11219 11
11220 12
11221 26
11222 191
11223 86
11224 13
11225 106
11226 117
11227 66
11228 71
11229 62
11230 111
11231 109
11232 152
11233 184
11234 89
11235 195
11236 41
11237 25
11238 145
11239 7
11240 51
11241 198
11242 26
11243 114
11244 1
11245 71
11246 139
11247 28
11248 24
11249 63
11250 68
11251 1
11252 20
11253 117
11254 51
11255 71
11256 12
11257 1
11258 51
11259 30
11260 158
11261 20
11262 23
11263 24
11264 41
11265 155
11266 81
11267 0
11268 202
11269 50
11270 68
11271 110
11272 6
11273 199
11274 1
11275 1
11276 1
11277 163
11278 51
11279 12
11280 186
11281 12
11282 91
11283 88
11284 98
11285 133
11286 89
11287 94
11288 4
11289 162
11290 104
11291 25
11292 12
11293 6
11294 198
11295 20
11296 81
11297 23
11298 203
11299 12
11300 102
11301 81
11302 25
11303 128
11304 11
11305 109
11306 26
11307 162
11308 201
11309 67
11310 173
11311 23
11312 1
11313 12
11314 23
11315 176
11316 29
11317 13
11318 23
11319 0
11320 1
11321 47
11322 44
11323 16
11324 80
11325 26
11326 27
11327 138
11328 154
11329 45
11330 86
11331 62
11332 12
11333 41
11334 130
11335 8
11336 1
11337 62
11338 207
11339 30
11340 1
11341 89
11342 1
11343 56
11344 137
11345 136
11346 51
11347 25
11348 88
11349 1
11350 23
11351 108
11352 11
11353 20
11354 59
11355 23
11356 41
11357 138
11358 31
11359 71
11360 26
11361 12
11362 31
11363 41
11364 44
11365 202
11366 20
11367 19
11368 12
11369 110
11370 62
11371 81
11372 39
11373 73
11374 162
11375 9
11376 6
11377 89
11378 1
11379 9
11380 164
11381 140
11382 203
11383 1
11384 6
11385 50
11386 31
11387 12
11388 41
11389 173
11390 20
11391 21
11392 177
11393 80
11394 105
11395 62
11396 129
11397 39
11398 12
11399 89
11400 64
11401 24
11402 89
11403 85
11404 59
11405 90
11406 12
11407 9
11408 9
11409 12
11410 79
11411 41
11412 41
11413 41
11414 1
11415 1
11416 23
11417 47
11418 195
11419 75
11420 102
11421 24
11422 1
11423 130
11424 60
11425 120
11426 50
11427 0
11428 12
11429 43
11430 19
11431 103
11432 206
11433 31
11434 144
11435 79
11436 47
11437 184
11438 42
11439 125
11440 12
11441 146
11442 12
11443 9
11444 1
11445 176
11446 26
11447 51
11448 33
11449 23
11450 24
11451 29
11452 41
11453 26
11454 27
11455 26
11456 44
11457 51
11458 129
11459 145
11460 16
11461 31
11462 8
11463 50
11464 26
11465 123
11466 75
11467 1
11468 20
11469 173
11470 44
11471 134
11472 91
11473 66
11474 1
11475 6
11476 25
11477 27
11478 14
11479 160
11480 29
11481 62
11482 137
11483 51
11484 81
11485 1
11486 12
11487 23
11488 27
11489 146
11490 19
11491 20
11492 172
11493 6
11494 110
11495 155
11496 40
11497 27
11498 19
11499 31
11500 102
11501 146
11502 73
11503 1
11504 24
11505 27
11506 92
11507 130
11508 167
11509 1
11510 62
11511 188
11512 102
11513 44
11514 26
11515 72
11516 89
11517 1
11518 4
11519 90
11520 1
11521 12
11522 51
11523 26
11524 62
11525 99
11526 11
11527 26
11528 129
11529 41
11530 144
11531 137
11532 140
11533 27
11534 41
11535 159
11536 4
11537 81
11538 83
11539 89
11540 209
11541 98
11542 12
11543 162
11544 66
11545 25
11546 12
11547 51
11548 57
11549 42
11550 44
11551 150
11552 50
11553 20
11554 26
11555 50
11556 11
11557 144
11558 125
11559 62
11560 1
11561 68
11562 71
11563 72
11564 2
11565 173
11566 199
11567 9
11568 28
11569 26
11570 195
11571 27
11572 12
11573 68
11574 62
11575 75
11576 25
11577 75
11578 1
11579 129
11580 184
11581 125
11582 172
11583 83
11584 30
11585 1
11586 26
11587 112
11588 195
11589 110
11590 6
11591 28
11592 51
11593 68
11594 41
11595 103
11596 26
11597 44
11598 177
11599 1
11600 75
11601 66
11602 62
11603 159
11604 187
11605 50
11606 8
11607 28
11608 41
11609 66
11610 138
11611 11
11612 1
11613 135
11614 44
11615 50
11616 12
11617 31
11618 131
11619 81
11620 142
11621 71
11622 21
11623 46
11624 18
11625 4
11626 0
11627 89
11628 66
11629 10
11630 51
11631 125
11632 176
11633 81
11634 125
11635 83
11636 77
11637 27
11638 2
11639 159
11640 147
11641 198
11642 73
11643 50
11644 16
11645 83
11646 11
11647 128
11648 122
11649 43
11650 19
11651 66
11652 15
11653 0
11654 97
11655 9
11656 42
11657 218
11658 20
11659 47
11660 11
11661 51
11662 157
11663 41
11664 11
11665 1
11666 163
11667 29
11668 185
11669 20
11670 36
11671 27
11672 12
11673 12
11674 29
11675 114
11676 40
11677 25
11678 12
11679 31
11680 146
11681 41
11682 31
11683 26
11684 44
11685 80
11686 20
11687 41
11688 0
11689 122
11690 112
11691 146
11692 74
11693 25
11694 51
11695 188
11696 26
11697 11
11698 131
11699 79
11700 107
11701 21
11702 45
11703 144
11704 120
11705 21
11706 56
11707 166
11708 140
11709 68
11710 144
11711 73
11712 13
11713 24
11714 144
11715 75
11716 112
11717 91
11718 33
11719 137
11720 155
11721 89
11722 103
11723 20
11724 125
11725 23
11726 1
11727 175
11728 140
11729 186
11730 53
11731 45
11732 146
11733 184
11734 145
11735 31
11736 13
11737 41
11738 176
11739 30
11740 50
11741 81
11742 62
11743 0
11744 75
11745 39
11746 30
11747 134
11748 145
11749 31
11750 1
11751 3
11752 6
11753 103
11754 120
11755 2
11756 1
11757 173
11758 122
11759 2
11760 1
11761 41
11762 176
11763 20
11764 104
11765 41
11766 6
11767 166
11768 20
11769 176
11770 89
11771 26
11772 26
11773 63
11774 159
11775 20
11776 40
11777 9
11778 108
11779 12
11780 30
11781 173
11782 1
11783 21
11784 122
11785 47
11786 86
11787 112
11788 1
11789 79
11790 19
11791 79
11792 51
11793 4
11794 71
11795 41
11796 81
11797 135
11798 211
11799 51
11800 186
11801 146
11802 1
11803 25
11804 114
11805 1
11806 62
11807 183
11808 21
11809 1
11810 117
11811 10
11812 63
11813 4
11814 73
11815 1
11816 23
11817 98
11818 202
11819 27
11820 183
11821 35
11822 41
11823 51
11824 12
11825 47
11826 140
11827 74
11828 142
11829 115
11830 108
11831 173
11832 30
11833 145
11834 6
11835 1
11836 11
11837 41
11838 20
11839 50
11840 21
11841 75
11842 44
11843 97
11844 12
11845 103
11846 157
11847 147
11848 12
11849 79
11850 12
11851 41
11852 12
11853 29
11854 173
11855 21
11856 114
11857 20
11858 41
11859 21
11860 89
11861 68
11862 122
11863 12
11864 180
11865 1
11866 75
11867 10
11868 49
11869 71
11870 73
11871 120
11872 121
11873 114
11874 12
11875 44
11876 12
11877 63
11878 25
11879 188
11880 41
11881 31
11882 51
11883 143
11884 53
11885 125
11886 78
11887 166
11888 45
11889 71
11890 31
11891 79
11892 11
11893 31
11894 1
11895 133
11896 208
11897 70
11898 6
11899 25
11900 27
11901 178
11902 12
11903 46
11904 137
11905 0
11906 0
11907 140
11908 12
11909 25
11910 140
11911 63
11912 97
11913 12
11914 16
11915 13
11916 21
11917 188
11918 68
11919 41
11920 71
11921 197
11922 31
11923 92
11924 71
11925 68
11926 6
11927 53
11928 121
11929 29
11930 81
11931 169
11932 50
11933 98
11934 81
11935 56
11936 7
11937 133
11938 1
11939 41
11940 26
11941 41
11942 53
11943 184
11944 1
11945 25
11946 41
11947 1
11948 1
11949 71
11950 121
11951 19
11952 12
11953 27
11954 51
11955 20
11956 129
11957 98
11958 9
11959 83
11960 1
11961 35
11962 22
11963 200
11964 26
11965 103
11966 11
11967 62
11968 114
11969 29
11970 11
11971 31
11972 20
11973 52
11974 41
11975 9
11976 30
11977 12
11978 1
11979 52
11980 27
11981 11
11982 95
11983 11
11984 23
11985 13
11986 179
11987 12
11988 68
11989 89
11990 30
11991 87
11992 117
11993 108
11994 199
11995 12
11996 145
11997 13
11998 51
11999 142
12000 26
12001 145
12002 56
12003 92
12004 3
12005 30
12006 81
12007 12
12008 84
12009 141
12010 131
12011 12
12012 103
12013 24
12014 9
12015 47
12016 71
12017 6
12018 138
12019 1
12020 137
12021 113
12022 146
12023 41
12024 185
12025 75
12026 12
12027 1
12028 21
12029 169
12030 30
12031 18
12032 73
12033 23
12034 56
12035 12
12036 183
12037 125
12038 41
12039 25
12040 146
12041 11
12042 34
12043 81
12044 2
12045 29
12046 23
12047 39
12048 1
12049 30
12050 26
12051 9
12052 19
12053 50
12054 13
12055 51
12056 12
12057 81
12058 12
12059 167
12060 1
12061 141
12062 1
12063 24
12064 99
12065 71
12066 1
12067 99
12068 126
12069 56
12070 66
12071 49
12072 12
12073 34
12074 26
12075 184
12076 145
12077 1
12078 177
12079 140
12080 23
12081 145
12082 85
12083 23
12084 159
12085 166
12086 41
12087 18
12088 62
12089 13
12090 75
12091 91
12092 51
12093 1
12094 20
12095 25
12096 184
12097 61
12098 66
12099 0
12100 1
12101 11
12102 30
12103 68
12104 138
12105 41
12106 142
12107 1
12108 30
12109 17
12110 144
12111 21
12112 132
12113 173
12114 18
12115 97
12116 1
12117 130
12118 95
12119 71
12120 68
12121 85
12122 114
12123 12
12124 86
12125 152
12126 1
12127 89
12128 1
12129 30
12130 20
12131 117
12132 41
12133 41
12134 160
12135 68
12136 12
12137 12
12138 50
12139 2
12140 50
12141 102
12142 174
12143 27
12144 6
12145 12
12146 146
12147 28
12148 71
12149 1
12150 117
12151 139
12152 89
12153 1
12154 20
12155 6
12156 144
12157 160
12158 24
12159 12
12160 85
12161 12
12162 86
12163 102
12164 158
12165 107
12166 1
12167 47
12168 183
12169 46
12170 6
12171 30
12172 71
12173 27
12174 29
12175 20
12176 127
12177 158
12178 151
12179 21
12180 119
12181 44
12182 89
12183 26
12184 130
12185 79
12186 21
12187 6
12188 163
12189 153
12190 60
12191 1
12192 144
12193 184
12194 213
12195 12
12196 46
12197 66
12198 18
12199 103
12200 140
12201 1
12202 26
12203 146
12204 56
12205 73
12206 20
12207 41
12208 102
12209 173
12210 21
12211 20
12212 89
12213 62
12214 44
12215 23
12216 122
12217 25
12218 24
12219 89
12220 63
12221 21
12222 97
12223 186
12224 6
12225 1
12226 29
12227 41
12228 21
12229 184
12230 25
12231 93
12232 122
12233 41
12234 161
12235 1
12236 20
12237 138
12238 173
12239 56
12240 12
12241 9
12242 182
12243 1
12244 11
12245 85
12246 212
12247 68
12248 114
12249 138
12250 12
12251 17
12252 82
12253 12
12254 0
12255 161
12256 53
12257 30
12258 86
12259 99
12260 69
12261 188
12262 173
12263 93
12264 130
12265 79
12266 43
12267 51
12268 6
12269 103
12270 1
12271 173
12272 164
12273 163
12274 174
12275 49
12276 51
12277 167
12278 202
12279 100
12280 12
12281 119
12282 197
12283 131
12284 122
12285 1
12286 51
12287 136
12288 117
12289 25
12290 9
12291 138
12292 71
12293 134
12294 179
12295 56
12296 154
12297 61
12298 87
12299 3
12300 12
12301 155
12302 132
12303 83
12304 107
12305 26
12306 166
12307 34
12308 11
12309 89
12310 32
12311 41
12312 53
12313 25
12314 61
12315 6
12316 21
12317 0
12318 6
12319 144
12320 30
12321 12
12322 0
12323 69
12324 51
12325 209
12326 209
12327 25
12328 1
12329 26
12330 6
12331 1
12332 6
12333 86
12334 218
12335 127
12336 183
12337 12
12338 50
12339 25
12340 41
12341 49
12342 92
12343 9
12344 1
12345 100
12346 188
12347 183
12348 174
12349 54
12350 26
12351 7
12352 153
12353 12
12354 44
12355 89
12356 160
12357 29
12358 194
12359 31
12360 68
12361 1
12362 50
12363 24
12364 133
12365 19
12366 188
12367 64
12368 197
12369 1
12370 0
12371 18
12372 35
12373 12
12374 79
12375 15
12376 195
12377 23
12378 131
12379 12
12380 21
12381 26
12382 7
12383 9
12384 146
12385 107
12386 211
12387 143
12388 12
12389 89
12390 173
12391 138
12392 159
12393 137
12394 23
12395 1
12396 27
12397 81
12398 215
12399 183
12400 134
12401 174
12402 20
12403 1
12404 30
12405 19
12406 63
12407 0
12408 1
12409 1
12410 62
12411 160
12412 173
12413 98
12414 72
12415 30
12416 193
12417 30
12418 43
12419 64
12420 12
12421 1
12422 118
12423 51
12424 190
12425 20
12426 21
12427 132
12428 114
12429 122
12430 129
12431 172
12432 90
12433 26
12434 29
12435 44
12436 30
12437 23
12438 79
12439 20
12440 99
12441 193
12442 78
12443 80
12444 53
12445 24
12446 51
12447 26
12448 30
12449 1
12450 77
12451 13
12452 19
12453 1
12454 1
12455 211
12456 89
12457 27
12458 217
12459 79
12460 30
12461 104
12462 104
12463 187
12464 117
12465 109
12466 30
12467 142
12468 74
12469 152
12470 166
12471 53
12472 75
12473 23
12474 163
12475 30
12476 114
12477 27
12478 21
12479 168
12480 4
12481 90
12482 50
12483 174
12484 200
12485 120
12486 10
12487 1
12488 1
12489 138
12490 71
12491 3
12492 206
12493 145
12494 12
12495 210
12496 117
12497 62
12498 105
12499 41
12500 27
12501 27
12502 134
12503 44
12504 46
12505 4
12506 12
12507 29
12508 23
12509 166
12510 50
12511 89
12512 89
12513 1
12514 20
12515 41
12516 166
12517 12
12518 60
12519 193
12520 126
12521 119
12522 186
12523 56
12524 114
12525 8
12526 142
12527 24
12528 56
12529 12
12530 1
12531 26
12532 89
12533 114
12534 23
12535 26
12536 158
12537 89
12538 30
12539 130
12540 53
12541 110
12542 53
12543 130
12544 17
12545 164
12546 68
12547 126
12548 51
12549 23
12550 6
12551 95
12552 4
12553 155
12554 39
12555 86
12556 6
12557 164
12558 12
12559 107
12560 216
12561 51
12562 1
12563 129
12564 51
12565 1
12566 51
12567 26
12568 26
12569 205
12570 87
12571 20
12572 56
12573 68
12574 92
12575 71
12576 104
12577 117
12578 173
12579 12
12580 1
12581 67
12582 32
12583 68
12584 144
12585 2
12586 144
12587 31
12588 158
12589 12
12590 89
12591 145
12592 1
12593 142
12594 0
12595 77
12596 210
12597 0
12598 68
12599 145
12600 145
12601 23
12602 12
12603 168
12604 23
12605 12
12606 97
12607 18
12608 50
12609 56
12610 25
12611 121
12612 50
12613 38
12614 41
12615 68
12616 1
12617 4
12618 62
12619 6
12620 16
12621 74
12622 33
12623 23
12624 10
12625 92
12626 20
12627 12
12628 31
12629 107
12630 86
12631 155
12632 35
12633 139
12634 1
12635 30
12636 140
12637 0
12638 1
12639 144
12640 23
12641 50
12642 34
12643 89
12644 21
12645 26
12646 159
12647 159
12648 12
12649 0
12650 134
12651 70
12652 179
12653 109
12654 12
12655 103
12656 41
12657 80
12658 22
12659 191
12660 135
12661 1
12662 25
12663 81
12664 7
12665 1
12666 53
12667 128
12668 46
12669 70
12670 89
12671 119
12672 3
12673 1
12674 21
12675 145
12676 27
12677 12
12678 1
12679 109
12680 56
12681 6
12682 62
12683 0
12684 30
12685 159
12686 12
12687 179
12688 34
12689 199
12690 25
12691 145
12692 31
12693 51
12694 73
12695 28
12696 89
12697 31
12698 30
12699 29
12700 104
12701 41
12702 51
12703 1
12704 1
12705 99
12706 92
12707 174
12708 27
12709 169
12710 26
12711 56
12712 6
12713 119
12714 12
12715 12
12716 146
12717 71
12718 12
12719 31
12720 83
12721 9
12722 44
12723 1
12724 29
12725 41
12726 89
12727 12
12728 12
12729 169
12730 1
12731 203
12732 12
12733 7
12734 61
12735 189
12736 193
12737 145
12738 62
12739 51
12740 15
12741 41
12742 146
12743 134
12744 89
12745 188
12746 31
12747 29
12748 6
12749 79
12750 79
12751 99
12752 68
12753 12
12754 62
12755 25
12756 11
12757 54
12758 30
12759 116
12760 13
12761 177
12762 19
12763 26
12764 12
12765 17
12766 25
12767 8
12768 42
12769 3
12770 50
12771 17
12772 12
12773 4
12774 113
12775 3
12776 1
12777 107
12778 74
12779 1
12780 122
12781 191
12782 102
12783 51
12784 1
12785 53
12786 168
12787 30
12788 31
12789 71
12790 1
12791 25
12792 49
12793 6
12794 1
12795 186
12796 84
12797 165
12798 23
12799 107
12800 6
12801 25
12802 12
12803 13
12804 12
12805 186
12806 4
12807 31
12808 183
12809 135
12810 1
12811 121
12812 44
12813 107
12814 210
12815 6
12816 51
12817 50
12818 169
12819 71
12820 26
12821 133
12822 98
12823 0
12824 75
12825 51
12826 63
12827 77
12828 30
12829 25
12830 83
12831 12
12832 41
12833 4
12834 109
12835 15
12836 68
12837 57
12838 80
12839 33
12840 27
12841 44
12842 68
12843 0
12844 12
12845 209
12846 12
12847 1
12848 62
12849 164
12850 186
12851 105
12852 1
12853 51
12854 27
12855 211
12856 12
12857 53
12858 52
12859 181
12860 26
12861 197
12862 50
12863 71
12864 12
12865 146
12866 13
12867 1
12868 36
12869 104
12870 1
12871 44
12872 31
12873 131
12874 42
12875 6
12876 106
12877 109
12878 47
12879 53
12880 12
12881 33
12882 51
12883 20
12884 137
12885 9
12886 0
12887 71
12888 49
12889 31
12890 44
12891 30
12892 1
