0 0
1 1
2 2
3 3
4 4
5 5
6 6
7 7
8 2
9 8
10 9
11 10
12 11
13 12
14 13
15 14
16 15
17 11
18 16
19 3
20 17
21 2
22 16
23 18
24 11
25 19
26 20
27 21
28 22
29 11
30 7
31 23
32 6
33 24
34 16
35 25
36 22
37 26
38 27
39 28
40 29
41 30
42 15
43 31
44 32
45 1
46 33
47 9
48 26
49 34
50 35
51 36
52 8
53 37
54 38
55 39
56 19
57 27
58 14
59 28
60 40
61 31
62 1
63 3
64 13
65 41
66 42
67 43
68 17
69 39
70 19
71 10
72 18
73 26
74 44
75 5
76 41
77 33
78 13
79 1
80 43
81 41
82 27
83 17
84 45
85 7
86 26
87 17
88 19
89 41
90 27
91 3
92 27
93 3
94 37
95 26
96 0
97 36
98 7
99 16
100 17
101 7
102 29
103 46
104 6
105 47
106 48
107 5
108 49
109 37
110 12
111 6
112 4
113 50
114 3
115 51
116 5
117 12
118 15
119 47
120 46
121 37
122 52
123 17
124 19
125 7
126 41
127 3
128 43
129 14
130 26
131 27
132 27
133 14
134 5
135 53
136 3
137 3
138 41
139 22
140 30
141 54
142 37
143 36
144 46
145 55
146 31
147 41
148 42
149 15
150 49
151 56
152 24
153 19
154 52
155 37
156 18
157 41
158 27
159 12
160 6
161 19
162 52
163 16
164 37
165 23
166 31
167 12
168 6
169 46
170 6
171 14
172 42
173 57
174 48
175 48
176 6
177 58
178 31
179 26
180 43
181 52
182 14
183 31
184 16
185 46
186 52
187 57
188 37
189 52
190 53
191 31
192 59
193 31
194 31
195 37
196 52
197 41
198 48
199 35
200 7
201 27
202 57
203 18
204 46
205 26
206 45
207 41
208 33
209 18
210 19
211 37
212 31
213 14
214 46
215 60
216 27
217 45
218 17
219 4
220 19
221 4
222 9
223 7
224 14
225 41
226 27
227 46
228 52
229 42
230 33
231 57
232 36
233 57
234 5
235 23
236 52
237 37
238 53
239 14
240 31
241 5
242 61
243 16
244 53
245 31
246 5
247 41
248 57
249 53
250 47
251 52
252 46
253 37
254 5
255 7
256 37
257 37
258 52
259 15
260 11
261 6
262 52
263 1
264 62
265 12
266 42
267 46
268 16
269 46
270 16
271 43
272 52
273 53
274 18
275 15
276 63
277 43
278 52
279 15
280 36
281 31
282 15
283 19
284 42
285 18
286 36
287 12
288 52
289 31
290 41
291 57
292 35
293 6
294 57
295 16
296 31
297 5
298 52
299 31
300 15
301 57
302 6
303 36
304 52
305 5
306 37
307 60
308 25
309 36
310 16
311 37
312 31
313 5
314 28
315 15
316 15
317 18
318 5
319 14
320 57
321 48
322 31
323 37
324 37
325 46
326 26
327 46
328 15
329 7
330 18
331 17
332 37
333 46
334 8
335 3
336 4
337 43
338 37
339 3
340 6
341 37
342 64
343 53
344 45
345 52
346 15
347 4
348 16
349 52
350 31
351 41
352 36
353 64
354 36
355 45
356 46
357 63
358 29
359 3
360 61
361 49
362 24
363 31
364 7
365 16
366 5
367 22
368 16
369 46
370 60
371 52
372 53
373 46
374 37
375 18
376 65
377 8
378 26
379 52
380 5
381 45
382 36
383 16
384 3
385 65
386 66
387 52
388 4
389 53
390 37
391 46
392 37
393 31
394 13
395 5
396 3
397 12
398 22
399 7
400 31
401 16
402 22
403 48
404 28
405 5
406 16
407 56
408 37
409 31
410 22
411 8
412 7
413 57
414 15
415 46
416 8
417 3
418 19
419 65
420 4
421 16
422 34
423 31
424 54
425 41
426 52
427 54
428 16
429 67
430 13
431 4
432 42
433 26
434 52
435 8
436 51
437 0
438 54
439 3
440 37
441 5
442 58
443 12
444 5
445 52
446 49
447 16
448 52
449 68
450 68
451 31
452 15
453 69
454 57
455 36
456 52
457 35
458 14
459 1
460 39
461 16
462 6
463 36
464 0
465 31
466 52
467 1
468 15
469 55
470 0
471 11
472 70
473 33
474 71
475 48
476 19
477 46
478 61
479 1
480 14
481 47
482 35
483 36
484 37
485 31
486 31
487 48
488 15
489 36
490 48
491 0
492 30
493 51
494 45
495 52
496 52
497 16
498 46
499 1
500 30
501 31
502 57
503 62
504 49
505 46
506 38
507 36
508 48
509 3
510 13
511 3
512 15
513 39
514 5
515 5
516 46
517 16
518 72
519 19
520 32
521 0
522 29
523 22
524 36
525 29
526 46
527 36
528 37
529 35
530 1
531 3
532 31
533 3
534 46
535 22
536 73
537 73
538 24
539 3
540 27
541 28
542 48
543 6
544 46
545 24
546 57
547 53
548 36
549 37
550 15
551 22
552 31
553 8
554 23
555 48
556 46
557 31
558 18
559 19
560 36
561 1
562 52
563 16
564 16
565 3
566 15
567 57
568 46
569 57
570 36
571 48
572 4
573 7
574 22
575 46
576 27
577 48
578 36
579 37
580 52
581 47
582 22
583 1
584 4
585 27
586 15
587 31
588 12
589 52
590 31
591 45
592 31
593 1
594 52
595 42
596 48
597 61
598 36
599 27
600 3
601 0
602 1
603 23
604 36
605 46
606 18
607 47
608 36
609 36
610 51
611 18
612 73
613 17
614 35
615 3
616 54
617 37
618 6
619 17
620 8
621 1
622 16
623 3
624 42
625 15
626 37
627 46
628 41
629 54
630 48
631 15
632 26
633 52
634 8
635 5
636 73
637 1
638 16
639 18
640 36
641 48
642 1
643 36
644 54
645 18
646 46
647 1
648 22
649 58
650 5
651 27
652 0
653 52
654 18
655 4
656 42
657 18
658 26
659 1
660 18
661 31
662 36
663 18
664 31
665 46
666 44
667 48
668 1
669 16
670 1
671 1
672 53
673 3
674 1
675 43
676 17
677 17
678 52
679 36
680 36
681 13
682 36
683 26
684 5
685 36
686 57
687 31
688 17
689 54
690 31
691 66
692 31
693 16
694 52
695 31
696 18
697 59
698 47
699 27
700 22
701 52
702 52
703 12
704 3
705 33
706 7
707 39
708 53
709 36
710 36
711 31
712 31
713 48
714 1
715 52
716 27
717 1
718 18
719 36
720 26
721 39
722 31
723 36
724 36
725 26
726 46
727 65
728 18
729 73
730 52
731 1
732 43
733 37
734 19
735 27
736 1
737 48
738 16
739 11
740 45
741 18
742 1
743 73
744 18
745 19
746 16
747 16
748 1
749 52
750 27
751 53
752 63
753 7
754 52
755 54
756 3
757 42
758 7
759 48
760 15
761 18
762 14
763 1
764 19
765 16
766 7
767 73
768 53
769 27
770 52
771 3
772 34
773 1
774 16
775 36
776 2
777 46
778 14
779 7
780 17
781 7
782 42
783 18
784 7
785 7
786 54
787 19
788 65
789 46
790 72
791 7
792 73
793 27
794 36
795 1
796 26
797 43
798 3
799 23
800 71
801 18
802 71
803 48
804 36
805 27
806 16
807 7
808 36
809 42
810 27
811 31
812 52
813 52
814 14
815 36
816 18
817 1
818 27
819 7
820 22
821 7
822 16
823 7
824 28
825 3
826 28
827 46
828 46
829 61
830 48
831 7
832 19
833 47
834 1
835 3
836 1
837 31
838 3
839 27
840 58
841 14
842 3
843 3
844 19
845 7
846 15
847 14
848 7
849 7
850 22
851 36
852 14
853 33
854 24
855 14
856 37
857 46
858 7
859 3
860 16
861 37
862 43
863 3
864 4
865 29
866 3
867 61
868 27
869 14
870 52
871 7
872 14
873 74
874 48
875 52
876 8
877 20
878 7
879 3
880 58
881 16
882 17
883 18
884 1
885 27
886 2
887 59
888 22
889 18
890 24
891 18
892 3
893 14
894 12
895 13
896 27
897 27
898 48
899 15
900 46
901 19
902 48
903 3
904 40
905 1
906 52
907 36
908 1
909 3
910 8
911 10
912 22
913 27
914 19
915 7
916 54
917 14
918 36
919 62
920 7
921 48
922 23
923 1
924 19
925 27
926 36
927 36
928 18
929 48
930 71
931 19
932 59
933 13
934 72
935 46
936 48
937 18
938 57
939 36
940 48
941 11
942 36
943 48
944 57
945 18
946 60
947 36
948 48
949 16
950 64
951 31
952 48
953 18
954 36
955 24
956 15
957 25
958 3
959 16
960 48
961 58
962 18
963 7
964 16
965 19
966 7
967 4
968 25
969 1
970 46
971 46
972 62
973 36
974 7
975 23
976 46
977 57
978 15
979 48
980 23
981 16
982 6
983 19
984 17
985 35
986 18
987 18
988 14
989 7
990 39
991 18
992 14
993 19
994 41
995 31
996 7
997 61
998 48
999 6
1000 7
1001 36
1002 37
1003 6
1004 7
1005 36
1006 6
1007 14
1008 19
1009 4
1010 18
1011 3
1012 26
1013 7
1014 22
1015 72
1016 48
1017 3
1018 73
1019 26
1020 36
1021 36
1022 1
1023 36
1024 1
1025 48
1026 41
1027 36
1028 33
1029 14
1030 11
1031 31
1032 48
1033 40
1034 16
1035 1
1036 63
1037 6
1038 27
1039 36
1040 75
1041 16
1042 48
1043 15
1044 7
1045 16
1046 48
1047 7
1048 16
1049 36
1050 7
1051 74
1052 67
1053 1
1054 14
1055 11
1056 76
1057 18
1058 35
1059 48
1060 67
1061 39
1062 19
1063 41
1064 18
1065 30
1066 67
1067 18
1068 21
1069 14
1070 56
1071 28
1072 17
1073 40
1074 53
1075 16
1076 14
1077 42
1078 48
1079 19
1080 3
1081 5
1082 23
1083 1
1084 19
1085 58
1086 47
1087 47
1088 19
1089 36
1090 48
1091 7
1092 42
1093 6
1094 39
1095 16
1096 7
1097 46
1098 66
1099 66
1100 22
1101 7
1102 52
1103 53
1104 27
1105 53
1106 3
1107 0
1108 1
1109 36
1110 46
1111 36
1112 1
1113 1
1114 17
1115 1
1116 14
1117 18
1118 7
1119 3
1120 7
1121 7
1122 18
1123 36
1124 26
1125 7
1126 7
1127 51
1128 3
1129 27
1130 3
1131 36
1132 1
1133 26
1134 18
1135 63
1136 19
1137 12
1138 3
1139 23
1140 46
1141 23
1142 7
1143 19
1144 14
1145 12
1146 7
1147 54
1148 12
1149 16
1150 12
1151 19
1152 41
1153 48
1154 18
1155 18
1156 18
1157 26
1158 48
1159 3
1160 5
1161 3
1162 18
1163 18
1164 12
1165 7
1166 37
1167 18
1168 0
1169 5
1170 23
1171 31
1172 22
1173 1
1174 1
1175 48
1176 12
1177 43
1178 3
1179 37
1180 26
1181 13
1182 3
1183 27
1184 19
1185 41
1186 36
1187 6
1188 48
1189 73
1190 36
1191 30
1192 7
1193 6
1194 6
1195 36
1196 6
1197 1
1198 36
1199 1
1200 18
1201 3
1202 41
1203 46
1204 36
1205 73
1206 5
1207 54
1208 16
1209 7
1210 60
1211 12
1212 16
1213 26
1214 48
1215 57
1216 5
1217 48
1218 48
1219 6
1220 57
1221 5
1222 36
1223 6
1224 0
1225 47
1226 7
1227 37
1228 36
1229 26
1230 6
1231 37
1232 45
1233 31
1234 37
1235 57
1236 35
1237 14
1238 36
1239 26
1240 36
1241 5
1242 1
1243 14
1244 48
1245 3
1246 39
1247 7
1248 27
1249 36
1250 3
1251 1
1252 48
1253 35
1254 57
1255 12
1256 48
1257 18
1258 5
1259 1
1260 12
1261 6
1262 14
1263 26
1264 37
1265 38
1266 67
1267 71
1268 52
1269 37
1270 1
1271 48
1272 18
1273 26
1274 3
1275 7
1276 18
1277 43
1278 28
1279 48
1280 63
1281 18
1282 5
1283 5
1284 7
1285 3
1286 74
1287 52
1288 53
1289 29
1290 37
1291 5
1292 35
1293 48
1294 17
1295 6
1296 25
1297 37
1298 48
1299 25
1300 37
1301 53
1302 16
1303 1
1304 63
1305 59
1306 6
1307 36
1308 68
1309 25
1310 3
1311 37
1312 6
1313 18
1314 66
1315 18
1316 1
1317 25
1318 12
1319 6
1320 15
1321 36
1322 7
1323 6
1324 59
1325 7
1326 55
1327 57
1328 14
1329 19
1330 18
1331 65
1332 7
1333 7
1334 28
1335 8
1336 64
1337 41
1338 36
1339 36
1340 48
1341 37
1342 18
1343 26
1344 18
1345 18
1346 69
1347 6
1348 74
1349 41
1350 19
1351 30
1352 9
1353 37
1354 43
1355 48
1356 52
1357 36
1358 37
1359 18
1360 12
1361 18
1362 77
1363 48
1364 48
1365 7
1366 18
1367 13
1368 3
1369 19
1370 41
1371 12
1372 43
1373 48
1374 18
1375 18
1376 48
1377 8
1378 37
1379 32
1380 46
1381 1
1382 37
1383 4
1384 46
1385 7
1386 48
1387 14
1388 1
1389 9
1390 46
1391 18
1392 60
1393 18
1394 37
1395 46
1396 41
1397 27
1398 38
1399 18
1400 8
1401 7
1402 37
1403 49
1404 22
1405 1
1406 18
1407 3
1408 37
1409 16
1410 46
1411 19
1412 37
1413 46
1414 6
1415 37
1416 61
1417 48
1418 3
1419 3
1420 16
1421 46
1422 36
1423 7
1424 7
1425 1
1426 6
1427 15
1428 46
1429 41
1430 48
1431 48
1432 46
1433 36
1434 35
1435 37
1436 48
1437 46
1438 18
1439 18
1440 36
1441 19
1442 57
1443 25
1444 36
1445 1
1446 6
1447 7
1448 40
1449 18
1450 18
1451 46
1452 46
1453 4
1454 46
1455 3
1456 1
1457 57
1458 46
1459 36
1460 58
1461 48
1462 36
1463 54
1464 54
1465 18
1466 36
1467 14
1468 48
1469 3
1470 36
1471 46
1472 19
1473 7
1474 37
1475 36
1476 7
1477 1
1478 17
1479 46
1480 36
1481 31
1482 15
1483 48
1484 18
1485 48
1486 16
1487 37
1488 48
1489 7
1490 36
1491 31
1492 37
1493 31
1494 31
1495 7
1496 7
1497 41
1498 75
1499 14
1500 31
1501 60
1502 48
1503 46
1504 12
1505 48
1506 48
1507 1
1508 3
1509 31
1510 13
1511 0
1512 4
1513 18
1514 36
1515 5
1516 7
1517 15
1518 15
1519 52
1520 3
1521 7
1522 37
1523 52
1524 37
1525 18
1526 18
1527 26
1528 52
1529 26
1530 29
1531 31
1532 5
1533 5
1534 52
1535 3
1536 48
1537 1
1538 46
1539 3
1540 36
1541 48
1542 7
1543 46
1544 31
1545 36
1546 34
1547 7
1548 37
1549 50
1550 48
1551 52
1552 18
1553 3
1554 52
1555 3
1556 7
1557 31
1558 15
1559 18
1560 17
1561 37
1562 18
1563 52
1564 3
1565 36
1566 46
1567 3
1568 18
1569 3
1570 52
1571 18
1572 36
1573 31
1574 71
1575 31
1576 7
1577 7
1578 17
1579 38
1580 52
1581 42
1582 36
1583 52
1584 28
1585 31
1586 57
1587 48
1588 70
1589 64
1590 7
1591 46
1592 36
1593 27
1594 7
1595 57
1596 31
1597 46
1598 48
1599 26
1600 66
1601 31
1602 31
1603 22
1604 52
1605 36
1606 3
1607 1
1608 3
1609 48
1610 48
1611 7
1612 37
1613 31
1614 3
1615 36
1616 26
1617 46
1618 35
1619 3
1620 3
1621 46
1622 52
1623 7
1624 52
1625 37
1626 22
1627 31
1628 48
1629 37
1630 27
1631 31
1632 48
1633 37
1634 78
1635 52
1636 17
1637 37
1638 22
1639 31
1640 52
1641 3
1642 37
1643 3
1644 46
1645 26
1646 48
1647 52
1648 46
1649 18
1650 17
1651 27
1652 36
1653 3
1654 0
1655 60
1656 17
1657 36
1658 76
1659 52
1660 36
1661 52
1662 4
1663 48
1664 46
1665 18
1666 48
1667 52
1668 36
1669 7
1670 48
1671 37
1672 46
1673 48
1674 52
1675 18
1676 36
1677 48
1678 7
1679 46
1680 18
1681 1
1682 3
1683 12
1684 27
1685 46
1686 46
1687 36
1688 27
1689 0
1690 37
1691 57
1692 17
1693 18
1694 31
1695 32
1696 37
1697 31
1698 52
1699 17
1700 48
1701 3
1702 42
1703 31
1704 52
1705 31
1706 54
1707 18
1708 60
1709 15
1710 27
1711 60
1712 37
1713 28
1714 14
1715 52
1716 17
1717 27
1718 18
1719 7
1720 39
1721 48
1722 27
1723 36
1724 36
1725 31
1726 0
1727 46
1728 67
1729 16
1730 12
1731 3
1732 42
1733 16
1734 36
1735 31
1736 46
1737 36
1738 42
1739 27
1740 57
1741 34
1742 37
1743 1
1744 54
1745 46
1746 50
1747 64
1748 3
1749 36
1750 27
1751 27
1752 34
1753 48
1754 36
1755 16
1756 46
1757 36
1758 17
1759 18
1760 22
1761 17
1762 42
1763 27
1764 3
1765 36
1766 27
1767 17
1768 16
1769 47
1770 46
1771 36
1772 7
1773 14
1774 31
1775 52
1776 19
1777 52
1778 46
1779 48
1780 31
1781 31
1782 46
1783 3
1784 7
1785 53
1786 48
1787 54
1788 3
1789 7
1790 37
1791 48
1792 19
1793 52
1794 3
1795 14
1796 61
1797 37
1798 52
1799 22
1800 37
1801 16
1802 48
1803 31
1804 37
1805 16
1806 48
1807 37
1808 37
1809 31
1810 52
1811 52
1812 63
1813 16
1814 52
1815 31
1816 3
1817 29
1818 18
1819 63
1820 0
1821 16
1822 1
1823 46
1824 46
1825 46
1826 35
1827 3
1828 17
1829 3
1830 19
1831 48
1832 36
1833 36
1834 18
1835 3
1836 37
1837 36
1838 37
1839 18
1840 46
1841 36
1842 3
1843 52
1844 16
1845 39
1846 7
1847 3
1848 16
1849 52
1850 31
1851 52
1852 18
1853 37
1854 7
1855 14
1856 31
1857 14
1858 14
1859 17
1860 16
1861 19
1862 15
1863 48
1864 52
1865 31
1866 4
1867 37
1868 58
1869 18
1870 48
1871 16
1872 14
1873 18
1874 46
1875 19
1876 16
1877 48
1878 36
1879 48
1880 48
1881 27
1882 19
1883 22
1884 36
1885 37
1886 52
1887 74
1888 48
1889 14
1890 2
1891 3
1892 18
1893 31
1894 48
1895 1
1896 52
1897 18
1898 31
1899 7
1900 14
1901 18
1902 42
1903 19
1904 48
1905 8
1906 3
1907 48
1908 3
1909 18
1910 57
1911 31
1912 52
1913 36
1914 70
1915 27
1916 8
1917 48
1918 48
1919 77
1920 52
1921 17
1922 12
1923 18
1924 62
1925 6
1926 3
1927 18
1928 16
1929 27
1930 31
1931 7
1932 37
1933 48
1934 48
1935 3
1936 22
1937 31
1938 28
1939 66
1940 68
1941 19
1942 18
1943 37
1944 18
1945 37
1946 46
1947 27
1948 15
1949 52
1950 7
1951 31
1952 32
1953 7
1954 3
1955 46
1956 36
1957 59
1958 65
1959 44
1960 14
1961 31
1962 46
1963 3
1964 16
1965 48
1966 46
1967 19
1968 29
1969 16
1970 31
1971 48
1972 48
1973 7
1974 46
1975 37
1976 56
1977 4
1978 31
1979 36
1980 18
1981 52
1982 4
1983 48
1984 16
1985 39
1986 7
1987 54
1988 48
1989 36
1990 18
1991 52
1992 46
1993 54
1994 8
1995 36
1996 46
1997 3
1998 41
1999 57
2000 18
2001 3
2002 42
2003 46
2004 31
2005 31
2006 52
2007 39
2008 18
2009 35
2010 36
2011 7
2012 31
2013 16
2014 7
2015 3
2016 37
2017 16
2018 18
2019 11
2020 7
2021 52
2022 46
2023 36
2024 18
2025 6
2026 36
2027 15
2028 37
2029 48
2030 6
2031 3
2032 48
2033 37
2034 17
2035 18
2036 36
2037 46
2038 48
2039 36
2040 31
2041 52
2042 49
2043 19
2044 6
2045 7
2046 48
2047 36
2048 60
2049 6
2050 31
2051 3
2052 52
2053 26
2054 46
2055 31
2056 19
2057 41
2058 3
2059 41
2060 63
2061 33
2062 29
2063 16
2064 52
2065 36
2066 31
2067 16
2068 76
2069 68
2070 46
2071 53
2072 46
2073 43
2074 29
2075 31
2076 46
2077 37
2078 27
2079 18
2080 41
2081 67
2082 3
2083 7
2084 16
2085 18
2086 38
2087 22
2088 33
2089 16
2090 16
2091 16
2092 27
2093 0
2094 7
2095 35
2096 1
2097 18
2098 46
2099 6
2100 36
2101 14
2102 27
2103 36
2104 16
2105 18
2106 29
2107 31
2108 6
2109 5
2110 37
2111 59
2112 22
2113 30
2114 27
2115 31
2116 53
2117 35
2118 72
2119 44
2120 71
2121 53
2122 19
2123 36
2124 1
2125 36
2126 13
2127 19
2128 36
2129 5
2130 77
2131 21
2132 36
2133 6
2134 16
2135 48
2136 7
2137 19
2138 37
2139 36
2140 52
2141 16
2142 19
2143 71
2144 54
2145 46
2146 48
2147 31
2148 6
2149 56
2150 46
2151 6
2152 36
2153 36
2154 54
2155 41
2156 41
2157 7
2158 1
2159 42
2160 37
2161 42
2162 54
2163 6
2164 51
2165 7
2166 27
2167 42
2168 12
2169 14
2170 16
2171 31
2172 46
2173 73
2174 74
2175 7
2176 79
2177 27
2178 18
2179 16
2180 8
2181 6
2182 48
2183 37
2184 16
2185 54
2186 18
2187 36
2188 46
2189 7
2190 36
2191 6
2192 41
2193 46
2194 36
2195 16
2196 12
2197 30
2198 16
2199 14
2200 46
2201 6
2202 6
2203 52
2204 12
2205 18
2206 0
2207 33
2208 36
2209 5
2210 23
2211 64
2212 13
2213 3
2214 36
2215 54
2216 46
2217 7
2218 52
2219 3
2220 48
2221 57
2222 52
2223 5
2224 46
2225 52
2226 14
2227 24
2228 16
2229 41
2230 76
2231 60
2232 40
2233 54
2234 45
2235 19
2236 16
2237 36
2238 16
2239 52
2240 57
2241 39
2242 5
2243 22
2244 46
2245 52
2246 52
2247 14
2248 33
2249 48
2250 54
2251 28
2252 16
2253 18
2254 16
2255 57
2256 41
2257 20
2258 66
2259 46
2260 14
2261 3
2262 54
2263 36
2264 10
2265 41
2266 39
2267 12
2268 16
2269 52
2270 40
2271 16
2272 27
2273 16
2274 19
2275 57
2276 11
2277 46
2278 33
2279 14
2280 54
2281 31
2282 46
2283 39
2284 12
2285 41
2286 35
2287 36
2288 39
2289 33
2290 46
2291 33
2292 31
2293 57
2294 6
2295 16
2296 54
2297 26
2298 51
2299 42
2300 27
2301 14
2302 7
2303 16
2304 5
2305 36
2306 41
2307 52
2308 38
2309 28
2310 12
2311 67
2312 57
2313 55
2314 19
2315 46
2316 31
2317 28
2318 18
2319 52
2320 70
2321 65
2322 31
2323 37
2324 75
2325 36
2326 35
2327 15
2328 16
2329 46
2330 7
2331 52
2332 61
2333 37
2334 5
2335 65
2336 33
2337 35
2338 28
2339 52
2340 16
2341 27
2342 14
2343 12
2344 4
2345 4
2346 36
2347 14
2348 46
2349 53
2350 64
2351 19
2352 37
2353 12
2354 29
2355 16
2356 5
2357 36
2358 7
2359 26
2360 1
2361 37
2362 57
2363 60
2364 36
2365 73
2366 16
2367 12
2368 15
2369 13
2370 28
2371 31
2372 5
2373 42
2374 52
2375 16
2376 46
2377 24
2378 13
2379 46
2380 6
2381 12
2382 12
2383 14
2384 5
2385 53
2386 36
2387 16
2388 4
2389 6
2390 31
2391 2
2392 16
2393 31
2394 57
2395 74
2396 12
2397 36
2398 31
2399 42
2400 18
2401 53
2402 5
2403 45
2404 36
2405 5
2406 46
2407 3
2408 6
2409 71
2410 7
2411 46
2412 22
2413 5
2414 36
2415 16
2416 3
2417 22
2418 3
2419 31
2420 31
2421 0
2422 65
2423 23
2424 7
2425 61
2426 8
2427 63
2428 41
2429 31
2430 61
2431 17
2432 26
2433 3
2434 3
2435 3
2436 3
2437 34
2438 3
2439 46
2440 52
2441 5
2442 35
2443 41
2444 52
2445 45
2446 36
2447 36
2448 9
2449 39
2450 53
2451 36
2452 16
2453 3
2454 16
2455 22
2456 57
2457 3
2458 37
2459 56
2460 37
2461 8
2462 36
2463 31
2464 36
2465 16
2466 36
2467 75
2468 46
2469 5
2470 17
2471 23
2472 31
2473 32
2474 37
2475 3
2476 37
2477 6
2478 56
2479 14
2480 31
2481 8
2482 3
2483 52
2484 3
2485 12
2486 11
2487 40
2488 4
2489 78
2490 16
2491 33
2492 46
2493 36
2494 19
2495 48
2496 46
2497 3
2498 15
2499 34
2500 52
2501 36
2502 47
2503 36
2504 14
2505 71
2506 36
2507 58
2508 65
2509 16
2510 3
2511 31
2512 48
2513 59
2514 7
2515 48
2516 3
2517 27
2518 48
2519 61
2520 52
2521 40
2522 48
2523 48
2524 48
2525 52
2526 52
2527 22
2528 10
2529 5
2530 48
2531 35
2532 36
2533 48
2534 52
2535 3
2536 6
2537 79
2538 31
2539 73
2540 37
2541 31
2542 36
2543 4
2544 3
2545 46
2546 11
2547 3
2548 52
2549 55
2550 46
2551 0
2552 36
2553 1
2554 57
2555 3
2556 27
2557 26
2558 61
2559 3
2560 31
2561 1
2562 16
2563 3
2564 48
2565 41
2566 22
2567 51
2568 26
2569 1
2570 3
2571 52
2572 3
2573 36
2574 52
2575 1
2576 1
2577 16
2578 30
2579 36
2580 48
2581 31
2582 31
2583 30
2584 15
2585 8
2586 57
2587 3
2588 66
2589 53
2590 3
2591 3
2592 33
2593 26
2594 74
2595 36
2596 48
2597 6
2598 7
2599 17
2600 30
2601 22
2602 36
2603 48
2604 1
2605 7
2606 48
2607 36
2608 18
2609 36
2610 17
2611 53
2612 60
2613 48
2614 48
2615 1
2616 1
2617 16
2618 5
2619 18
2620 16
2621 5
2622 48
2623 16
2624 0
2625 46
2626 27
2627 3
2628 31
2629 48
2630 22
2631 27
2632 13
2633 46
2634 52
2635 18
2636 6
2637 1
2638 52
2639 19
2640 18
2641 52
2642 8
2643 46
2644 56
2645 41
2646 52
2647 1
2648 46
2649 18
2650 1
2651 27
2652 7
2653 3
2654 67
2655 16
2656 17
2657 18
2658 48
2659 48
2660 53
2661 36
2662 22
2663 23
2664 3
2665 17
2666 27
2667 29
2668 52
2669 46
2670 3
2671 46
2672 48
2673 17
2674 5
2675 16
2676 27
2677 1
2678 17
2679 46
2680 31
2681 6
2682 15
2683 31
2684 36
2685 1
2686 18
2687 52
2688 15
2689 62
2690 37
2691 36
2692 52
2693 18
2694 27
2695 3
2696 16
2697 6
2698 36
2699 18
2700 1
2701 27
2702 40
2703 46
2704 16
2705 56
2706 57
2707 15
2708 8
2709 49
2710 48
2711 17
2712 67
2713 48
2714 1
2715 31
2716 48
2717 36
2718 50
2719 0
2720 8
2721 16
2722 18
2723 0
2724 45
2725 8
2726 1
2727 5
2728 53
2729 57
2730 18
2731 37
2732 21
2733 18
2734 16
2735 36
2736 18
2737 4
2738 52
2739 5
2740 13
2741 52
2742 44
2743 18
2744 52
2745 29
2746 12
2747 1
2748 27
2749 40
2750 45
2751 36
2752 55
2753 1
2754 26
2755 48
2756 27
2757 72
2758 0
2759 26
2760 48
2761 27
2762 16
2763 18
2764 54
2765 78
2766 1
2767 48
2768 53
2769 3
2770 27
2771 1
2772 17
2773 31
2774 12
2775 33
2776 16
2777 16
2778 42
2779 36
2780 36
2781 19
2782 75
2783 54
2784 3
2785 57
2786 51
2787 5
2788 36
2789 66
2790 3
2791 48
2792 19
2793 27
2794 31
2795 18
2796 16
2797 43
2798 27
2799 7
2800 31
2801 3
2802 7
2803 64
2804 3
2805 18
2806 14
2807 46
2808 7
2809 61
2810 36
2811 19
2812 14
2813 0
2814 22
2815 3
2816 17
2817 19
2818 19
2819 46
2820 7
2821 0
2822 54
2823 48
2824 31
2825 48
2826 36
2827 48
2828 54
2829 27
2830 48
2831 1
2832 1
2833 3
2834 52
2835 63
2836 26
2837 1
2838 3
2839 42
2840 19
2841 18
2842 15
2843 57
2844 36
2845 36
2846 3
2847 18
2848 53
2849 36
2850 3
2851 22
2852 45
2853 1
2854 3
2855 3
2856 36
2857 3
2858 57
2859 3
2860 35
2861 7
2862 18
2863 1
2864 29
2865 48
2866 18
2867 7
2868 19
2869 48
2870 1
2871 48
2872 48
2873 22
2874 32
2875 7
2876 14
2877 29
2878 14
2879 27
2880 2
2881 7
2882 3
2883 67
2884 7
2885 18
2886 14
2887 18
2888 14
2889 16
2890 7
2891 33
2892 27
2893 12
2894 18
2895 1
2896 46
2897 3
2898 36
2899 14
2900 36
2901 1
2902 37
2903 45
2904 1
2905 7
2906 18
2907 18
2908 27
2909 16
2910 3
2911 79
2912 43
2913 75
2914 18
2915 12
2916 48
2917 48
2918 15
2919 36
2920 48
2921 7
2922 1
2923 13
2924 48
2925 7
2926 14
2927 22
2928 17
2929 36
2930 9
2931 46
2932 7
2933 31
2934 19
2935 2
2936 18
2937 1
2938 1
2939 2
2940 48
2941 15
2942 36
2943 17
2944 36
2945 40
2946 22
2947 52
2948 13
2949 18
2950 31
2951 27
2952 1
2953 3
2954 16
2955 18
2956 15
2957 48
2958 19
2959 14
2960 27
2961 18
2962 48
2963 1
2964 46
2965 71
2966 16
2967 19
2968 42
2969 3
2970 17
2971 3
2972 1
2973 32
2974 46
2975 16
2976 18
2977 1
2978 48
2979 36
2980 1
2981 42
2982 7
2983 3
2984 13
2985 45
2986 48
2987 66
2988 18
2989 47
2990 14
2991 71
2992 65
2993 18
2994 52
2995 3
2996 18
2997 7
2998 14
2999 18
3000 10
3001 45
3002 48
3003 36
3004 19
3005 18
3006 45
3007 22
3008 48
3009 7
3010 46
3011 18
3012 48
3013 36
3014 31
3015 3
3016 48
3017 31
3018 69
3019 27
3020 0
3021 39
3022 41
3023 14
3024 0
3025 48
3026 1
3027 5
3028 14
3029 3
3030 48
3031 48
3032 8
3033 17
3034 18
3035 48
3036 31
3037 16
3038 40
3039 16
3040 61
3041 27
3042 3
3043 22
3044 31
3045 3
3046 14
3047 15
3048 7
3049 7
3050 18
3051 18
3052 19
3053 3
3054 7
3055 6
3056 3
3057 27
3058 6
3059 36
3060 18
3061 48
3062 3
3063 3
3064 62
3065 61
3066 41
3067 52
3068 8
3069 18
3070 5
3071 36
3072 14
3073 18
3074 27
3075 14
3076 36
3077 26
3078 6
3079 16
3080 27
3081 36
3082 9
3083 38
3084 3
3085 3
3086 18
3087 14
3088 6
3089 18
3090 7
3091 17
3092 6
3093 7
3094 6
3095 36
3096 18
3097 36
3098 36
3099 18
3100 19
3101 18
3102 26
3103 48
3104 41
3105 48
3106 46
3107 7
3108 7
3109 33
3110 1
3111 68
3112 53
3113 18
3114 1
3115 14
3116 3
3117 36
3118 36
3119 17
3120 19
3121 14
3122 48
3123 18
3124 26
3125 3
3126 58
3127 27
3128 18
3129 16
3130 59
3131 7
3132 14
3133 30
3134 18
3135 7
3136 7
3137 36
3138 64
3139 3
3140 7
3141 4
3142 19
3143 27
3144 7
3145 26
3146 43
3147 3
3148 27
3149 59
3150 36
3151 3
3152 29
3153 36
3154 7
3155 0
3156 1
3157 48
3158 6
3159 16
3160 48
3161 2
3162 48
3163 5
3164 1
3165 3
3166 22
3167 18
3168 5
3169 41
3170 48
3171 36
3172 11
3173 43
3174 53
3175 4
3176 7
3177 48
3178 4
3179 36
3180 36
3181 1
3182 48
3183 16
3184 3
3185 27
3186 14
3187 7
3188 7
3189 12
3190 18
3191 19
3192 12
3193 48
3194 3
3195 19
3196 53
3197 36
3198 48
3199 18
3200 52
3201 36
3202 18
3203 48
3204 14
3205 7
3206 12
3207 6
3208 19
3209 37
3210 48
3211 7
3212 1
3213 37
3214 52
3215 48
3216 7
3217 54
3218 16
3219 6
3220 5
3221 1
3222 7
3223 37
3224 27
3225 48
3226 1
3227 7
3228 62
3229 20
3230 18
3231 3
3232 31
3233 26
3234 14
3235 70
3236 57
3237 37
3238 27
3239 73
3240 43
3241 41
3242 42
3243 37
3244 18
3245 36
3246 52
3247 53
3248 5
3249 3
3250 18
3251 37
3252 1
3253 57
3254 48
3255 3
3256 37
3257 42
3258 48
3259 26
3260 7
3261 26
3262 7
3263 6
3264 68
3265 18
3266 37
3267 8
3268 16
3269 57
3270 5
3271 18
3272 12
3273 12
3274 57
3275 18
3276 53
3277 36
3278 41
3279 37
3280 26
3281 5
3282 37
3283 36
3284 41
3285 14
3286 48
3287 3
3288 57
3289 3
3290 3
3291 37
3292 67
3293 71
3294 36
3295 3
3296 41
3297 26
3298 3
3299 3
3300 18
3301 57
3302 18
3303 3
3304 36
3305 57
3306 2
3307 18
3308 37
3309 7
3310 42
3311 33
3312 5
3313 48
3314 37
3315 30
3316 11
3317 48
3318 62
3319 18
3320 57
3321 41
3322 27
3323 3
3324 18
3325 54
3326 3
3327 33
3328 48
3329 37
3330 28
3331 14
3332 34
3333 39
3334 31
3335 57
3336 37
3337 54
3338 0
3339 18
3340 3
3341 74
3342 6
3343 30
3344 36
3345 3
3346 5
3347 36
3348 37
3349 28
3350 7
3351 41
3352 74
3353 18
3354 18
3355 18
3356 36
3357 37
3358 62
3359 39
3360 37
3361 41
3362 36
3363 7
3364 37
3365 18
3366 48
3367 48
3368 37
3369 37
3370 24
3371 40
3372 68
3373 3
3374 37
3375 48
3376 36
3377 48
3378 61
3379 37
3380 37
3381 3
3382 34
3383 62
3384 28
3385 1
3386 3
3387 37
3388 7
3389 48
3390 18
3391 57
3392 1
3393 34
3394 57
3395 15
3396 7
3397 48
3398 19
3399 71
3400 16
3401 48
3402 3
3403 48
3404 6
3405 36
3406 41
3407 7
3408 9
3409 48
3410 17
3411 14
3412 33
3413 60
3414 79
3415 1
3416 14
3417 4
3418 15
3419 18
3420 33
3421 36
3422 18
3423 57
3424 36
3425 18
3426 46
3427 55
3428 4
3429 37
3430 48
3431 36
3432 7
3433 7
3434 7
3435 22
3436 46
3437 22
3438 7
3439 7
3440 57
3441 8
3442 36
3443 3
3444 36
3445 46
3446 18
3447 0
3448 38
3449 3
3450 5
3451 36
3452 48
3453 18
3454 48
3455 7
3456 3
3457 37
3458 7
3459 48
3460 7
3461 5
3462 48
3463 48
3464 59
3465 3
3466 2
3467 37
3468 7
3469 36
3470 46
3471 46
3472 54
3473 46
3474 46
3475 18
3476 37
3477 57
3478 71
3479 3
3480 46
3481 68
3482 46
3483 22
3484 37
3485 3
3486 14
3487 27
3488 37
3489 7
3490 48
3491 48
3492 12
3493 18
3494 22
3495 36
3496 3
3497 13
3498 3
3499 19
3500 53
3501 36
3502 7
3503 54
3504 7
3505 37
3506 27
3507 3
3508 48
3509 7
3510 77
3511 46
3512 46
3513 78
3514 40
3515 27
3516 22
3517 41
3518 54
3519 75
3520 37
3521 76
3522 7
3523 36
3524 3
3525 14
3526 48
3527 76
3528 7
3529 3
3530 36
3531 66
3532 0
3533 36
3534 48
3535 31
3536 37
3537 35
3538 65
3539 22
3540 36
3541 36
3542 31
3543 52
3544 58
3545 31
3546 48
3547 35
3548 48
3549 18
3550 31
3551 18
3552 7
3553 7
3554 7
3555 0
3556 52
3557 52
3558 15
3559 31
3560 19
3561 37
3562 37
3563 37
3564 71
3565 22
3566 51
3567 48
3568 7
3569 52
3570 22
3571 3
3572 7
3573 0
3574 31
3575 7
3576 46
3577 48
3578 18
3579 7
3580 18
3581 15
3582 48
3583 3
3584 46
3585 7
3586 48
3587 46
3588 46
3589 52
3590 18
3591 48
3592 46
3593 31
3594 31
3595 26
3596 14
3597 36
3598 18
3599 3
3600 37
3601 70
3602 22
3603 46
3604 31
3605 52
3606 52
3607 48
3608 7
3609 7
3610 26
3611 37
3612 3
3613 54
3614 48
3615 52
3616 48
3617 1
3618 16
3619 36
3620 40
3621 3
3622 31
3623 48
3624 31
3625 53
3626 14
3627 18
3628 16
3629 57
3630 46
3631 46
3632 1
3633 3
3634 31
3635 36
3636 46
3637 3
3638 7
3639 18
3640 46
3641 60
3642 31
3643 46
3644 37
3645 52
3646 18
3647 18
3648 73
3649 52
3650 31
3651 31
3652 52
3653 36
3654 46
3655 36
3656 37
3657 31
3658 3
3659 41
3660 7
3661 4
3662 46
3663 7
3664 48
3665 48
3666 37
3667 71
3668 46
3669 46
3670 46
3671 7
3672 31
3673 15
3674 41
3675 14
3676 3
3677 52
3678 3
3679 71
3680 52
3681 37
3682 43
3683 18
3684 37
3685 36
3686 7
3687 53
3688 54
3689 49
3690 36
3691 52
3692 48
3693 48
3694 46
3695 18
3696 46
3697 48
3698 7
3699 52
3700 46
3701 7
3702 27
3703 43
3704 4
3705 12
3706 12
3707 3
3708 36
3709 46
3710 46
3711 3
3712 1
3713 7
3714 43
3715 18
3716 1
3717 48
3718 37
3719 7
3720 46
3721 7
3722 46
3723 75
3724 52
3725 36
3726 36
3727 48
3728 12
3729 48
3730 37
3731 65
3732 31
3733 3
3734 71
3735 46
3736 7
3737 5
3738 48
3739 31
3740 18
3741 48
3742 3
3743 45
3744 22
3745 27
3746 61
3747 47
3748 7
3749 7
3750 36
3751 36
3752 20
3753 46
3754 7
3755 48
3756 18
3757 48
3758 18
3759 36
3760 46
3761 48
3762 51
3763 18
3764 31
3765 18
3766 3
3767 15
3768 27
3769 48
3770 18
3771 46
3772 48
3773 31
3774 18
3775 3
3776 3
3777 7
3778 52
3779 37
3780 18
3781 7
3782 23
3783 18
3784 48
3785 27
3786 52
3787 36
3788 46
3789 18
3790 7
3791 52
3792 51
3793 16
3794 36
3795 7
3796 15
3797 52
3798 48
3799 46
3800 46
3801 27
3802 16
3803 16
3804 48
3805 18
3806 41
3807 7
3808 22
3809 48
3810 35
3811 3
3812 18
3813 18
3814 36
3815 18
3816 37
3817 31
3818 16
3819 27
3820 18
3821 47
3822 18
3823 39
3824 7
3825 16
3826 46
3827 18
3828 1
3829 3
3830 16
3831 16
3832 46
3833 35
3834 18
3835 48
3836 48
3837 3
3838 31
3839 52
3840 22
3841 37
3842 7
3843 18
3844 18
3845 52
3846 18
3847 7
3848 3
3849 52
3850 35
3851 16
3852 36
3853 18
3854 7
3855 48
3856 3
3857 48
3858 10
3859 18
3860 46
3861 37
3862 7
3863 16
3864 37
3865 3
3866 18
3867 18
3868 46
3869 36
3870 37
3871 37
3872 16
3873 40
3874 48
3875 31
3876 7
3877 3
3878 18
3879 3
3880 16
3881 7
3882 18
3883 46
3884 46
3885 16
3886 48
3887 36
3888 48
3889 18
3890 48
3891 31
3892 52
3893 27
3894 52
3895 18
3896 37
3897 46
3898 48
3899 36
3900 17
3901 37
3902 61
3903 31
3904 36
3905 16
3906 3
3907 7
3908 37
3909 18
3910 31
3911 31
3912 52
3913 7
3914 31
3915 37
3916 7
3917 16
3918 3
3919 16
3920 52
3921 46
3922 3
3923 7
3924 3
3925 3
3926 52
3927 48
3928 37
3929 48
3930 46
3931 3
3932 46
3933 48
3934 7
3935 31
3936 3
3937 46
3938 48
3939 5
3940 18
3941 22
3942 42
3943 48
3944 7
3945 5
3946 39
3947 36
3948 48
3949 46
3950 3
3951 46
3952 48
3953 52
3954 36
3955 46
3956 1
3957 7
3958 46
3959 71
3960 46
3961 46
3962 77
3963 4
3964 18
3965 31
3966 4
3967 7
3968 16
3969 14
3970 16
3971 16
3972 19
3973 28
3974 37
3975 48
3976 18
3977 19
3978 48
3979 19
3980 46
3981 3
3982 31
3983 40
3984 3
3985 36
3986 71
3987 48
3988 14
3989 1
3990 18
3991 52
3992 52
3993 37
3994 48
3995 22
3996 18
3997 36
3998 20
3999 42
4000 52
4001 52
4002 60
4003 52
4004 46
4005 22
4006 6
4007 46
4008 20
4009 31
4010 14
4011 3
4012 29
4013 7
4014 16
4015 18
4016 74
4017 53
4018 36
4019 7
4020 18
4021 36
4022 48
4023 7
4024 69
4025 11
4026 48
4027 7
4028 48
4029 0
4030 31
4031 36
4032 52
4033 52
4034 19
4035 36
4036 48
4037 46
4038 37
4039 52
4040 52
4041 18
4042 36
4043 27
4044 31
4045 3
4046 52
4047 3
4048 48
4049 7
4050 46
4051 53
4052 48
4053 53
4054 36
4055 37
4056 6
4057 16
4058 46
4059 3
4060 46
4061 3
4062 18
4063 70
4064 37
4065 48
4066 36
4067 48
4068 14
4069 48
4070 6
4071 48
4072 48
4073 18
4074 7
4075 13
4076 18
4077 48
4078 6
4079 52
4080 48
4081 18
4082 18
4083 48
4084 18
4085 46
4086 36
4087 31
4088 41
4089 17
4090 46
4091 37
4092 36
4093 52
4094 19
4095 3
4096 52
4097 52
4098 15
4099 18
4100 48
4101 7
4102 16
4103 4
4104 46
4105 11
4106 61
4107 19
4108 30
4109 16
4110 1
4111 46
4112 37
4113 31
4114 46
4115 16
4116 27
4117 19
4118 6
4119 48
4120 70
4121 28
4122 37
4123 16
4124 46
4125 31
4126 60
4127 29
4128 71
4129 19
4130 78
4131 45
4132 38
4133 33
4134 31
4135 36
4136 19
4137 22
4138 31
4139 30
4140 36
4141 16
4142 23
4143 46
4144 37
4145 18
4146 30
4147 62
4148 46
4149 36
4150 22
4151 46
4152 7
4153 5
4154 52
4155 46
4156 18
4157 66
4158 14
4159 27
4160 41
4161 52
4162 27
4163 16
4164 31
4165 16
4166 14
4167 53
4168 31
4169 5
4170 16
4171 0
4172 5
4173 36
4174 16
4175 36
4176 46
4177 5
4178 52
4179 16
4180 6
4181 31
4182 45
4183 53
4184 42
4185 26
4186 52
4187 36
4188 16
4189 46
4190 15
4191 36
4192 71
4193 36
4194 46
4195 14
4196 54
4197 16
4198 52
4199 46
4200 18
4201 73
4202 36
4203 13
4204 31
4205 7
4206 26
4207 3
4208 16
4209 12
4210 36
4211 43
4212 26
4213 53
4214 7
4215 36
4216 37
4217 42
4218 52
4219 12
4220 46
4221 52
4222 15
4223 46
4224 38
4225 27
4226 16
4227 0
4228 9
4229 18
4230 16
4231 66
4232 19
4233 6
4234 14
4235 36
4236 46
4237 52
4238 12
4239 43
4240 18
4241 36
4242 36
4243 5
4244 1
4245 3
4246 36
4247 75
4248 19
4249 5
4250 23
4251 46
4252 37
4253 12
4254 36
4255 40
4256 17
4257 18
4258 59
4259 31
4260 27
4261 6
4262 12
4263 7
4264 5
4265 16
4266 31
4267 37
4268 36
4269 17
4270 7
4271 36
4272 48
4273 41
4274 7
4275 5
4276 16
4277 28
4278 37
4279 31
4280 16
4281 14
4282 23
4283 26
4284 73
4285 12
4286 57
4287 16
4288 57
4289 53
4290 18
4291 36
4292 48
4293 7
4294 69
4295 39
4296 52
4297 40
4298 5
4299 59
4300 36
4301 5
4302 16
4303 27
4304 43
4305 71
4306 46
4307 42
4308 4
4309 36
4310 32
4311 19
4312 31
4313 64
4314 27
4315 31
4316 31
4317 36
4318 37
4319 12
4320 36
4321 26
4322 31
4323 27
4324 31
4325 46
4326 16
4327 6
4328 27
4329 30
4330 31
4331 48
4332 31
4333 53
4334 48
4335 57
4336 5
4337 46
4338 31
4339 73
4340 36
4341 39
4342 18
4343 46
4344 1
4345 29
4346 36
4347 46
4348 2
4349 46
4350 55
4351 18
4352 27
4353 36
4354 17
4355 7
4356 66
4357 14
4358 36
4359 36
4360 5
4361 14
4362 54
4363 16
4364 19
4365 77
4366 31
4367 36
4368 26
4369 57
4370 15
4371 5
4372 15
4373 34
4374 76
4375 39
4376 11
4377 18
4378 36
4379 16
4380 48
4381 6
4382 16
4383 12
4384 27
4385 46
4386 79
4387 43
4388 65
4389 6
4390 36
4391 26
4392 35
4393 36
4394 16
4395 30
4396 31
4397 22
4398 52
4399 31
4400 6
4401 66
4402 15
4403 66
4404 15
4405 12
4406 31
4407 53
4408 57
4409 36
4410 25
4411 36
4412 46
4413 36
4414 16
4415 16
4416 57
4417 16
4418 8
4419 65
4420 52
4421 13
4422 52
4423 25
4424 18
4425 37
4426 22
4427 46
4428 16
4429 37
4430 37
4431 16
4432 40
4433 3
4434 3
4435 3
4436 36
4437 15
4438 36
4439 37
4440 36
4441 46
4442 34
4443 3
4444 28
4445 3
4446 13
4447 36
4448 58
4449 6
4450 36
4451 36
4452 4
4453 31
4454 43
4455 14
4456 3
4457 16
4458 3
4459 36
4460 61
4461 28
4462 36
4463 52
4464 37
4465 22
4466 37
4467 5
4468 36
4469 30
4470 53
4471 34
4472 57
4473 36
4474 22
4475 15
4476 46
4477 37
4478 1
4479 17
4480 3
4481 36
4482 12
4483 37
4484 36
4485 50
4486 25
4487 15
4488 45
4489 5
4490 14
4491 29
4492 31
4493 8
4494 52
4495 36
4496 3
4497 71
4498 41
4499 34
4500 17
4501 16
4502 45
4503 70
4504 5
4505 19
4506 31
4507 18
4508 37
4509 15
4510 22
4511 8
4512 36
4513 36
4514 15
4515 57
4516 3
4517 38
4518 49
4519 37
4520 7
4521 6
4522 75
4523 45
4524 57
4525 16
4526 62
4527 36
4528 36
4529 5
4530 36
4531 17
4532 35
4533 21
4534 63
4535 28
4536 19
4537 3
4538 58
4539 46
4540 36
4541 68
4542 55
4543 36
4544 7
4545 15
4546 15
4547 36
4548 48
4549 36
4550 52
4551 48
4552 3
4553 36
4554 36
4555 3
4556 14
4557 37
4558 48
4559 3
4560 48
4561 52
4562 40
4563 4
4564 15
4565 1
4566 36
4567 3
4568 3
4569 7
4570 27
4571 68
4572 48
4573 3
4574 3
4575 39
4576 36
4577 48
4578 48
4579 3
4580 46
4581 19
4582 44
4583 52
4584 7
4585 48
4586 15
4587 52
4588 15
4589 5
4590 1
4591 48
4592 57
4593 1
4594 35
4595 46
4596 3
4597 72
4598 52
4599 48
4600 26
4601 52
4602 53
4603 31
4604 32
4605 0
4606 30
4607 36
4608 41
4609 36
4610 35
4611 1
4612 65
4613 48
4614 33
4615 16
4616 28
4617 48
4618 48
4619 7
4620 30
4621 53
4622 3
4623 6
4624 15
4625 3
4626 16
4627 16
4628 31
4629 8
4630 48
4631 36
4632 35
4633 5
4634 3
4635 3
4636 75
4637 36
4638 44
4639 36
4640 39
4641 36
4642 63
4643 52
4644 3
4645 36
4646 3
4647 14
4648 3
4649 3
4650 64
4651 45
4652 16
4653 22
4654 3
4655 16
4656 1
4657 31
4658 36
4659 3
4660 1
4661 3
4662 5
4663 18
4664 22
4665 1
4666 29
4667 1
4668 13
4669 22
4670 17
4671 3
4672 15
4673 48
4674 38
4675 52
4676 22
4677 15
4678 37
4679 27
4680 3
4681 31
4682 57
4683 48
4684 18
4685 36
4686 52
4687 48
4688 17
4689 53
4690 3
4691 45
4692 18
4693 37
4694 71
4695 31
4696 18
4697 36
4698 17
4699 27
4700 22
4701 61
4702 48
4703 36
4704 18
4705 36
4706 3
4707 48
4708 36
4709 3
4710 1
4711 48
4712 5
4713 1
4714 4
4715 17
4716 52
4717 31
4718 1
4719 51
4720 65
4721 27
4722 5
4723 53
4724 31
4725 27
4726 35
4727 3
4728 48
4729 39
4730 46
4731 54
4732 38
4733 3
4734 37
4735 24
4736 16
4737 3
4738 1
4739 3
4740 3
4741 46
4742 27
4743 48
4744 53
4745 48
4746 12
4747 53
4748 3
4749 36
4750 36
4751 37
4752 45
4753 43
4754 3
4755 46
4756 48
4757 3
4758 48
4759 48
4760 31
4761 3
4762 53
4763 22
4764 3
4765 8
4766 18
4767 48
4768 4
4769 17
4770 16
4771 36
4772 3
4773 12
4774 18
4775 48
4776 76
4777 20
4778 1
4779 52
4780 17
4781 69
4782 8
4783 48
4784 48
4785 16
4786 3
4787 42
4788 13
4789 5
4790 38
4791 36
4792 18
4793 51
4794 3
4795 44
4796 27
4797 3
4798 18
4799 22
4800 26
4801 1
4802 3
4803 72
4804 18
4805 17
4806 46
4807 47
4808 69
4809 43
4810 3
4811 3
4812 46
4813 1
4814 48
4815 18
4816 18
4817 27
4818 20
4819 41
4820 27
4821 48
4822 48
4823 3
4824 36
4825 12
4826 48
4827 54
4828 68
4829 18
4830 12
4831 1
4832 48
4833 7
4834 35
4835 36
4836 52
4837 18
4838 66
4839 36
4840 17
4841 3
4842 18
4843 12
4844 7
4845 31
4846 3
4847 1
4848 1
4849 48
4850 48
4851 3
4852 36
4853 36
4854 19
4855 7
4856 1
4857 7
4858 1
4859 48
4860 63
4861 61
4862 36
4863 3
4864 22
4865 33
4866 17
4867 17
4868 3
4869 27
4870 1
4871 46
4872 36
4873 35
4874 18
4875 12
4876 48
4877 7
4878 36
4879 18
4880 3
4881 18
4882 52
4883 7
4884 7
4885 48
4886 3
4887 18
4888 7
4889 3
4890 7
4891 11
4892 33
4893 18
4894 11
4895 7
4896 19
4897 7
4898 77
4899 36
4900 31
4901 18
4902 46
4903 16
4904 7
4905 26
4906 42
4907 3
4908 27
4909 1
4910 3
4911 18
4912 15
4913 36
4914 46
4915 30
4916 18
4917 27
4918 19
4919 1
4920 48
4921 4
4922 3
4923 18
4924 3
4925 3
4926 7
4927 7
4928 25
4929 7
4930 15
4931 3
4932 53
4933 14
4934 15
4935 48
4936 47
4937 4
4938 8
4939 18
4940 3
4941 3
4942 19
4943 18
4944 31
4945 16
4946 3
4947 3
4948 14
4949 52
4950 48
4951 16
4952 36
4953 36
4954 14
4955 13
4956 57
4957 36
4958 18
4959 53
4960 7
4961 19
4962 48
4963 15
4964 7
4965 15
4966 7
4967 31
4968 48
4969 7
4970 7
4971 36
4972 3
4973 19
4974 3
4975 29
4976 14
4977 7
4978 19
4979 48
4980 36
4981 48
4982 7
4983 21
4984 70
4985 37
4986 37
4987 37
4988 27
4989 7
4990 27
4991 5
4992 18
4993 8
4994 60
4995 27
4996 14
4997 3
4998 7
4999 7
5000 14
5001 16
5002 2
5003 1
5004 52
5005 3
5006 18
5007 18
5008 1
5009 33
5010 7
5011 46
5012 52
5013 43
5014 36
5015 12
5016 36
5017 7
5018 7
5019 29
5020 52
5021 14
5022 48
5023 4
5024 4
5025 3
5026 19
5027 56
5028 3
5029 24
5030 4
5031 36
5032 8
5033 5
5034 46
5035 31
5036 31
5037 46
5038 19
5039 36
5040 36
5041 3
5042 14
5043 31
5044 18
5045 1
5046 19
5047 8
5048 7
5049 15
5050 3
5051 27
5052 1
5053 18
5054 46
5055 73
5056 17
5057 48
5058 48
5059 18
5060 42
5061 33
5062 27
5063 3
5064 36
5065 18
5066 19
5067 70
5068 1
5069 16
5070 52
5071 48
5072 0
5073 48
5074 14
5075 37
5076 18
5077 36
5078 3
5079 14
5080 48
5081 3
5082 8
5083 41
5084 14
5085 7
5086 7
5087 48
5088 16
5089 46
5090 48
5091 7
5092 52
5093 16
5094 19
5095 1
5096 6
5097 15
5098 7
5099 7
5100 36
5101 1
5102 8
5103 7
5104 18
5105 27
5106 37
5107 18
5108 36
5109 18
5110 27
5111 1
5112 36
5113 7
5114 26
5115 7
5116 3
5117 46
5118 48
5119 52
5120 19
5121 36
5122 18
5123 7
5124 48
5125 2
5126 6
5127 3
5128 27
5129 48
5130 3
5131 48
5132 41
5133 48
5134 46
5135 48
5136 18
5137 16
5138 43
5139 36
5140 3
5141 36
5142 48
5143 73
5144 48
5145 23
5146 3
5147 36
5148 8
5149 27
5150 36
5151 36
5152 48
5153 40
5154 1
5155 26
5156 41
5157 19
5158 18
5159 48
5160 3
5161 6
5162 53
5163 36
5164 53
5165 48
5166 48
5167 7
5168 5
5169 18
5170 19
5171 7
5172 6
5173 36
5174 18
5175 26
5176 36
5177 41
5178 63
5179 26
5180 22
5181 48
5182 0
5183 4
5184 11
5185 49
5186 42
5187 17
5188 13
5189 16
5190 48
5191 18
5192 67
5193 1
5194 16
5195 36
5196 3
5197 48
5198 7
5199 7
5200 46
5201 41
5202 52
5203 18
5204 43
5205 3
5206 41
5207 5
5208 19
5209 48
5210 41
5211 26
5212 29
5213 36
5214 36
5215 18
5216 67
5217 74
5218 36
5219 52
5220 11
5221 7
5222 52
5223 7
5224 48
5225 27
5226 17
5227 58
5228 18
5229 14
5230 3
5231 43
5232 18
5233 18
5234 1
5235 12
5236 11
5237 26
5238 18
5239 17
5240 18
5241 54
5242 18
5243 48
5244 2
5245 6
5246 48
5247 27
5248 48
5249 18
5250 41
5251 48
5252 18
5253 7
5254 19
5255 48
5256 7
5257 3
5258 42
5259 3
5260 42
5261 29
5262 18
5263 1
5264 48
5265 12
5266 18
5267 31
5268 3
5269 29
5270 1
5271 48
5272 1
5273 7
5274 48
5275 19
5276 54
5277 7
5278 48
5279 5
5280 45
5281 3
5282 48
5283 42
5284 5
5285 3
5286 19
5287 35
5288 54
5289 18
5290 7
5291 8
5292 37
5293 37
5294 37
5295 41
5296 36
5297 18
5298 65
5299 37
5300 1
5301 27
5302 12
5303 67
5304 48
5305 37
5306 48
5307 29
5308 57
5309 4
5310 1
5311 3
5312 16
5313 7
5314 7
5315 3
5316 7
5317 17
5318 3
5319 7
5320 3
5321 7
5322 3
5323 48
5324 57
5325 7
5326 18
5327 66
5328 7
5329 7
5330 7
5331 5
5332 13
5333 37
5334 7
5335 48
5336 18
5337 7
5338 37
5339 52
5340 62
5341 12
5342 18
5343 48
5344 3
5345 37
5346 37
5347 73
5348 67
5349 35
5350 7
5351 3
5352 37
5353 48
5354 7
5355 37
5356 65
5357 36
5358 7
5359 18
5360 55
5361 30
5362 7
5363 7
5364 14
5365 37
5366 18
5367 36
5368 48
5369 51
5370 48
5371 6
5372 3
5373 41
5374 39
5375 37
5376 43
5377 7
5378 43
5379 48
5380 48
5381 36
5382 19
5383 33
5384 28
5385 52
5386 61
5387 12
5388 2
5389 27
5390 12
5391 65
5392 18
5393 37
5394 48
5395 35
5396 1
5397 70
5398 18
5399 36
5400 3
5401 57
5402 3
5403 17
5404 53
5405 36
5406 48
5407 37
5408 15
5409 37
5410 63
5411 37
5412 7
5413 46
5414 3
5415 48
5416 75
5417 6
5418 37
5419 37
5420 33
5421 3
5422 48
5423 7
5424 0
5425 15
5426 3
5427 18
5428 7
5429 37
5430 57
5431 54
5432 3
5433 37
5434 18
5435 37
5436 48
5437 3
5438 13
5439 18
5440 58
5441 36
5442 48
5443 48
5444 48
5445 43
5446 36
5447 3
5448 3
5449 3
5450 48
5451 4
5452 7
5453 37
5454 6
5455 21
5456 29
5457 36
5458 18
5459 18
5460 39
5461 3
5462 36
5463 36
5464 37
5465 48
5466 37
5467 18
5468 1
5469 18
5470 48
5471 53
5472 61
5473 36
5474 36
5475 37
5476 77
5477 18
5478 48
5479 43
5480 7
5481 46
5482 37
5483 7
5484 18
5485 46
5486 37
5487 48
5488 46
5489 23
5490 0
5491 27
5492 36
5493 7
5494 37
5495 7
5496 37
5497 36
5498 16
5499 7
5500 48
5501 36
5502 7
5503 48
5504 78
5505 37
5506 3
5507 22
5508 48
5509 36
5510 48
5511 36
5512 10
5513 46
5514 48
5515 7
5516 46
5517 37
5518 1
5519 50
5520 22
5521 15
5522 36
5523 3
5524 48
5525 18
5526 6
5527 7
5528 27
5529 46
5530 19
5531 15
5532 48
5533 4
5534 36
5535 48
5536 3
5537 3
5538 36
5539 64
5540 54
5541 48
5542 28
5543 41
5544 44
5545 19
5546 3
5547 64
5548 37
5549 21
5550 3
5551 72
5552 59
5553 37
5554 36
5555 48
5556 71
5557 37
5558 37
5559 37
5560 8
5561 18
5562 13
5563 36
5564 15
5565 18
5566 48
5567 3
5568 22
5569 54
5570 15
5571 3
5572 57
5573 0
5574 48
5575 1
5576 18
5577 57
5578 36
5579 1
5580 18
5581 7
5582 52
5583 3
5584 48
5585 2
5586 6
5587 1
5588 7
5589 31
5590 18
5591 3
5592 40
5593 36
5594 37
5595 22
5596 59
5597 58
5598 5
5599 52
5600 48
5601 18
5602 14
5603 31
5604 7
5605 37
5606 8
5607 46
5608 0
5609 22
5610 18
5611 7
5612 44
5613 48
5614 46
5615 52
5616 40
5617 4
5618 18
5619 3
5620 3
5621 46
5622 7
5623 11
5624 52
5625 7
5626 37
5627 48
5628 52
5629 48
5630 18
5631 26
5632 37
5633 7
5634 37
5635 18
5636 50
5637 46
5638 36
5639 33
5640 36
5641 6
5642 7
5643 48
5644 14
5645 36
5646 7
5647 37
5648 3
5649 31
5650 7
5651 31
5652 46
5653 48
5654 31
5655 18
5656 3
5657 52
5658 18
5659 7
5660 52
5661 37
5662 48
5663 36
5664 36
5665 3
5666 31
5667 37
5668 48
5669 18
5670 31
5671 36
5672 52
5673 46
5674 40
5675 36
5676 37
5677 48
5678 46
5679 58
5680 41
5681 37
5682 37
5683 28
5684 36
5685 46
5686 7
5687 31
5688 59
5689 37
5690 19
5691 73
5692 26
5693 3
5694 31
5695 26
5696 32
5697 18
5698 57
5699 36
5700 36
5701 37
5702 37
5703 52
5704 31
5705 48
5706 7
5707 52
5708 31
5709 36
5710 36
5711 52
5712 29
5713 1
5714 18
5715 18
5716 36
5717 46
5718 29
5719 17
5720 3
5721 46
5722 28
5723 7
5724 48
5725 37
5726 37
5727 31
5728 36
5729 26
5730 52
5731 18
5732 63
5733 6
5734 52
5735 18
5736 3
5737 48
5738 31
5739 37
5740 37
5741 46
5742 18
5743 37
5744 3
5745 3
5746 18
5747 7
5748 48
5749 31
5750 18
5751 48
5752 7
5753 46
5754 48
5755 7
5756 46
5757 78
5758 3
5759 52
5760 17
5761 46
5762 2
5763 18
5764 15
5765 37
5766 37
5767 63
5768 36
5769 36
5770 3
5771 48
5772 18
5773 36
5774 5
5775 36
5776 3
5777 17
5778 37
5779 3
5780 7
5781 3
5782 31
5783 56
5784 48
5785 37
5786 48
5787 37
5788 37
5789 52
5790 48
5791 21
5792 18
5793 71
5794 37
5795 46
5796 3
5797 48
5798 37
5799 36
5800 57
5801 18
5802 3
5803 36
5804 36
5805 36
5806 48
5807 7
5808 52
5809 36
5810 31
5811 48
5812 52
5813 22
5814 48
5815 48
5816 27
5817 7
5818 3
5819 18
5820 77
5821 37
5822 3
5823 52
5824 16
5825 51
5826 46
5827 52
5828 7
5829 7
5830 31
5831 37
5832 37
5833 31
5834 3
5835 3
5836 35
5837 3
5838 18
5839 46
5840 31
5841 3
5842 7
5843 52
5844 48
5845 3
5846 46
5847 7
5848 37
5849 18
5850 52
5851 16
5852 36
5853 15
5854 48
5855 48
5856 31
5857 3
5858 18
5859 37
5860 52
5861 16
5862 16
5863 36
5864 48
5865 48
5866 52
5867 16
5868 5
5869 31
5870 31
5871 16
5872 48
5873 46
5874 7
5875 36
5876 3
5877 37
5878 48
5879 48
5880 61
5881 39
5882 7
5883 46
5884 7
5885 46
5886 31
5887 36
5888 3
5889 7
5890 3
5891 26
5892 12
5893 48
5894 19
5895 46
5896 3
5897 48
5898 16
5899 36
5900 48
5901 36
5902 48
5903 48
5904 3
5905 1
5906 37
5907 52
5908 31
5909 46
5910 48
5911 7
5912 19
5913 18
5914 18
5915 3
5916 16
5917 14
5918 18
5919 31
5920 16
5921 30
5922 16
5923 37
5924 3
5925 30
5926 31
5927 3
5928 18
5929 3
5930 31
5931 37
5932 14
5933 36
5934 37
5935 19
5936 14
5937 52
5938 58
5939 46
5940 37
5941 52
5942 16
5943 18
5944 37
5945 16
5946 36
5947 48
5948 31
5949 7
5950 3
5951 31
5952 36
5953 36
5954 7
5955 36
5956 16
5957 57
5958 28
5959 37
5960 37
5961 18
5962 18
5963 18
5964 36
5965 22
5966 16
5967 48
5968 52
5969 48
5970 31
5971 37
5972 16
5973 16
5974 48
5975 4
5976 33
5977 7
5978 31
5979 18
5980 37
5981 16
5982 15
5983 3
5984 48
5985 52
5986 47
5987 15
5988 15
5989 7
5990 46
5991 7
5992 11
5993 12
5994 7
5995 36
5996 18
5997 31
5998 37
5999 31
6000 48
6001 48
6002 48
6003 4
6004 48
6005 37
6006 48
6007 7
6008 48
6009 37
6010 37
6011 36
6012 31
6013 18
6014 48
6015 37
6016 36
6017 6
6018 18
6019 7
6020 14
6021 46
6022 48
6023 52
6024 48
6025 37
6026 36
6027 46
6028 46
6029 46
6030 46
6031 36
6032 16
6033 48
6034 48
6035 10
6036 3
6037 48
6038 52
6039 79
6040 46
6041 36
6042 36
6043 46
6044 16
6045 36
6046 16
6047 37
6048 52
6049 7
6050 52
6051 48
6052 46
6053 36
6054 52
6055 52
6056 66
6057 52
6058 46
6059 37
6060 7
6061 7
6062 52
6063 3
6064 16
6065 17
6066 2
6067 36
6068 21
6069 48
6070 5
6071 48
6072 31
6073 18
6074 15
6075 37
6076 37
6077 37
6078 37
6079 62
6080 52
6081 18
6082 48
6083 18
6084 27
6085 31
6086 3
6087 3
6088 31
6089 7
6090 52
6091 52
6092 3
6093 52
6094 31
6095 7
6096 37
6097 31
6098 37
6099 52
6100 48
6101 16
6102 6
6103 52
6104 18
6105 46
6106 37
6107 1
6108 3
6109 52
6110 7
6111 36
6112 18
6113 27
6114 7
6115 18
6116 35
6117 22
6118 16
6119 48
6120 22
6121 3
6122 37
6123 36
6124 37
6125 41
6126 41
6127 46
6128 48
6129 3
6130 48
6131 31
6132 14
6133 52
6134 3
6135 5
6136 48
6137 16
6138 3
6139 39
6140 3
6141 34
6142 16
6143 7
6144 3
6145 31
6146 3
6147 36
6148 14
6149 36
6150 25
6151 43
6152 16
6153 35
6154 31
6155 36
6156 52
6157 41
6158 14
6159 49
6160 52
6161 14
6162 63
6163 46
6164 68
6165 36
6166 6
6167 52
6168 18
6169 19
6170 22
6171 37
6172 12
6173 48
6174 16
6175 17
6176 46
6177 52
6178 46
6179 31
6180 16
6181 29
6182 27
6183 17
6184 1
6185 33
6186 16
6187 16
6188 41
6189 0
6190 41
6191 36
6192 29
6193 40
6194 39
6195 3
6196 36
6197 1
6198 6
6199 31
6200 6
6201 52
6202 46
6203 53
6204 37
6205 14
6206 37
6207 36
6208 16
6209 7
6210 17
6211 63
6212 7
6213 46
6214 61
6215 37
6216 23
6217 16
6218 17
6219 26
6220 43
6221 52
6222 36
6223 16
6224 52
6225 34
6226 13
6227 46
6228 31
6229 14
6230 52
6231 27
6232 41
6233 42
6234 53
6235 6
6236 7
6237 31
6238 26
6239 18
6240 36
6241 8
6242 19
6243 18
6244 31
6245 14
6246 4
6247 3
6248 8
6249 42
6250 12
6251 41
6252 36
6253 52
6254 43
6255 36
6256 36
6257 14
6258 52
6259 18
6260 36
6261 17
6262 43
6263 36
6264 12
6265 31
6266 36
6267 60
6268 19
6269 14
6270 36
6271 7
6272 32
6273 13
6274 54
6275 36
6276 36
6277 16
6278 1
6279 17
6280 54
6281 2
6282 36
6283 37
6284 19
6285 25
6286 16
6287 54
6288 19
6289 52
6290 46
6291 5
6292 31
6293 48
6294 18
6295 38
6296 45
6297 14
6298 14
6299 53
6300 36
6301 75
6302 18
6303 6
6304 36
6305 36
6306 71
6307 12
6308 48
6309 14
6310 31
6311 16
6312 46
6313 54
6314 12
6315 36
6316 1
6317 52
6318 31
6319 5
6320 41
6321 36
6322 16
6323 16
6324 19
6325 17
6326 36
6327 17
6328 29
6329 65
6330 40
6331 42
6332 31
6333 23
6334 5
6335 57
6336 53
6337 29
6338 7
6339 52
6340 36
6341 13
6342 5
6343 5
6344 36
6345 48
6346 37
6347 5
6348 52
6349 46
6350 3
6351 3
6352 70
6353 16
6354 18
6355 36
6356 31
6357 16
6358 46
6359 24
6360 27
6361 36
6362 53
6363 36
6364 52
6365 52
6366 37
6367 66
6368 16
6369 5
6370 17
6371 41
6372 61
6373 2
6374 14
6375 54
6376 66
6377 3
6378 37
6379 33
6380 8
6381 41
6382 57
6383 36
6384 36
6385 31
6386 34
6387 37
6388 6
6389 57
6390 46
6391 5
6392 31
6393 16
6394 41
6395 37
6396 14
6397 37
6398 36
6399 36
6400 48
6401 52
6402 19
6403 55
6404 6
6405 5
6406 65
6407 57
6408 46
6409 7
6410 16
6411 16
6412 42
6413 12
6414 15
6415 46
6416 31
6417 12
6418 6
6419 12
6420 27
6421 3
6422 52
6423 36
6424 46
6425 31
6426 31
6427 36
6428 48
6429 0
6430 73
6431 16
6432 36
6433 73
6434 36
6435 46
6436 41
6437 6
6438 52
6439 31
6440 68
6441 46
6442 36
6443 53
6444 27
6445 4
6446 20
6447 37
6448 15
6449 41
6450 19
6451 6
6452 36
6453 4
6454 37
6455 11
6456 73
6457 36
6458 15
6459 31
6460 28
6461 8
6462 10
6463 28
6464 37
6465 27
6466 46
6467 53
6468 0
6469 8
6470 28
6471 52
6472 52
6473 12
6474 36
6475 26
6476 58
6477 36
6478 46
6479 76
6480 7
6481 31
6482 15
6483 12
6484 52
6485 7
6486 36
6487 35
6488 42
6489 36
6490 4
6491 15
6492 3
6493 15
6494 37
6495 16
6496 45
6497 21
6498 31
6499 29
6500 8
6501 4
6502 6
6503 15
6504 36
6505 46
6506 37
6507 31
6508 3
6509 52
6510 15
6511 5
6512 37
6513 49
6514 36
6515 36
6516 17
6517 46
6518 3
6519 28
6520 27
6521 16
6522 38
6523 29
6524 26
6525 3
6526 22
6527 31
6528 4
6529 52
6530 57
6531 77
6532 16
6533 36
6534 7
6535 45
6536 15
6537 36
6538 6
6539 57
6540 15
6541 30
6542 38
6543 56
6544 79
6545 4
6546 57
6547 3
6548 36
6549 19
6550 15
6551 37
6552 35
6553 3
6554 46
6555 41
6556 27
6557 3
6558 66
6559 24
6560 7
6561 6
6562 61
6563 57
6564 65
6565 16
6566 40
6567 43
6568 36
6569 14
6570 41
6571 52
6572 3
6573 11
6574 16
6575 37
6576 36
6577 3
6578 36
6579 73
6580 52
6581 37
6582 36
6583 36
6584 24
6585 11
6586 22
6587 68
6588 3
6589 36
6590 52
6591 15
6592 57
6593 39
6594 36
6595 3
6596 16
6597 16
6598 27
6599 14
6600 15
6601 36
6602 31
6603 55
6604 48
6605 36
6606 37
6607 14
6608 52
6609 14
6610 48
6611 16
6612 1
6613 8
6614 1
6615 48
6616 3
6617 13
6618 3
6619 41
6620 1
6621 15
6622 6
6623 22
6624 3
6625 48
6626 61
6627 3
6628 22
6629 35
6630 33
6631 0
6632 37
6633 48
6634 22
6635 69
6636 77
6637 52
6638 36
6639 3
6640 48
6641 46
6642 37
6643 48
6644 4
6645 48
6646 6
6647 22
6648 3
6649 30
6650 12
6651 48
6652 48
6653 48
6654 36
6655 46
6656 28
6657 5
6658 39
6659 26
6660 65
6661 3
6662 2
6663 16
6664 7
6665 3
6666 16
6667 1
6668 53
6669 48
6670 61
6671 34
6672 6
6673 36
6674 56
6675 37
6676 22
6677 3
6678 3
6679 13
6680 57
6681 52
6682 35
6683 16
6684 11
6685 1
6686 22
6687 48
6688 15
6689 53
6690 70
6691 17
6692 13
6693 22
6694 3
6695 1
6696 48
6697 75
6698 48
6699 36
6700 36
6701 50
6702 52
6703 48
6704 3
6705 18
6706 36
6707 1
6708 3
6709 48
6710 31
6711 6
6712 22
6713 61
6714 74
6715 9
6716 36
6717 36
6718 18
6719 48
6720 3
6721 48
6722 27
6723 36
6724 16
6725 19
6726 46
6727 57
6728 3
6729 16
6730 36
6731 7
6732 3
6733 13
6734 18
6735 26
6736 18
6737 27
6738 3
6739 36
6740 3
6741 18
6742 52
6743 17
6744 79
6745 7
6746 1
6747 35
6748 52
6749 18
6750 70
6751 57
6752 17
6753 3
6754 48
6755 37
6756 26
6757 13
6758 1
6759 36
6760 27
6761 18
6762 17
6763 52
6764 37
6765 37
6766 36
6767 36
6768 1
6769 48
6770 1
6771 48
6772 44
6773 4
6774 53
6775 54
6776 18
6777 1
6778 13
6779 18
6780 12
6781 49
6782 22
6783 26
6784 57
6785 1
6786 36
6787 48
6788 48
6789 60
6790 27
6791 27
6792 54
6793 76
6794 15
6795 37
6796 17
6797 12
6798 3
6799 36
6800 27
6801 52
6802 27
6803 18
6804 27
6805 51
6806 53
6807 46
6808 18
6809 18
6810 36
6811 37
6812 46
6813 18
6814 28
6815 48
6816 10
6817 12
6818 18
6819 36
6820 12
6821 52
6822 48
6823 48
6824 31
6825 36
6826 52
6827 17
6828 22
6829 37
6830 16
6831 18
6832 22
6833 53
6834 52
6835 52
6836 52
6837 26
6838 57
6839 31
6840 46
6841 48
6842 52
6843 22
6844 46
6845 17
6846 3
6847 18
6848 3
6849 18
6850 15
6851 36
6852 50
6853 38
6854 16
6855 5
6856 31
6857 7
6858 36
6859 27
6860 57
6861 46
6862 3
6863 17
6864 22
6865 17
6866 49
6867 3
6868 3
6869 17
6870 48
6871 36
6872 74
6873 48
6874 3
6875 1
6876 26
6877 57
6878 27
6879 36
6880 3
6881 71
6882 3
6883 27
6884 3
6885 7
6886 1
6887 7
6888 37
6889 48
6890 7
6891 5
6892 18
6893 3
6894 7
6895 48
6896 52
6897 27
6898 48
6899 12
6900 53
6901 52
6902 16
6903 3
6904 48
6905 16
6906 48
6907 39
6908 7
6909 43
6910 7
6911 63
6912 16
6913 48
6914 48
6915 18
6916 36
6917 14
6918 16
6919 3
6920 19
6921 7
6922 7
6923 7
6924 48
6925 7
6926 17
6927 16
6928 35
6929 71
6930 53
6931 24
6932 48
6933 3
6934 3
6935 63
6936 53
6937 48
6938 7
6939 39
6940 16
6941 48
6942 7
6943 14
6944 29
6945 7
6946 36
6947 31
6948 7
6949 48
6950 36
6951 60
6952 4
6953 42
6954 31
6955 27
6956 18
6957 16
6958 27
6959 54
6960 3
6961 43
6962 3
6963 44
6964 35
6965 1
6966 48
6967 1
6968 7
6969 18
6970 36
6971 18
6972 48
6973 7
6974 14
6975 16
6976 37
6977 68
6978 14
6979 7
6980 37
6981 57
6982 14
6983 27
6984 14
6985 46
6986 19
6987 70
6988 48
6989 3
6990 36
6991 7
6992 61
6993 15
6994 16
6995 3
6996 1
6997 7
6998 36
6999 14
7000 3
7001 17
7002 4
7003 18
7004 43
7005 18
7006 17
7007 4
7008 8
7009 71
7010 48
7011 1
7012 36
7013 46
7014 19
7015 48
7016 52
7017 1
7018 77
7019 22
7020 36
7021 19
7022 36
7023 36
7024 3
7025 18
7026 18
7027 36
7028 37
7029 18
7030 5
7031 14
7032 16
7033 7
7034 46
7035 42
7036 14
7037 36
7038 48
7039 36
7040 17
7041 18
7042 36
7043 7
7044 22
7045 36
7046 48
7047 48
7048 18
7049 8
7050 14
7051 7
7052 18
7053 1
7054 16
7055 1
7056 18
7057 14
7058 26
7059 14
7060 19
7061 48
7062 3
7063 27
7064 48
7065 16
7066 36
7067 38
7068 14
7069 5
7070 18
7071 26
7072 18
7073 62
7074 7
7075 3
7076 18
7077 3
7078 18
7079 36
7080 16
7081 3
7082 7
7083 22
7084 48
7085 56
7086 36
7087 27
7088 53
7089 18
7090 48
7091 17
7092 7
7093 42
7094 36
7095 43
7096 3
7097 3
7098 19
7099 12
7100 18
7101 3
7102 3
7103 61
7104 18
7105 36
7106 0
7107 18
7108 18
7109 19
7110 3
7111 3
7112 3
7113 48
7114 7
7115 3
7116 36
7117 36
7118 36
7119 3
7120 0
7121 16
7122 40
7123 48
7124 48
7125 4
7126 18
7127 3
7128 7
7129 3
7130 16
7131 48
7132 6
7133 3
7134 39
7135 14
7136 16
7137 3
7138 48
7139 7
7140 48
7141 70
7142 6
7143 22
7144 36
7145 18
7146 37
7147 35
7148 36
7149 31
7150 7
7151 3
7152 18
7153 36
7154 1
7155 18
7156 16
7157 0
7158 3
7159 1
7160 7
7161 27
7162 44
7163 31
7164 7
7165 3
7166 36
7167 40
7168 36
7169 3
7170 7
7171 3
7172 48
7173 0
7174 3
7175 48
7176 63
7177 16
7178 31
7179 16
7180 3
7181 15
7182 36
7183 6
7184 18
7185 19
7186 41
7187 3
7188 52
7189 7
7190 17
7191 14
7192 15
7193 48
7194 18
7195 24
7196 18
7197 47
7198 3
7199 7
7200 6
7201 61
7202 3
7203 7
7204 3
7205 36
7206 1
7207 48
7208 1
7209 26
7210 75
7211 14
7212 11
7213 48
7214 61
7215 48
7216 3
7217 26
7218 16
7219 18
7220 38
7221 6
7222 5
7223 6
7224 46
7225 7
7226 19
7227 48
7228 18
7229 7
7230 41
7231 6
7232 14
7233 48
7234 18
7235 36
7236 14
7237 36
7238 7
7239 18
7240 14
7241 36
7242 31
7243 0
7244 3
7245 3
7246 7
7247 36
7248 48
7249 14
7250 18
7251 19
7252 5
7253 41
7254 3
7255 18
7256 41
7257 41
7258 52
7259 1
7260 1
7261 13
7262 36
7263 3
7264 18
7265 53
7266 19
7267 41
7268 48
7269 7
7270 3
7271 48
7272 77
7273 14
7274 48
7275 0
7276 46
7277 7
7278 14
7279 18
7280 51
7281 3
7282 48
7283 22
7284 36
7285 26
7286 46
7287 36
7288 48
7289 43
7290 42
7291 70
7292 3
7293 5
7294 36
7295 36
7296 3
7297 48
7298 48
7299 48
7300 6
7301 27
7302 37
7303 64
7304 6
7305 16
7306 3
7307 36
7308 19
7309 40
7310 48
7311 5
7312 52
7313 36
7314 37
7315 3
7316 51
7317 36
7318 3
7319 48
7320 36
7321 36
7322 53
7323 48
7324 42
7325 1
7326 0
7327 16
7328 6
7329 76
7330 37
7331 16
7332 48
7333 37
7334 6
7335 3
7336 48
7337 79
7338 1
7339 57
7340 37
7341 3
7342 48
7343 36
7344 26
7345 7
7346 11
7347 36
7348 51
7349 45
7350 6
7351 37
7352 57
7353 39
7354 3
7355 52
7356 18
7357 36
7358 18
7359 45
7360 48
7361 3
7362 3
7363 7
7364 37
7365 39
7366 37
7367 59
7368 48
7369 74
7370 36
7371 44
7372 7
7373 36
7374 19
7375 7
7376 37
7377 18
7378 53
7379 3
7380 12
7381 48
7382 18
7383 7
7384 27
7385 70
7386 34
7387 3
7388 37
7389 48
7390 33
7391 75
7392 40
7393 79
7394 48
7395 3
7396 7
7397 18
7398 12
7399 3
7400 29
7401 37
7402 18
7403 17
7404 48
7405 5
7406 40
7407 3
7408 28
7409 77
7410 11
7411 3
7412 48
7413 38
7414 36
7415 5
7416 57
7417 48
7418 1
7419 63
7420 3
7421 55
7422 1
7423 22
7424 7
7425 37
7426 37
7427 48
7428 14
7429 17
7430 1
7431 3
7432 36
7433 48
7434 3
7435 37
7436 37
7437 19
7438 37
7439 18
7440 43
7441 18
7442 7
7443 3
7444 19
7445 18
7446 42
7447 37
7448 37
7449 39
7450 7
7451 38
7452 7
7453 37
7454 37
7455 2
7456 35
7457 18
7458 3
7459 12
7460 7
7461 36
7462 2
7463 37
7464 19
7465 48
7466 36
7467 37
7468 4
7469 36
7470 36
7471 68
7472 36
7473 48
7474 5
7475 48
7476 36
7477 48
7478 36
7479 15
7480 40
7481 18
7482 18
7483 7
7484 7
7485 14
7486 58
7487 3
7488 37
7489 7
7490 36
7491 3
7492 57
7493 51
7494 18
7495 42
7496 7
7497 36
7498 6
7499 3
7500 37
7501 7
7502 37
7503 53
7504 18
7505 18
7506 36
7507 6
7508 13
7509 5
7510 37
7511 37
7512 13
7513 43
7514 18
7515 27
7516 5
7517 18
7518 18
7519 37
7520 0
7521 48
7522 7
7523 7
7524 43
7525 37
7526 46
7527 3
7528 36
7529 37
7530 46
7531 37
7532 48
7533 19
7534 46
7535 36
7536 18
7537 12
7538 49
7539 48
7540 3
7541 19
7542 48
7543 46
7544 72
7545 16
7546 18
7547 18
7548 46
7549 46
7550 37
7551 7
7552 16
7553 48
7554 7
7555 18
7556 37
7557 19
7558 3
7559 37
7560 18
7561 1
7562 46
7563 8
7564 7
7565 41
7566 36
7567 46
7568 16
7569 28
7570 7
7571 3
7572 18
7573 22
7574 46
7575 65
7576 36
7577 37
7578 18
7579 7
7580 57
7581 22
7582 36
7583 3
7584 29
7585 18
7586 48
7587 37
7588 48
7589 22
7590 3
7591 73
7592 8
7593 18
7594 36
7595 3
7596 37
7597 75
7598 40
7599 46
7600 73
7601 58
7602 15
7603 37
7604 18
7605 46
7606 37
7607 7
7608 63
7609 48
7610 58
7611 12
7612 18
7613 46
7614 45
7615 55
7616 46
7617 18
7618 36
7619 33
7620 7
7621 3
7622 37
7623 37
7624 18
7625 46
7626 46
7627 31
7628 7
7629 37
7630 1
7631 3
7632 57
7633 39
7634 48
7635 48
7636 18
7637 1
7638 52
7639 36
7640 4
7641 3
7642 3
7643 37
7644 52
7645 46
7646 36
7647 31
7648 31
7649 36
7650 31
7651 36
7652 48
7653 31
7654 7
7655 22
7656 7
7657 64
7658 37
7659 0
7660 52
7661 7
7662 41
7663 6
7664 1
7665 18
7666 46
7667 36
7668 52
7669 36
7670 46
7671 31
7672 57
7673 46
7674 46
7675 46
7676 7
7677 26
7678 78
7679 31
7680 46
7681 31
7682 31
7683 37
7684 3
7685 22
7686 5
7687 7
7688 18
7689 37
7690 68
7691 4
7692 3
7693 7
7694 37
7695 3
7696 7
7697 35
7698 31
7699 48
7700 3
7701 39
7702 17
7703 29
7704 3
7705 3
7706 62
7707 48
7708 28
7709 7
7710 57
7711 18
7712 19
7713 36
7714 52
7715 3
7716 37
7717 37
7718 7
7719 46
7720 52
7721 7
7722 46
7723 52
7724 18
7725 52
7726 46
7727 18
7728 7
7729 0
7730 31
7731 18
7732 37
7733 18
7734 1
7735 46
7736 36
7737 18
7738 31
7739 3
7740 18
7741 26
7742 31
7743 3
7744 7
7745 37
7746 52
7747 48
7748 3
7749 60
7750 5
7751 52
7752 36
7753 7
7754 31
7755 3
7756 36
7757 7
7758 3
7759 29
7760 18
7761 48
7762 46
7763 52
7764 46
7765 3
7766 18
7767 36
7768 31
7769 37
7770 48
7771 52
7772 3
7773 15
7774 31
7775 46
7776 18
7777 66
7778 35
7779 37
7780 46
7781 24
7782 48
7783 37
7784 46
7785 3
7786 3
7787 36
7788 18
7789 36
7790 37
7791 52
7792 49
7793 52
7794 3
7795 3
7796 52
7797 31
7798 12
7799 7
7800 46
7801 31
7802 36
7803 70
7804 52
7805 46
7806 48
7807 12
7808 3
7809 6
7810 12
7811 3
7812 27
7813 78
7814 18
7815 52
7816 70
7817 48
7818 18
7819 36
7820 3
7821 21
7822 7
7823 36
7824 31
7825 46
7826 37
7827 3
7828 7
7829 36
7830 8
7831 31
7832 3
7833 46
7834 17
7835 37
7836 37
7837 46
7838 31
7839 46
7840 12
7841 3
7842 48
7843 31
7844 46
7845 36
7846 36
7847 7
7848 18
7849 3
7850 31
7851 48
7852 31
7853 66
7854 31
7855 48
7856 18
7857 7
7858 29
7859 3
7860 37
7861 46
7862 46
7863 73
7864 18
7865 18
7866 48
7867 46
7868 15
7869 18
7870 52
7871 16
7872 18
7873 18
7874 66
7875 16
7876 48
7877 37
7878 16
7879 27
7880 54
7881 52
7882 52
7883 6
7884 3
7885 3
7886 35
7887 36
7888 7
7889 52
7890 31
7891 18
7892 31
7893 26
7894 3
7895 16
7896 16
7897 33
7898 31
7899 37
7900 37
7901 48
7902 37
7903 7
7904 1
7905 18
7906 27
7907 16
7908 6
7909 52
7910 16
7911 7
7912 31
7913 37
7914 3
7915 3
7916 15
7917 31
7918 3
7919 18
7920 36
7921 19
7922 46
7923 7
7924 52
7925 3
7926 1
7927 16
7928 31
7929 46
7930 52
7931 18
7932 2
7933 57
7934 7
7935 31
7936 36
7937 36
7938 48
7939 36
7940 48
7941 52
7942 16
7943 16
7944 3
7945 3
7946 18
7947 3
7948 36
7949 69
7950 37
7951 16
7952 36
7953 7
7954 31
7955 37
7956 52
7957 48
7958 3
7959 18
7960 31
7961 18
7962 46
7963 37
7964 46
7965 46
7966 31
7967 31
7968 3
7969 7
7970 17
7971 16
7972 27
7973 7
7974 16
7975 7
7976 3
7977 3
7978 18
7979 52
7980 31
7981 52
7982 48
7983 46
7984 3
7985 48
7986 48
7987 27
7988 3
7989 1
7990 19
7991 6
7992 17
7993 37
7994 48
7995 48
7996 3
7997 36
7998 1
7999 4
8000 16
8001 13
8002 36
8003 14
8004 31
8005 7
8006 7
8007 46
8008 3
8009 16
8010 18
8011 37
8012 19
8013 48
8014 16
8015 18
8016 18
8017 48
8018 36
8019 48
8020 16
8021 37
8022 7
8023 7
8024 16
8025 37
8026 37
8027 52
8028 37
8029 18
8030 40
8031 18
8032 16
8033 37
8034 7
8035 7
8036 22
8037 16
8038 18
8039 18
8040 3
8041 48
8042 16
8043 18
8044 46
8045 31
8046 3
8047 46
8048 7
8049 48
8050 8
8051 7
8052 1
8053 48
8054 18
8055 11
8056 18
8057 3
8058 36
8059 52
8060 7
8061 37
8062 46
8063 61
8064 37
8065 37
8066 16
8067 52
8068 37
8069 36
8070 52
8071 46
8072 37
8073 16
8074 31
8075 60
8076 31
8077 3
8078 17
8079 46
8080 52
8081 37
8082 3
8083 3
8084 52
8085 52
8086 56
8087 46
8088 18
8089 7
8090 31
8091 16
8092 18
8093 17
8094 16
8095 27
8096 22
8097 14
8098 46
8099 3
8100 7
8101 46
8102 16
8103 44
8104 7
8105 59
8106 36
8107 36
8108 19
8109 16
8110 31
8111 18
8112 17
8113 37
8114 36
8115 48
8116 36
8117 16
8118 3
8119 37
8120 52
8121 46
8122 52
8123 63
8124 7
8125 18
8126 37
8127 7
8128 31
8129 27
8130 48
8131 37
8132 48
8133 0
8134 37
8135 3
8136 37
8137 3
8138 3
8139 36
8140 52
8141 19
8142 3
8143 46
8144 31
8145 19
8146 3
8147 33
8148 37
8149 31
8150 37
8151 31
8152 37
8153 46
8154 48
8155 35
8156 46
8157 27
8158 17
8159 18
8160 18
8161 48
8162 37
8163 7
8164 18
8165 46
8166 31
8167 7
8168 6
8169 3
8170 31
8171 31
8172 14
8173 27
8174 2
8175 3
8176 16
8177 18
8178 3
8179 31
8180 12
8181 7
8182 35
8183 3
8184 14
8185 7
8186 18
8187 48
8188 30
8189 37
8190 52
8191 31
8192 52
8193 19
8194 46
8195 18
8196 36
8197 16
8198 14
8199 31
8200 36
8201 14
8202 37
8203 53
8204 27
8205 33
8206 40
8207 36
8208 52
8209 36
8210 18
8211 48
8212 7
8213 65
8214 36
8215 46
8216 36
8217 19
8218 46
8219 36
8220 36
8221 52
8222 29
8223 16
8224 31
8225 14
8226 36
8227 27
8228 61
8229 36
8230 34
8231 36
8232 14
8233 1
8234 36
8235 15
8236 73
8237 27
8238 41
8239 7
8240 14
8241 31
8242 27
8243 31
8244 29
8245 31
8246 36
8247 46
8248 36
8249 26
8250 58
8251 52
8252 36
8253 36
8254 8
8255 52
8256 36
8257 6
8258 0
8259 36
8260 53
8261 12
8262 52
8263 28
8264 14
8265 53
8266 52
8267 74
8268 0
8269 16
8270 48
8271 14
8272 36
8273 13
8274 16
8275 31
8276 17
8277 46
8278 36
8279 36
8280 19
8281 19
8282 16
8283 3
8284 79
8285 31
8286 7
8287 7
8288 14
8289 15
8290 19
8291 16
8292 54
8293 34
8294 29
8295 8
8296 5
8297 14
8298 36
8299 31
8300 19
8301 54
8302 42
8303 43
8304 65
8305 54
8306 18
8307 7
8308 52
8309 37
8310 31
8311 14
8312 31
8313 70
8314 57
8315 27
8316 36
8317 36
8318 32
8319 1
8320 18
8321 5
8322 52
8323 5
8324 17
8325 37
8326 41
8327 7
8328 33
8329 71
8330 45
8331 5
8332 48
8333 52
8334 45
8335 6
8336 36
8337 48
8338 36
8339 16
8340 46
8341 74
8342 13
8343 53
8344 41
8345 5
8346 36
8347 7
8348 7
8349 46
8350 17
8351 40
8352 13
8353 46
8354 46
8355 17
8356 12
8357 36
8358 5
8359 14
8360 5
8361 44
8362 43
8363 6
8364 66
8365 46
8366 36
8367 16
8368 5
8369 52
8370 29
8371 31
8372 60
8373 6
8374 46
8375 14
8376 14
8377 19
8378 5
8379 5
8380 18
8381 4
8382 27
8383 51
8384 39
8385 31
8386 64
8387 39
8388 37
8389 46
8390 52
8391 52
8392 24
8393 31
8394 26
8395 58
8396 52
8397 16
8398 7
8399 32
8400 51
8401 7
8402 41
8403 19
8404 36
8405 46
8406 16
8407 12
8408 37
8409 7
8410 16
8411 27
8412 43
8413 31
8414 64
8415 19
8416 15
8417 17
8418 37
8419 16
8420 18
8421 63
8422 3
8423 37
8424 36
8425 57
8426 31
8427 42
8428 31
8429 16
8430 63
8431 46
8432 5
8433 16
8434 7
8435 33
8436 52
8437 57
8438 28
8439 37
8440 27
8441 14
8442 12
8443 53
8444 36
8445 37
8446 57
8447 54
8448 36
8449 37
8450 40
8451 46
8452 66
8453 16
8454 46
8455 48
8456 46
8457 19
8458 3
8459 2
8460 63
8461 28
8462 41
8463 46
8464 12
8465 12
8466 33
8467 36
8468 36
8469 48
8470 15
8471 12
8472 36
8473 36
8474 37
8475 15
8476 15
8477 16
8478 16
8479 36
8480 57
8481 36
8482 16
8483 46
8484 66
8485 40
8486 21
8487 20
8488 15
8489 41
8490 19
8491 46
8492 60
8493 5
8494 5
8495 36
8496 33
8497 15
8498 27
8499 46
8500 4
8501 46
8502 36
8503 46
8504 63
8505 56
8506 68
8507 13
8508 36
8509 59
8510 37
8511 22
8512 55
8513 4
8514 18
8515 29
8516 36
8517 15
8518 53
8519 33
8520 52
8521 31
8522 8
8523 49
8524 73
8525 15
8526 46
8527 22
8528 16
8529 37
8530 57
8531 42
8532 52
8533 7
8534 36
8535 7
8536 3
8537 39
8538 28
8539 15
8540 30
8541 31
8542 46
8543 16
8544 31
8545 11
8546 77
8547 36
8548 16
8549 14
8550 3
8551 8
8552 33
8553 79
8554 31
8555 56
8556 5
8557 14
8558 22
8559 43
8560 57
8561 3
8562 22
8563 71
8564 19
8565 14
8566 36
8567 14
8568 6
8569 51
8570 49
8571 45
8572 3
8573 7
8574 3
8575 22
8576 31
8577 7
8578 37
8579 24
8580 45
8581 3
8582 2
8583 41
8584 55
8585 37
8586 57
8587 28
8588 46
8589 3
8590 28
8591 36
8592 49
8593 37
8594 36
8595 41
8596 65
8597 22
8598 30
8599 15
8600 16
8601 22
8602 40
8603 36
8604 62
8605 67
8606 5
8607 4
8608 52
8609 3
8610 36
8611 45
8612 49
8613 16
8614 5
8615 56
8616 36
8617 61
8618 34
8619 3
8620 47
8621 37
8622 52
8623 15
8624 13
8625 5
8626 57
8627 36
8628 38
8629 15
8630 36
8631 33
8632 3
8633 40
8634 16
8635 18
8636 36
8637 3
8638 19
8639 6
8640 4
8641 36
8642 4
8643 36
8644 48
8645 36
8646 46
8647 48
8648 14
8649 52
8650 15
8651 36
8652 41
8653 48
8654 52
8655 58
8656 3
8657 48
8658 77
8659 15
8660 6
8661 37
8662 1
8663 33
8664 36
8665 48
8666 6
8667 41
8668 7
8669 52
8670 36
8671 3
8672 52
8673 48
8674 36
8675 22
8676 77
8677 36
8678 63
8679 3
8680 48
8681 39
8682 36
8683 22
8684 3
8685 39
8686 48
8687 63
8688 44
8689 48
8690 3
8691 15
8692 37
8693 33
8694 48
8695 52
8696 36
8697 48
8698 43
8699 16
8700 3
8701 48
8702 29
8703 13
8704 46
8705 48
8706 1
8707 3
8708 48
8709 3
8710 31
8711 1
8712 22
8713 8
8714 36
8715 8
8716 48
8717 48
8718 4
8719 1
8720 46
8721 3
8722 39
8723 4
8724 15
8725 76
8726 78
8727 37
8728 35
8729 36
8730 69
8731 57
8732 48
8733 23
8734 48
8735 7
8736 36
8737 3
8738 53
8739 48
8740 3
8741 52
8742 3
8743 46
8744 48
8745 37
8746 17
8747 37
8748 1
8749 3
8750 69
8751 61
8752 1
8753 31
8754 58
8755 3
8756 75
8757 49
8758 3
8759 46
8760 56
8761 27
8762 31
8763 3
8764 16
8765 48
8766 3
8767 46
8768 18
8769 3
8770 16
8771 0
8772 36
8773 31
8774 18
8775 3
8776 3
8777 36
8778 1
8779 15
8780 36
8781 13
8782 18
8783 3
8784 48
8785 67
8786 3
8787 46
8788 3
8789 1
8790 36
8791 18
8792 18
8793 31
8794 5
8795 18
8796 15
8797 48
8798 48
8799 45
8800 31
8801 27
8802 25
8803 5
8804 36
8805 47
8806 48
8807 52
8808 18
8809 27
8810 22
8811 16
8812 15
8813 36
8814 48
8815 12
8816 48
8817 36
8818 18
8819 36
8820 36
8821 36
8822 35
8823 53
8824 13
8825 54
8826 17
8827 27
8828 62
8829 18
8830 37
8831 26
8832 70
8833 47
8834 48
8835 16
8836 72
8837 15
8838 31
8839 48
8840 1
8841 46
8842 36
8843 3
8844 1
8845 48
8846 3
8847 18
8848 48
8849 31
8850 31
8851 1
8852 24
8853 16
8854 48
8855 32
8856 18
8857 22
8858 27
8859 48
8860 18
8861 12
8862 12
8863 36
8864 3
8865 62
8866 1
8867 18
8868 36
8869 18
8870 48
8871 42
8872 37
8873 5
8874 22
8875 3
8876 53
8877 31
8878 11
8879 11
8880 53
8881 48
8882 18
8883 37
8884 53
8885 41
8886 22
8887 16
8888 31
8889 48
8890 57
8891 18
8892 16
8893 3
8894 3
8895 36
8896 57
8897 12
8898 74
8899 17
8900 3
8901 16
8902 3
8903 70
8904 3
8905 1
8906 42
8907 18
8908 52
8909 31
8910 17
8911 18
8912 46
8913 1
8914 48
8915 18
8916 26
8917 1
8918 36
8919 3
8920 46
8921 36
8922 16
8923 48
8924 8
8925 8
8926 3
8927 3
8928 1
8929 52
8930 46
8931 35
8932 27
8933 48
8934 7
8935 47
8936 17
8937 14
8938 22
8939 35
8940 48
8941 36
8942 27
8943 3
8944 27
8945 40
8946 7
8947 57
8948 16
8949 31
8950 7
8951 7
8952 48
8953 36
8954 12
8955 17
8956 7
8957 16
8958 31
8959 0
8960 18
8961 19
8962 22
8963 15
8964 3
8965 1
8966 46
8967 46
8968 14
8969 52
8970 29
8971 3
8972 16
8973 7
8974 18
8975 11
8976 43
8977 14
8978 3
8979 48
8980 36
8981 3
8982 17
8983 67
8984 19
8985 16
8986 7
8987 36
8988 54
8989 3
8990 18
8991 18
8992 31
8993 19
8994 27
8995 49
8996 32
8997 1
8998 6
8999 1
9000 52
9001 4
9002 3
9003 48
9004 6
9005 3
9006 36
9007 31
9008 22
9009 3
9010 7
9011 36
9012 27
9013 48
9014 65
9015 46
9016 3
9017 7
9018 4
9019 46
9020 7
9021 35
9022 48
9023 48
9024 36
9025 14
9026 18
9027 36
9028 43
9029 18
9030 18
9031 36
9032 36
9033 3
9034 3
9035 3
9036 8
9037 48
9038 27
9039 48
9040 16
9041 7
9042 7
9043 22
9044 43
9045 48
9046 52
9047 14
9048 7
9049 18
9050 42
9051 7
9052 70
9053 18
9054 1
9055 33
9056 52
9057 48
9058 3
9059 48
9060 31
9061 18
9062 31
9063 19
9064 3
9065 16
9066 5
9067 63
9068 3
9069 22
9070 7
9071 7
9072 27
9073 72
9074 34
9075 48
9076 18
9077 31
9078 46
9079 16
9080 48
9081 36
9082 18
9083 14
9084 48
9085 1
9086 48
9087 3
9088 7
9089 8
9090 31
9091 18
9092 27
9093 31
9094 37
9095 7
9096 27
9097 57
9098 16
9099 7
9100 53
9101 14
9102 3
9103 48
9104 3
9105 31
9106 66
9107 48
9108 8
9109 7
9110 7
9111 16
9112 18
9113 17
9114 73
9115 4
9116 37
9117 66
9118 19
9119 14
9120 48
9121 54
9122 7
9123 19
9124 45
9125 25
9126 48
9127 36
9128 48
9129 23
9130 18
9131 3
9132 3
9133 52
9134 7
9135 18
9136 18
9137 48
9138 48
9139 73
9140 3
9141 55
9142 18
9143 18
9144 48
9145 14
9146 18
9147 27
9148 48
9149 27
9150 7
9151 7
9152 36
9153 37
9154 27
9155 33
9156 31
9157 46
9158 48
9159 15
9160 52
9161 12
9162 37
9163 51
9164 16
9165 27
9166 18
9167 7
9168 76
9169 36
9170 41
9171 1
9172 57
9173 18
9174 18
9175 7
9176 41
9177 61
9178 7
9179 1
9180 3
9181 64
9182 3
9183 7
9184 54
9185 36
9186 7
9187 18
9188 48
9189 7
9190 40
9191 3
9192 63
9193 48
9194 14
9195 36
9196 31
9197 48
9198 6
9199 33
9200 41
9201 7
9202 22
9203 18
9204 7
9205 77
9206 7
9207 22
9208 3
9209 76
9210 28
9211 6
9212 48
9213 28
9214 26
9215 6
9216 17
9217 18
9218 41
9219 54
9220 13
9221 25
9222 17
9223 5
9224 36
9225 6
9226 1
9227 7
9228 18
9229 36
9230 36
9231 7
9232 3
9233 41
9234 30
9235 7
9236 3
9237 48
9238 25
9239 6
9240 48
9241 18
9242 26
9243 7
9244 6
9245 17
9246 18
9247 38
9248 16
9249 48
9250 31
9251 7
9252 7
9253 52
9254 6
9255 41
9256 3
9257 7
9258 52
9259 41
9260 7
9261 50
9262 7
9263 36
9264 36
9265 36
9266 3
9267 41
9268 1
9269 73
9270 39
9271 7
9272 8
9273 53
9274 16
9275 31
9276 18
9277 18
9278 31
9279 48
9280 36
9281 3
9282 14
9283 6
9284 39
9285 42
9286 36
9287 14
9288 1
9289 5
9290 48
9291 74
9292 41
9293 3
9294 18
9295 17
9296 1
9297 79
9298 3
9299 7
9300 79
9301 61
9302 3
9303 26
9304 6
9305 18
9306 18
9307 7
9308 7
9309 31
9310 18
9311 7
9312 48
9313 41
9314 54
9315 1
9316 2
9317 0
9318 18
9319 14
9320 18
9321 26
9322 36
9323 48
9324 5
9325 74
9326 3
9327 7
9328 48
9329 6
9330 18
9331 3
9332 48
9333 74
9334 55
9335 18
9336 29
9337 18
9338 31
9339 6
9340 36
9341 16
9342 36
9343 18
9344 7
9345 3
9346 19
9347 51
9348 36
9349 17
9350 48
9351 37
9352 36
9353 37
9354 6
9355 12
9356 18
9357 26
9358 38
9359 18
9360 36
9361 48
9362 5
9363 41
9364 37
9365 54
9366 4
9367 48
9368 41
9369 48
9370 21
9371 19
9372 5
9373 18
9374 26
9375 36
9376 71
9377 48
9378 37
9379 37
9380 19
9381 7
9382 3
9383 66
9384 36
9385 7
9386 18
9387 3
9388 54
9389 36
9390 48
9391 36
9392 37
9393 18
9394 43
9395 36
9396 3
9397 37
9398 37
9399 36
9400 7
9401 36
9402 48
9403 53
9404 40
9405 37
9406 18
9407 7
9408 57
9409 37
9410 3
9411 18
9412 7
9413 37
9414 11
9415 37
9416 37
9417 48
9418 57
9419 48
9420 3
9421 7
9422 7
9423 18
9424 48
9425 53
9426 3
9427 39
9428 7
9429 37
9430 7
9431 18
9432 3
9433 14
9434 58
9435 48
9436 18
9437 6
9438 41
9439 6
9440 36
9441 37
9442 7
9443 7
9444 7
9445 48
9446 3
9447 57
9448 53
9449 26
9450 53
9451 3
9452 48
9453 71
9454 3
9455 3
9456 5
9457 1
9458 14
9459 37
9460 47
9461 57
9462 41
9463 14
9464 16
9465 57
9466 36
9467 18
9468 3
9469 57
9470 3
9471 18
9472 5
9473 65
9474 18
9475 41
9476 19
9477 1
9478 37
9479 13
9480 7
9481 16
9482 12
9483 16
9484 18
9485 3
9486 36
9487 36
9488 3
9489 66
9490 54
9491 18
9492 18
9493 18
9494 54
9495 52
9496 48
9497 18
9498 48
9499 16
9500 7
9501 17
9502 37
9503 37
9504 48
9505 7
9506 3
9507 7
9508 37
9509 48
9510 7
9511 20
9512 7
9513 48
9514 3
9515 15
9516 36
9517 37
9518 36
9519 36
9520 7
9521 18
9522 3
9523 36
9524 3
9525 26
9526 48
9527 3
9528 6
9529 36
9530 48
9531 9
9532 25
9533 36
9534 48
9535 5
9536 43
9537 3
9538 19
9539 48
9540 3
9541 27
9542 18
9543 73
9544 3
9545 1
9546 48
9547 24
9548 0
9549 52
9550 48
9551 5
9552 37
9553 7
9554 37
9555 48
9556 11
9557 13
9558 70
9559 18
9560 62
9561 30
9562 5
9563 27
9564 14
9565 12
9566 48
9567 28
9568 18
9569 3
9570 18
9571 7
9572 7
9573 57
9574 18
9575 57
9576 15
9577 6
9578 37
9579 7
9580 48
9581 14
9582 30
9583 43
9584 48
9585 1
9586 18
9587 7
9588 12
9589 3
9590 17
9591 47
9592 36
9593 3
9594 49
9595 48
9596 36
9597 7
9598 54
9599 2
9600 34
9601 48
9602 3
9603 28
9604 25
9605 18
9606 52
9607 55
9608 48
9609 15
9610 18
9611 41
9612 49
9613 18
9614 36
9615 36
9616 4
9617 48
9618 3
9619 17
9620 36
9621 37
9622 36
9623 37
9624 61
9625 3
9626 29
9627 71
9628 18
9629 48
9630 4
9631 46
9632 48
9633 73
9634 18
9635 7
9636 37
9637 36
9638 3
9639 46
9640 36
9641 3
9642 46
9643 55
9644 7
9645 46
9646 11
9647 43
9648 3
9649 3
9650 7
9651 60
9652 18
9653 37
9654 4
9655 37
9656 7
9657 36
9658 9
9659 1
9660 7
9661 18
9662 18
9663 48
9664 46
9665 4
9666 48
9667 36
9668 46
9669 18
9670 32
9671 61
9672 36
9673 71
9674 22
9675 7
9676 7
9677 7
9678 37
9679 46
9680 5
9681 18
9682 46
9683 37
9684 52
9685 37
9686 18
9687 31
9688 48
9689 7
9690 7
9691 48
9692 3
9693 0
9694 35
9695 22
9696 46
9697 15
9698 4
9699 31
9700 3
9701 36
9702 3
9703 39
9704 52
9705 31
9706 18
9707 44
9708 18
9709 18
9710 31
9711 48
9712 46
9713 46
9714 52
9715 38
9716 52
9717 36
9718 31
9719 37
9720 36
9721 3
9722 37
9723 36
9724 28
9725 15
9726 7
9727 31
9728 31
9729 3
9730 37
9731 3
9732 48
9733 17
9734 26
9735 36
9736 3
9737 48
9738 48
9739 7
9740 46
9741 37
9742 31
9743 31
9744 7
9745 36
9746 36
9747 48
9748 48
9749 48
9750 37
9751 48
9752 31
9753 12
9754 4
9755 15
9756 31
9757 54
9758 17
9759 0
9760 31
9761 48
9762 18
9763 52
9764 7
9765 33
9766 19
9767 18
9768 37
9769 46
9770 36
9771 30
9772 53
9773 36
9774 52
9775 18
9776 26
9777 7
9778 37
9779 37
9780 40
9781 37
9782 52
9783 36
9784 33
9785 22
9786 4
9787 18
9788 37
9789 36
9790 52
9791 22
9792 7
9793 52
9794 52
9795 7
9796 52
9797 46
9798 19
9799 27
9800 5
9801 52
9802 37
9803 31
9804 0
9805 36
9806 31
9807 36
9808 36
9809 48
9810 45
9811 48
9812 31
9813 46
9814 67
9815 75
9816 18
9817 3
9818 18
9819 52
9820 7
9821 18
9822 46
9823 52
9824 52
9825 48
9826 7
9827 46
9828 31
9829 48
9830 31
9831 37
9832 36
9833 46
9834 48
9835 1
9836 46
9837 52
9838 31
9839 18
9840 52
9841 46
9842 52
9843 18
9844 31
9845 46
9846 34
9847 53
9848 15
9849 1
9850 31
9851 52
9852 26
9853 46
9854 48
9855 31
9856 36
9857 48
9858 37
9859 48
9860 65
9861 36
9862 18
9863 48
9864 8
9865 52
9866 46
9867 7
9868 55
9869 46
9870 31
9871 31
9872 19
9873 37
9874 48
9875 55
9876 31
9877 48
9878 12
9879 18
9880 46
9881 36
9882 46
9883 48
9884 37
9885 18
9886 48
9887 52
9888 37
9889 52
9890 37
9891 46
9892 3
9893 52
9894 18
9895 3
9896 31
9897 48
9898 37
9899 52
9900 37
9901 7
9902 56
9903 26
9904 46
9905 7
9906 7
9907 37
9908 46
9909 37
9910 36
9911 48
9912 31
9913 27
9914 7
9915 40
9916 18
9917 31
9918 16
9919 58
9920 46
9921 37
9922 39
9923 27
9924 48
9925 16
9926 16
9927 31
9928 16
9929 7
9930 52
9931 31
9932 18
9933 18
9934 18
9935 48
9936 31
9937 48
9938 16
9939 31
9940 36
9941 46
9942 48
9943 36
9944 3
9945 48
9946 18
9947 52
9948 18
9949 36
9950 75
9951 3
9952 16
9953 22
9954 31
9955 16
9956 31
9957 3
9958 3
9959 64
9960 46
9961 52
9962 36
9963 37
9964 16
9965 46
9966 49
9967 22
9968 53
9969 37
9970 7
9971 46
9972 18
9973 48
9974 61
9975 37
9976 36
9977 18
9978 16
9979 14
9980 7
9981 17
9982 36
9983 52
9984 46
9985 46
9986 46
9987 36
9988 52
9989 37
9990 3
9991 36
9992 19
9993 18
9994 18
9995 37
9996 3
9997 52
9998 18
9999 7
