1 0
839 1
1532 2
4804 0
5995 3
6829 4
8710 5
9142 0
9589 0
9755 0
9883 0
2 6
2367 6
6148 6
6316 0
6472 7
7091 6
7391 6
7646 6
8315 8
8810 9
9962 10
3 11
1762 12
2489 11
5051 13
6720 11
6725 14
8366 11
8764 11
8935 11
9393 15
9674 16
4 6
544 6
1680 6
3929 17
4491 18
7117 19
7541 20
7730 21
5 22
3195 23
4118 22
6412 22
6728 24
7493 25
7948 22
8322 22
8323 22
8999 26
9217 27
6 28
213 29
3467 30
3791 28
5752 31
5765 28
6185 32
6499 28
6634 28
6792 28
8890 33
7 34
301 35
393 36
659 34
1382 34
3634 5
4401 34
5303 34
5829 34
8283 37
9095 38
8 39
2361 40
2939 39
3525 39
4858 41
5611 39
5810 39
6225 39
8966 42
9035 31
9211 43
9 44
990 44
1691 44
3072 44
4006 45
4398 44
5561 44
5861 46
8232 47
8758 48
9522 49
10 50
57 51
1380 52
4148 53
7655 50
8481 54
8539 50
8803 50
9396 50
9937 55
9966 50
11 56
1899 56
2595 57
3400 58
5111 59
6690 56
7627 60
7676 56
8293 56
9421 61
9464 56
12 62
1257 63
2584 64
5520 62
5816 18
6548 65
7254 62
7285 62
7546 62
8067 62
9594 47
13 66
583 67
2651 68
3693 38
4894 69
5793 66
6512 66
6671 66
9297 66
9532 66
9540 52
14 5
2077 5
4302 70
4482 71
6989 5
7530 72
7679 63
7811 5
7817 73
9616 5
9890 5
15 74
3831 45
3962 75
4158 76
4958 74
5228 74
5274 77
5454 74
5457 74
6319 78
6854 74
16 39
1198 79
1361 39
3199 80
3491 81
3582 39
5184 39
9554 82
17 83
744 83
1746 84
5314 83
5317 83
6331 83
6410 83
7123 85
8926 27
9123 86
9694 87
18 88
1243 88
2172 88
4537 76
6201 88
7141 88
7767 88
8913 89
9348 0
9390 43
9946 90
19 91
3513 91
4602 91
5440 92
5524 91
5575 91
6241 91
9358 47
9455 93
9721 94
9817 43
20 95
2986 96
4319 95
5360 95
6145 95
6265 97
6282 95
6522 98
6912 95
7995 99
9480 100
21 5
986 101
1996 102
2387 94
2414 5
3045 10
6621 5
7708 5
8054 5
9223 5
9316 103
22 104
716 105
3211 106
4323 10
5878 107
5904 104
6828 108
8488 104
8622 104
9093 104
9833 104
23 109
1784 110
5487 0
8022 9
8333 109
8430 109
8983 109
9196 111
9607 112
9812 109
9878 109
24 111
2241 111
4827 113
5651 114
6006 115
8199 116
9072 8
9221 111
9842 111
9941 111
9985 111
25 117
991 118
2375 119
5005 89
5692 117
7461 117
8339 117
8684 120
8747 117
8814 121
8865 117
26 122
1413 122
3003 122
6085 122
6284 122
6870 122
8063 123
8389 124
8789 33
8974 66
9278 90
27 125
1275 125
2499 126
2842 125
3000 125
3168 127
3496 52
5371 128
5689 125
6183 125
9345 55
28 129
299 129
1278 104
1604 130
3456 129
3637 79
4172 129
4244 129
4668 39
4822 129
8908 15
29 20
6256 20
6377 20
7381 102
8060 20
8373 131
9054 20
9092 4
9834 132
9910 50
30 133
3098 37
4263 133
6134 134
6732 133
7118 133
7153 135
7249 133
7382 133
9724 38
31 26
3323 113
3931 83
7507 26
7696 26
8011 93
8482 38
9152 26
9198 26
10000 124
32 136
422 136
2300 136
2471 87
3641 78
5950 136
6578 137
6627 136
6879 136
7174 0
9709 138
33 139
2524 139
3046 39
5322 139
5721 140
7213 139
7838 141
8026 139
8036 139
9872 52
34 13
3381 142
5176 31
6179 13
6268 13
6285 13
6550 143
6712 13
6754 13
8159 144
9518 52
35 145
375 146
2484 147
3285 148
3930 145
5390 145
5803 145
5867 145
7103 145
7438 149
9497 33
36 150
4829 151
8596 152
8786 150
8793 150
9128 150
9187 150
9232 150
9677 153
9908 52
9934 132
37 154
1047 154
6136 154
7104 109
7197 155
7317 154
7492 156
7563 157
7830 154
8118 154
8224 158
38 159
3464 160
4095 83
5216 159
6776 49
7423 161
8020 159
8416 159
8593 47
8649 159
8664 159
39 162
1739 149
3529 163
7860 162
8385 164
8544 162
8686 162
8773 162
9038 162
9660 118
9778 165
40 166
137 10
4150 71
6104 167
6897 166
7570 168
8851 166
9244 166
9424 166
9669 166
9813 169
41 170
1464 170
2228 171
2240 172
3692 170
4852 170
5649 170
5946 21
6108 170
7316 173
9376 1
42 79
234 112
1193 79
2076 174
2249 175
3409 10
3500 79
4997 79
5076 79
6131 79
43 171
2518 171
4145 142
4673 171
5158 176
5462 171
5758 177
7899 171
7940 171
8733 178
8872 179
44 180
1276 180
2048 181
6577 180
6684 180
6713 180
7521 182
7715 5
8330 104
8410 180
9986 33
45 65
6850 183
7672 184
8132 38
8502 65
8557 65
8883 41
9238 65
9269 65
9508 65
9764 124
46 185
1322 186
1535 185
2915 185
3419 185
5688 9
5864 185
5915 185
7349 187
8055 5
9915 168
47 103
3918 188
5064 189
5656 153
8741 190
8907 103
9361 191
9539 103
9790 103
9826 103
9857 103
48 50
3107 50
5369 192
5621 193
6324 36
8285 50
9568 90
9818 99
49 194
298 181
535 195
2672 70
8554 194
9051 194
9263 194
9332 194
9340 194
9809 116
9935 27
50 30
4425 40
5599 196
6614 30
8102 52
8400 197
8759 198
9446 30
9675 30
9735 30
9869 30
51 199
1441 199
5824 199
7588 199
8041 200
8058 199
8248 199
8269 201
9957 89
52 141
1480 202
2155 45
5449 119
6544 141
6841 141
7210 203
8457 141
8485 141
53 204
357 204
3242 205
4062 204
4320 204
5304 204
5911 204
7518 206
8645 207
9061 9
54 208
3109 209
3307 153
8838 208
9070 208
9209 208
9585 168
9636 210
9673 208
9704 211
9784 208
55 212
745 213
2565 212
3433 212
3435 212
3895 214
5236 215
6749 212
9427 78
9865 0
9953 216
56 157
3361 157
3957 29
7308 157
7890 217
8177 157
8211 157
8241 218
9384 207
9412 33
903 51
923 51
936 51
2120 113
2903 51
4446 219
4648 51
9267 37
9714 220
58 221
904 222
5012 221
6530 221
7120 221
7251 223
7393 224
7659 221
8292 221
9097 225
59 226
342 227
2251 10
3983 226
5522 17
6379 226
7404 228
7732 226
7848 226
8313 226
9901 43
60 229
360 229
961 229
3094 230
4643 231
4977 229
5190 18
6024 229
6708 229
9169 232
9170 233
61 229
458 229
2569 229
3950 229
4120 229
4606 234
5059 28
6101 229
9141 33
9347 235
62 236
3037 236
4286 220
6194 236
6623 236
6967 236
7147 236
7265 215
7465 47
8006 110
8343 54
63 147
1384 40
1408 237
2293 147
2474 147
4280 147
5056 147
5573 147
6018 23
9058 124
9193 110
64 104
3865 238
4400 104
5880 214
6184 104
8212 239
8612 240
9275 104
9416 104
9648 33
65 241
2274 241
5088 92
5170 241
5257 233
6493 241
6674 241
6737 241
8150 48
8700 242
66 243
4027 243
4147 35
6005 243
6366 243
6436 243
6632 243
7134 244
7853 245
8732 124
67 246
805 247
1399 248
2538 246
3273 246
3470 246
4125 116
4474 246
5356 246
7916 12
9052 197
68 108
225 108
741 220
1141 61
3825 108
7209 249
8044 250
8558 108
9100 21
9409 108
9700 108
69 251
746 251
2396 251
3449 251
3462 251
4247 203
4980 251
5451 47
6408 252
6721 251
7309 109
70 121
346 23
1247 133
1727 253
5364 254
8704 152
8802 121
9218 121
9458 121
9537 121
71 101
630 101
1956 101
4215 101
4987 255
5537 101
6439 256
7080 257
7470 10
8105 2
72 64
2710 0
6537 258
7787 259
7891 64
7975 131
8205 64
8681 64
8869 64
9084 64
9561 15
73 219
2126 219
2500 206
3178 219
6142 219
6153 219
6856 155
7152 260
7892 108
9354 211
74 181
2743 66
3614 181
8363 173
8698 181
8722 0
8996 261
9255 181
9294 181
9371 181
9609 93
75 262
2056 262
2400 262
2462 262
3328 262
4689 0
6997 262
8303 27
9134 225
9379 89
76 263
2948 209
5376 264
6740 263
7173 263
7982 265
8074 263
8129 263
8743 263
9841 266
9852 99
77 267
1747 267
3110 267
3712 267
4737 267
4756 267
7557 27
7669 268
8114 269
9729 270
78 20
614 20
3379 271
4553 272
4813 273
6238 233
8048 20
8711 20
8813 20
9323 132
79 274
489 274
2023 274
3577 274
4359 275
4887 274
5976 274
6393 218
8490 143
8644 213
9286 197
80 147
3065 147
3812 147
3948 232
4836 147
5739 276
5792 147
6326 147
7434 277
9251 127
81 278
3995 279
4753 20
7748 278
8597 280
9202 278
9453 278
9659 278
9768 278
9854 38
82 168
1042 81
2828 168
3747 186
7427 281
7744 49
7837 168
7862 282
9380 168
9626 168
9999 168
83 222
2558 283
3706 222
5273 38
7336 224
7601 284
7711 222
8287 222
8465 222
8642 222
84 285
1202 285
1819 285
2388 145
4317 286
6130 285
6260 285
6312 287
6409 285
6825 288
8954 289
85 110
4389 182
5230 127
5913 232
8823 110
9094 48
9488 110
9613 110
9653 4
9753 110
86 290
534 290
2714 76
3651 290
5333 290
5504 117
6233 290
6693 290
7057 248
8688 288
87 291
7532 291
8633 10
8648 291
8745 270
8927 67
9190 291
9249 291
9562 33
9569 291
9968 18
88 124
681 124
2707 292
7466 135
7481 293
8576 124
8625 213
9033 124
9262 124
9565 270
89 98
251 98
1729 224
4555 294
4886 98
5870 98
6668 98
6984 98
9964 112
90 218
7839 277
7845 38
7996 218
8388 218
8953 210
9149 216
9397 218
9549 218
9644 218
9856 46
91 144
3438 51
4228 33
4914 202
6466 89
7045 295
7879 144
7958 144
8504 144
8547 144
92 295
2776 295
4721 295
5694 295
7321 295
7475 76
8540 153
9652 132
9926 292
93 296
2123 296
3985 296
5436 288
6173 296
6271 296
6810 27
7626 296
9808 266
94 184
8092 247
8263 297
8336 184
8453 128
8567 184
8970 184
9481 184
9486 184
9881 270
95 152
2197 287
5080 298
7189 152
7969 152
8448 152
9325 292
9369 135
96 299
3595 299
6950 300
7297 299
7840 15
8167 299
9157 42
9544 299
9762 299
9819 301
9843 8
97 298
483 298
670 298
2392 302
2653 298
3083 298
3607 298
4882 5
6519 50
8562 303
8734 19
98 52
1921 273
6831 304
7460 69
8784 18
9440 52
9730 52
9771 52
99 93
5156 32
5315 305
6570 93
8300 306
8369 93
8519 93
9241 93
9339 250
9362 191
100 307
3175 308
5690 149
6886 292
7257 307
7619 307
8305 307
8446 307
8922 307
8943 254
9870 90
101 120
2065 309
2338 310
2585 83
5443 119
6484 48
7012 120
8836 120
9030 120
9484 120
9620 120
102 311
3296 312
4898 311
5160 311
5409 311
5491 311
5646 313
6756 311
7278 9
8154 195
103 118
4152 314
5405 276
7084 315
9439 118
9586 118
9795 118
9859 118
104 286
399 286
2501 316
2957 286
3184 286
3497 204
3841 83
4459 286
5340 286
7196 30
105 120
1316 281
2910 317
5006 318
5735 72
8714 120
9350 120
9402 319
106 108
1207 108
3250 108
6122 30
7872 14
8847 158
9089 5
107 39
1171 39
2207 39
3272 39
5942 88
6222 39
7713 320
8946 217
9036 321
108 136
4142 10
5294 216
6695 38
7499 144
7689 136
9656 197
109 288
572 322
2479 202
4922 253
7200 288
7295 55
7410 288
7765 184
8518 288
8629 288
110 323
4375 323
4773 323
4981 323
5772 323
6545 323
7628 58
8466 173
8661 297
111 324
3515 2
4541 324
5266 324
6095 324
6249 324
6612 324
7232 325
7450 326
9102 303
112 69
1129 216
1690 69
1779 69
2291 69
6983 69
7182 228
7279 8
7568 164
8451 33
113 127
1185 327
1484 83
7945 248
7962 127
8003 300
8215 127
8414 86
9214 127
9428 127
9604 127
114 328
668 329
1620 330
2404 328
3152 328
4165 331
4518 328
5189 328
5473 146
6039 328
6818 259
115 54
3057 332
7788 333
8703 54
8956 54
9150 220
9207 54
9226 54
9349 54
9450 218
116 334
608 334
6843 335
8164 334
8781 50
9116 334
9256 334
9459 334
9746 336
117 216
1598 201
2612 337
5576 232
6733 216
8192 10
8604 5
8874 216
9646 216
118 297
2682 253
7582 46
7684 297
8422 166
9377 297
9564 47
9838 297
9853 297
9911 297
119 192
1479 192
2131 192
3007 338
4335 117
4700 192
4787 192
5316 93
5569 150
9045 110
120 297
1723 339
2101 297
5055 340
6569 77
8806 297
9191 18
9551 297
9664 89
9988 297
121 33
2416 333
3260 341
3581 245
7361 33
7621 258
9381 33
9394 33
9523 33
9560 342
9918 33
122 200
436 98
674 43
3785 46
3833 200
4183 200
5293 10
5547 200
8288 200
9059 299
123 343
1626 343
3562 96
3979 343
5011 47
5233 256
5882 343
6426 343
6430 343
9503 336
9942 46
124 260
1009 209
2429 132
5543 260
6952 260
7276 260
7584 270
7818 260
8590 260
125 151
752 74
1618 151
2320 151
3610 4
6489 151
6724 340
6801 151
7175 151
9101 190
9687 112
126 293
1383 344
2439 289
3165 317
8325 293
8826 293
8829 30
8905 293
8937 293
9015 293
9143 38
127 132
1422 40
6339 345
6742 67
7324 132
8573 132
9668 10
9855 168
128 168
2883 154
4678 83
7552 168
8447 220
8472 168
9001 168
9430 89
9630 168
9688 168
129 277
1551 346
1883 347
2198 277
4184 348
8653 277
8827 277
9096 319
130 218
3311 189
6453 156
7591 218
8902 218
9557 284
9706 18
9922 52
131 349
1710 349
2217 349
3917 349
3953 349
5210 349
7458 350
8271 21
8928 301
9188 52
9327 351
132 352
413 337
4130 352
4674 352
5052 352
5178 269
5396 352
6469 352
6852 61
9013 90
9414 31
133 262
1347 80
1354 262
1411 262
2260 17
4720 30
6486 353
134 75
1840 354
2582 75
3484 75
5377 75
6375 75
7447 299
7658 245
9877 38
9980 216
135 16
2349 136
7597 315
8992 16
9337 16
9471 16
9500 16
136 355
1595 18
3609 355
4812 355
5415 154
6998 355
7623 355
8952 355
9078 138
9638 281
3524 224
7789 10
8072 110
8221 356
8274 357
9183 10
9239 10
9805 10
9814 10
138 10
277 10
1064 358
6667 76
9373 10
9670 10
9887 10
9958 148
9970 10
139 269
1478 352
4111 0
6521 89
7167 269
7272 269
7572 71
8517 269
9304 269
9920 269
140 54
1894 253
5955 254
8043 266
8460 102
8787 54
141 180
1077 83
1776 180
2445 201
4698 180
4770 359
6454 180
8208 67
8727 360
142 89
3737 116
6588 89
6824 89
6941 221
8116 217
8783 89
9167 109
9258 89
9815 89
143 315
1437 253
2288 361
2917 182
5936 362
8756 315
8858 315
8998 315
9032 315
9828 109
144 100
1132 363
2477 364
3882 100
7110 121
9087 100
9288 100
9306 351
9836 100
9867 1
9982 100
145 199
3545 365
5206 207
5275 199
6859 366
7560 199
7596 199
146 367
1580 221
4788 130
6278 368
8523 367
9351 319
9711 367
9750 367
9925 367
9929 367
9974 292
147 369
309 369
363 72
645 139
2602 369
4560 369
4691 72
5852 369
7144 369
8769 52
9684 216
148 156
4171 370
6084 92
6495 156
6924 371
7772 156
8739 372
9353 156
9792 156
9875 156
149 286
2250 286
3127 286
5342 72
8606 321
150 109
1468 87
3493 109
6736 116
7952 303
7997 373
8458 342
8844 109
9171 109
151 111
8126 211
8510 111
8546 96
8640 100
8735 111
8736 217
9476 111
9538 111
152 54
2581 374
4169 189
7040 375
7780 301
8341 10
153 376
278 335
5722 4
6221 376
6750 376
7792 376
8256 116
8419 376
8464 376
9220 225
9426 30
154 204
1959 204
2116 204
3769 27
4489 204
5126 204
5166 204
9550 55
155 377
356 377
2750 377
3207 378
3221 377
3407 377
4073 379
4221 64
6181 331
7368 377
156 356
638 33
641 380
825 356
3215 381
6747 322
8168 356
8228 356
8749 356
9230 207
157 75
289 151
618 27
866 75
1716 75
3287 75
3498 75
5038 75
9904 33
158 273
1616 273
2940 273
3733 87
5553 273
5712 273
6287 140
8679 16
159 296
2377 126
2757 382
3122 241
4087 383
4585 296
6274 296
6568 25
7313 296
7970 296
160 384
1892 384
2560 384
2894 384
3954 384
4614 384
6602 385
8376 334
161 147
2321 37
3718 386
3924 147
4038 30
5254 147
8032 346
8888 266
162 37
912 221
1971 37
4598 354
5641 195
6944 387
7979 66
8819 37
9153 37
9519 37
9566 37
163 307
1390 388
4049 65
4819 307
5474 307
6202 346
7832 214
164 78
3478 258
4113 273
6523 55
7758 389
8307 78
8880 78
9707 319
9759 78
9825 78
9835 78
165 390
3090 391
3095 184
5539 390
7735 247
7989 390
8442 390
8454 392
8973 390
9071 390
166 393
1053 109
3429 393
4450 50
5515 393
5831 393
6247 393
7417 393
8209 0
9482 1
167 246
3404 246
3589 246
3887 90
8377 140
168 246
536 1
1927 246
2771 246
3078 246
4680 246
4961 242
5530 246
8270 216
169 165
4645 165
5204 38
5412 165
5967 373
8445 165
8877 165
9281 46
9837 165
170 369
1167 369
1875 276
2834 369
7506 27
9098 9
171 243
269 212
4460 40
5781 243
5929 201
9067 90
172 394
2608 394
4751 394
5091 394
6009 35
6047 1
6088 394
6847 394
7545 372
173 69
4003 69
5151 69
5192 395
5827 69
6309 69
6452 69
7219 142
7229 124
9590 112
174 83
837 396
1366 247
2545 83
8728 111
175 397
2031 286
3799 397
5067 212
6067 398
6195 397
7326 397
7533 397
7951 397
8076 102
9324 190
176 20
1705 176
4991 20
6031 151
8080 169
8591 399
9106 293
177 400
384 266
4994 337
5595 398
6460 400
6953 400
7400 351
8016 400
8794 400
8879 400
178 192
1307 192
3739 192
4725 378
4731 192
4866 344
5086 150
5581 192
5901 192
9490 135
179 384
785 70
1605 384
4810 384
5286 108
7902 384
8174 384
8566 33
8709 384
9553 15
180 193
1837 162
5510 401
7517 193
7963 198
8084 193
8687 193
8774 319
9047 193
9060 193
181 174
2665 174
3227 163
3475 381
4496 174
5620 174
6253 174
7763 174
9541 402
182 160
195 12
4514 329
6199 160
6535 344
7571 8
7810 160
8791 160
9224 160
9868 357
183 220
3861 220
4001 218
5063 86
6933 220
8456 220
8892 220
9119 220
9984 216
184 403
650 215
2520 340
2789 403
3889 167
4749 403
4814 403
4985 403
5671 403
6804 234
7455 175
185 285
3265 122
3509 253
3864 285
4727 285
4899 285
6099 285
6842 285
7111 313
8149 37
186 279
2028 279
3591 279
5327 279
5839 279
6420 279
7331 153
7396 211
8607 172
9939 61
187 172
3815 99
4271 393
5249 172
5300 93
5345 172
6880 172
7790 61
8079 172
188 142
2784 142
2965 169
5565 142
8613 388
9378 142
9858 142
9967 0
189 2
549 2
925 56
1701 2
2235 199
2285 404
3049 2
4105 405
4188 2
6647 2
190 245
582 245
4209 1
6558 0
6780 245
7096 64
7714 245
8723 245
8840 158
9794 220
191 406
5040 166
5979 406
6175 18
6176 406
6527 33
6976 406
7135 406
7387 406
7960 123
8914 210
192 224
2117 250
3550 383
3768 163
4234 345
4793 224
4948 224
6280 46
6624 224
193 292
571 292
1656 33
2879 332
6376 400
7412 310
9435 292
9757 292
9801 292
9806 292
194 38
5612 38
5648 38
7339 38
7693 0
8420 38
8511 46
8617 188
9738 225
2877 151
8875 12
9126 142
9460 12
9516 12
9556 12
9797 12
196 256
3089 121
4970 256
5486 256
6586 256
8500 184
8549 109
9849 292
197 165
851 50
4357 119
7611 49
8351 165
9020 66
9779 165
9965 165
198 352
2811 352
3320 352
3579 149
4153 352
5065 275
5626 0
5680 352
9679 49
199 300
1783 224
2272 120
2838 80
3258 300
6678 239
8123 300
8217 300
8529 300
8543 143
9495 300
200 282
398 282
3824 407
6208 282
7716 112
7734 165
7746 282
7809 50
8537 78
8587 282
8904 282
201 408
4823 220
4927 408
5014 408
5883 408
6207 270
6827 408
6929 408
7914 368
8496 37
9317 71
202 409
227 292
2016 298
2620 253
2918 409
3572 192
5231 409
6211 409
6261 409
6608 409
203 298
1698 298
1978 298
2223 298
2885 38
6320 202
7003 242
8499 410
204 67
967 279
4835 67
7479 67
7776 67
8353 67
9374 1
9432 67
205 342
7671 141
7721 302
8404 26
9008 342
9236 342
9265 342
9510 342
206 411
7656 5
8785 411
8837 411
9133 411
9147 411
9206 411
9647 124
207 307
765 12
1856 287
5923 307
7429 307
8762 8
9014 5
208 14
5434 122
6883 14
8672 337
8805 399
8854 14
8859 14
9737 14
9770 14
209 181
3399 99
5497 409
6065 267
6564 181
7292 96
8381 181
210 360
701 394
1052 81
2415 240
5132 81
5834 412
7212 360
8117 360
8551 360
8580 360
211 413
256 413
777 413
3174 81
3765 413
5009 413
5237 320
5902 414
7889 413
8358 43
212 300
1974 80
5138 300
7148 319
7330 16
8541 55
8696 1
1290 180
3290 259
3351 29
6783 29
7366 29
8152 29
8386 29
9056 250
214 149
217 380
3707 313
4352 286
6387 103
6397 149
6846 149
215 116
1902 166
2190 415
6679 116
7063 116
7081 240
8321 116
9766 116
9992 116
216 259
2959 416
4281 201
6140 398
7668 259
8337 259
8866 259
8941 259
9505 259
626 336
3190 417
6270 418
7917 380
7921 380
8768 380
8934 19
9177 380
9300 380
218 272
1741 272
2269 319
2662 272
4716 272
5003 378
5702 31
5776 272
6458 272
6729 419
219 33
1743 33
5687 420
6904 33
7638 123
7775 421
9026 33
9401 111
220 370
484 370
1406 370
2862 316
4274 370
4705 370
5185 86
6365 370
8183 312
8771 218
9860 138
221 20
1977 20
3838 422
4129 20
6190 359
6672 49
9987 165
222 350
239 167
1708 350
3047 314
4055 278
5544 350
5583 350
6662 350
8028 48
223 55
3282 55
4022 55
5755 55
5984 402
6778 345
6844 55
7616 55
9178 211
9950 38
224 163
1087 15
2849 163
3160 253
3440 52
5336 163
5465 163
5483 163
7042 35
2025 52
4469 276
4742 102
5410 217
6049 108
7777 400
226 125
1206 125
1811 324
3711 125
6002 125
6350 125
6644 125
9689 198
9921 38
5999 385
8238 292
8535 292
9785 33
9971 292
228 108
1054 199
1324 179
6871 15
8361 128
8526 108
9643 301
229 231
334 231
1297 231
1999 188
2554 249
4693 231
5423 231
5452 346
8915 373
9493 188
230 319
6440 248
7364 175
7510 19
9442 319
9690 319
231 292
3974 224
5182 17
8104 292
8433 111
8449 292
9050 292
9529 43
232 423
2504 423
3130 423
3585 2
6044 423
6699 423
6809 423
7271 25
233 424
1091 424
3224 424
4017 424
5493 313
5613 424
5840 424
9186 337
311 112
1569 114
3172 87
6223 112
6815 188
7078 355
9839 112
235 246
1689 246
1983 246
2428 207
3059 246
3944 234
4441 321
4760 246
4908 246
6021 89
236 188
240 410
2098 188
2821 188
4880 36
5053 177
5118 314
6334 396
9151 188
9277 188
9599 188
237 301
6985 301
7380 425
8405 37
9405 52
9610 301
9654 301
238 79
364 79
1581 42
3753 426
7375 242
9375 142
9463 49
361 167
1030 111
2769 167
4563 400
5227 167
5245 167
5959 340
6371 167
7854 164
3062 410
6534 0
6948 410
7782 427
7926 410
8443 410
9234 208
9649 357
241 223
2184 223
2932 208
6345 223
7053 223
7468 223
7754 131
8912 217
9716 191
242 428
2243 428
2550 168
5407 428
5507 428
6074 282
6656 315
7299 428
7426 428
9930 4
243 23
1591 114
2835 108
4470 23
5263 313
6922 23
7289 23
7452 195
7919 23
244 281
1451 202
4028 416
8236 281
8674 38
9411 281
9558 281
9591 281
9844 281
9951 5
245 147
1593 429
2906 163
3540 159
4231 250
7806 8
246 93
3321 93
6600 239
7186 430
7986 93
8509 93
8811 184
9776 93
247 151
816 151
1006 277
1189 255
2493 151
5367 151
5858 151
7888 421
8959 333
9796 138
248 297
2650 110
7947 366
8594 132
8766 297
249 431
2808 431
3088 431
5552 333
5919 431
5985 382
7023 188
7095 431
7474 431
250 48
5018 342
5145 275
8073 18
8701 48
9266 48
9662 48
4554 225
8891 336
8984 86
252 326
4026 432
4086 326
5331 326
6592 326
7048 311
7136 326
8699 49
253 38
3477 258
5813 149
6313 0
7283 268
7403 38
9276 38
9702 38
254 298
368 298
1122 405
2563 298
3897 305
4364 298
4924 298
5725 298
5800 126
255 398
1197 227
1389 398
1529 47
4318 398
4934 79
5847 398
1895 432
1990 285
4833 413
5262 318
5277 413
7905 396
257 39
1960 39
2181 94
7783 123
7968 299
9972 49
258 211
1318 180
1786 433
7900 211
8522 177
8871 21
9680 211
259 413
2708 388
6451 413
8059 208
8194 10
260 220
2578 123
3874 261
5668 220
5718 141
9334 220
9642 220
9645 112
9741 220
261 434
2278 336
2829 45
3457 434
3775 434
4943 434
6234 38
6807 434
6865 434
8352 118
8620 42
262 5
1224 215
3601 283
3845 275
4196 5
6607 363
7724 5
8439 5
9454 5
263 26
7934 26
264 97
379 21
404 303
4443 128
7395 97
8015 97
8070 97
8412 41
8846 97
8897 97
9443 93
265 363
4182 363
6514 363
6525 127
7322 363
7526 363
7704 363
7861 435
9588 165
9900 1
266 420
1515 351
2785 245
4471 420
6617 420
7697 420
8021 420
8213 336
267 45
272 45
827 339
1505 45
2767 45
3805 45
4316 45
4412 45
4710 436
6048 261
9891 270
268 327
2588 431
6307 327
6385 327
6414 327
6579 327
6666 327
6675 318
8960 104
637 281
1765 212
4839 83
5329 212
7390 111
270 266
589 135
1388 400
2530 416
6259 67
9535 266
9587 266
9897 266
271 275
1369 275
1627 24
3987 162
4636 275
4715 275
5677 227
5691 275
6171 275
6641 265
1192 1
1436 45
3710 45
4622 410
9227 18
9912 38
9956 385
273 167
380 167
1274 167
1317 167
3218 167
6332 167
7922 372
8065 104
8328 359
274 230
526 326
1418 230
1707 102
2133 230
2715 230
3522 230
6390 230
8528 112
275 218
3217 395
6082 96
7791 218
8639 66
9871 27
276 38
2574 129
5554 38
6402 259
8108 49
8275 38
778 127
5229 71
6461 60
9200 10
9789 10
9906 10
2517 146
2956 335
4850 335
5355 335
5471 165
7589 335
8570 38
279 201
3139 118
4098 437
6182 425
8201 112
9043 201
9667 27
9710 201
9863 201
9903 201
280 96
510 229
577 230
1258 20
5667 279
6802 43
9651 96
9861 96
9948 96
9963 96
281 60
2292 60
3085 60
3703 198
3759 60
5484 60
5676 60
7054 191
8133 9
282 50
3521 409
6283 187
6302 148
8173 50
8799 50
9383 50
9470 50
283 423
2074 423
2271 423
6443 185
7407 210
284 378
2423 378
2794 378
4937 378
4983 378
5208 438
6816 146
8812 77
9333 90
285 209
4030 209
7620 209
7988 209
8195 209
8463 209
9028 109
9944 46
286 210
4393 12
6969 310
7454 232
8945 210
9530 210
9718 210
9719 210
287 164
3956 56
6342 305
7011 164
7421 164
8207 164
9567 30
9628 118
288 430
2951 430
4901 430
5141 430
8782 430
8808 430
642 151
5874 371
290 33
3851 354
4748 33
6540 7
7480 33
8350 207
9066 33
9507 33
291 253
2783 253
3781 292
3903 253
4141 253
5624 145
5881 273
9571 357
292 136
599 136
678 136
1742 136
5696 36
7703 435
9691 94
293 258
1007 258
1588 18
1871 439
3777 258
3942 258
4009 258
5373 239
6965 440
294 0
5586 332
6076 302
7406 85
8578 0
8717 55
8987 0
9144 0
9889 0
295 441
2991 441
3393 441
4296 441
5357 441
5568 441
6907 336
9449 173
296 109
2035 442
3164 355
3216 174
5269 442
9624 109
297 187
842 121
2526 207
3014 314
5199 187
7236 29
8824 187
8955 187
9018 187
9174 187
514 3
8483 216
3444 129
3829 129
5095 213
300 242
3646 194
6490 59
7565 215
7762 242
8508 242
8697 242
8724 116
9135 118
3339 60
4561 35
6717 35
7107 35
7388 35
8894 100
9279 188
302 238
1503 238
2688 238
4366 238
4733 238
5681 272
5726 238
303 218
1912 218
5533 16
5842 250
7370 361
7961 11
304 216
1285 398
5282 216
7169 351
8392 216
8475 280
9114 216
9758 27
9880 52
305 127
4750 364
6774 133
7221 248
9222 132
9229 127
306 331
818 331
1204 133
3357 331
4131 331
4702 331
4945 300
5385 331
7985 118
307 224
2711 224
4066 204
4071 224
4311 353
5024 224
6485 116
7170 224
8166 260
9158 220
308 317
2671 188
2889 443
3674 317
4040 317
4052 0
4806 317
5414 373
5458 317
9914 303
3030 369
3099 273
5131 95
8971 82
310 435
1839 435
2010 89
8143 435
8459 194
8706 435
8938 276
800 284
4368 369
7190 58
7199 112
7756 112
8161 112
8291 17
9425 112
9695 188
312 15
1647 119
3060 154
5302 444
5659 392
8257 116
9513 15
313 434
1916 131
2424 434
3356 434
4207 434
6945 89
7154 110
314 242
1071 118
6298 207
8533 242
8767 48
9261 52
315 220
431 273
1452 128
1860 392
7613 365
7994 306
9627 220
9978 220
316 263
3112 445
3961 104
7008 263
7397 371
8289 263
317 382
617 116
2290 382
3129 382
5898 382
6549 297
6571 382
6942 28
8896 201
9699 211
318 274
595 274
1339 274
2531 274
4338 274
4699 274
6786 312
7275 321
8901 182
9404 0
319 261
497 189
700 125
4752 207
8090 261
9326 261
9335 261
320 211
7416 211
7784 216
8895 211
9129 211
9365 211
9422 118
9824 87
321 80
383 376
2220 80
4444 343
4452 80
4575 80
5098 80
9916 61
322 40
792 179
3354 40
3893 40
4458 405
4538 40
8432 292
9148 380
323 307
3181 33
4644 444
6001 236
8046 93
8929 153
324 75
1410 72
1640 75
1782 446
2365 75
3235 312
6566 416
9112 103
325 427
2067 244
6417 427
7165 427
7329 427
7449 351
7700 427
326 37
2097 438
6532 37
7224 37
7494 138
8393 37
8917 104
8949 37
9053 254
9131 37
327 255
7736 153
8471 319
8834 255
9057 255
9083 255
9413 96
9515 255
9605 255
9618 66
328 246
2693 246
5115 246
5951 80
6735 5
9756 30
329 441
968 441
2437 441
2748 200
4799 360
5128 441
5247 441
5538 441
8423 124
8713 225
330 338
2202 338
2943 31
3487 338
4568 338
4576 70
5871 338
7847 338
7904 389
331 111
3459 57
9074 177
9451 111
9943 111
332 77
3738 220
6995 77
8266 306
8579 77
9088 77
9121 77
9295 247
9302 138
333 99
3067 99
3602 267
7456 99
8112 99
9555 99
9989 99
731 331
935 231
5035 339
5218 231
7927 312
335 229
2685 176
4340 229
5957 229
6616 407
7580 166
336 388
2174 388
3353 163
3709 388
4420 329
5753 388
5891 86
7359 388
337 187
6836 284
7640 187
8678 187
9767 10
338 180
1104 180
1789 180
4248 31
5278 23
6174 411
6290 180
6359 180
8056 361
339 292
3427 10
5706 302
6276 5
6833 336
8440 165
9462 292
9736 292
340 110
3867 379
5146 110
5469 112
6536 289
7884 117
8506 110
8958 110
9952 138
341 194
1476 389
6992 116
7795 5
8034 38
9201 194
2099 227
3056 227
5607 227
6435 227
6851 265
7865 220
343 359
574 293
3124 376
4478 359
5673 155
8145 112
9016 359
9168 359
344 447
428 448
3252 415
3316 447
3796 447
4139 447
7115 447
7252 447
9595 124
345 80
414 2
931 309
985 80
2643 56
2793 80
4889 357
5215 80
6054 198
5309 162
5927 116
7277 23
7612 23
347 210
5808 219
6966 210
8180 292
348 140
930 140
1713 273
4336 140
5290 140
5475 140
6066 336
6150 140
7346 1
8187 266
349 11
464 349
3852 163
8615 11
8673 396
8841 11
8876 11
9665 96
350 192
598 107
918 439
4739 319
351 4
4551 173
6235 414
7852 4
9465 4
9787 4
9981 4
352 28
1944 28
2786 260
6823 111
7798 52
7942 187
353 384
887 418
4048 384
6686 384
7371 384
354 364
796 433
2043 364
5580 364
5937 364
7018 364
8951 313
9410 0
9445 284
355 176
3390 176
3617 176
4437 176
5954 176
6245 176
8444 169
2683 201
3981 377
2409 204
8186 177
9118 217
358 354
957 10
1587 351
2836 354
3123 210
4919 354
5017 354
5312 10
6839 354
8418 138
359 73
1659 386
3173 420
5324 364
6917 73
7013 73
7373 73
7769 73
9310 78
586 170
2283 233
6598 305
8641 17
1021 276
1027 371
3900 167
4016 232
8355 161
362 171
2969 171
4378 171
9048 201
9189 310
9597 336
9727 217
2244 72
5623 72
6052 201
6057 72
9976 93
4637 449
365 111
3405 235
3779 111
5775 16
7305 49
8605 5
9000 111
9231 284
366 7
566 450
3002 7
5386 101
5480 7
5585 7
9733 165
9991 220
367 28
2706 28
4106 28
4255 89
5393 28
7513 28
7634 28
565 298
7991 103
8310 66
369 361
2777 41
7603 359
7924 361
8312 361
8495 361
8666 21
8780 361
8881 361
9924 89
370 370
1315 426
2109 370
2638 370
3437 370
4224 370
5571 128
5889 370
6506 358
371 47
651 79
4631 47
5093 449
7690 47
9827 47
9873 47
9898 47
372 397
3279 362
3859 397
7544 385
9382 87
373 55
1368 78
2994 129
4498 357
5161 55
6404 136
7796 55
9113 55
374 159
1900 445
1907 159
5941 203
7523 159
9848 232
9895 284
2814 146
4072 305
4168 146
5194 146
5828 146
8627 439
376 442
1607 442
4254 442
4654 442
6252 442
7562 135
8286 156
9938 38
377 354
2666 354
8372 194
9099 33
378 68
1238 68
2661 68
5534 68
6187 68
5025 161
5814 241
7207 325
8391 131
8651 21
9006 21
9228 21
9322 21
1429 167
1645 167
7025 444
9075 65
381 384
1767 384
2373 384
2678 179
3682 293
9357 112
9399 153
382 296
1432 301
1738 108
2950 269
6251 296
6455 296
9752 0
2369 451
6149 376
6193 376
7030 120
8309 376
3208 425
7863 266
8924 391
9140 385
9328 266
9633 266
385 259
1302 108
2681 302
6563 259
8185 58
8334 259
386 218
1344 256
7269 281
7680 218
387 426
6935 426
7742 426
8222 426
8375 426
8878 426
388 6
6437 41
7029 55
7831 399
9816 153
389 298
4110 400
6960 411
9049 116
390 54
591 363
3142 336
391 366
1634 366
5124 366
5155 432
5736 356
6826 366
7779 366
8085 194
392 161
1154 161
4740 118
5863 114
6239 124
7021 161
8584 161
3255 36
4794 37
5321 36
7106 36
7179 36
394 440
1737 440
3327 440
3418 440
4567 449
4741 111
5001 440
6338 25
7819 440
395 46
5716 281
6553 46
7124 452
8755 55
9124 46
9917 46
396 395
2021 263
6887 119
7098 395
7099 395
7163 395
7241 322
397 422
1868 394
2920 244
7108 422
7446 422
7694 422
8470 422
8663 422
9313 1
3125 197
3244 3
4846 190
8583 282
8691 282
2732 287
2819 314
5081 66
400 226
5732 226
6618 72
6947 265
7504 226
7977 226
8335 299
401 144
6909 138
402 451
988 451
1335 336
4025 4
4348 437
4696 451
6192 451
6557 451
7185 451
403 56
2313 20
6771 56
8038 357
8170 291
8202 56
8560 56
8602 56
1629 109
1749 9
3305 234
6416 210
6503 303
7594 303
9744 303
405 76
3102 76
7255 76
8478 64
8559 153
8589 150
9559 148
406 361
7539 336
7617 260
7999 361
8638 18
407 35
518 92
841 35
983 448
8438 15
408 335
2895 118
6900 335
7222 146
409 353
459 36
857 353
1625 353
1994 353
3847 353
3857 353
7347 82
7959 302
8068 353
410 142
2336 142
2773 186
3380 307
4870 89
5401 237
6576 142
8705 142
9927 142
9996 142
411 119
704 119
958 119
1284 119
1594 372
2797 119
2944 119
3880 173
412 236
955 329
1668 236
4818 236
4857 236
6518 236
6919 357
850 120
7691 63
7857 337
9250 337
9291 337
2763 2
6718 2
7392 2
7586 2
415 354
708 389
3673 442
4350 415
6649 71
6885 354
7573 354
7598 354
9407 235
416 32
2684 44
2972 13
2998 441
4000 32
5029 32
7631 32
7683 32
7901 194
417 379
1272 222
1842 379
2430 379
3238 379
3286 330
4509 379
5682 124
8507 66
418 175
3899 175
4128 146
5846 175
6081 175
419 452
1492 201
2806 47
5939 452
8089 452
8226 452
8301 452
420 147
1314 244
1920 147
6555 191
7687 453
9994 303
421 331
1596 331
3534 331
7256 331
8628 172
9248 121
9315 270
539 183
7335 37
9408 124
9923 100
423 444
1377 444
4704 444
6135 444
6291 444
6446 444
6723 444
7701 102
7930 320
8932 216
9799 8
424 250
4565 322
6505 107
8137 250
9003 250
9161 250
425 245
1963 160
2899 153
5811 245
7132 245
7436 245
9111 153
9905 0
426 40
1296 101
2468 40
4284 454
6092 40
6468 40
6597 40
6866 30
8051 97
427 396
1504 72
4583 250
5201 396
5272 409
8086 396
8403 396
9896 96
3268 293
5349 448
6382 448
6507 448
8532 448
8637 448
9840 118
429 95
3442 95
3972 95
430 131
6178 425
7355 1
8005 131
8552 131
8751 217
8939 82
9534 131
9928 131
2212 234
7282 169
432 100
3620 188
5240 96
5490 100
7882 100
8077 100
8409 391
9829 89
433 114
504 167
2634 114
3322 352
6077 114
6146 114
8401 270
434 69
709 69
2317 69
4245 38
8242 135
9132 96
435 455
1423 6
1540 394
3229 168
5455 455
7432 455
7585 455
7909 455
7956 455
9851 89
1412 98
1538 184
2543 98
4277 98
5600 98
6147 98
6619 52
437 229
2449 229
8624 197
9547 87
438 244
2454 244
2579 244
3816 244
3904 89
7498 244
439 42
1439 188
4192 151
5225 138
8477 411
8991 42
9179 42
9436 42
9499 42
440 116
1807 339
7437 116
9579 0
9635 116
441 102
3408 176
5815 102
7641 102
9192 385
442 377
1700 377
2047 331
3519 377
4351 418
5549 377
7230 377
7264 377
8203 117
443 160
3661 263
7820 160
7883 160
444 252
1814 326
5460 252
5603 252
6220 252
6494 130
6849 252
445 24
1216 24
1766 238
4082 24
4633 24
5163 24
5558 24
6209 190
7114 48
446 27
2011 286
6888 418
8828 27
8995 27
447 222
5523 376
6572 222
9103 61
9998 38
448 259
1080 444
2850 146
4707 323
5478 399
7527 259
449 101
671 101
1245 101
1281 168
2659 101
5062 101
6093 419
6227 101
450 308
1001 308
2882 308
4743 308
4815 260
5643 427
6218 156
6561 53
6797 308
7443 308
451 113
1466 89
2673 113
6784 113
7137 113
7220 113
452 37
3050 391
3256 427
4468 202
8190 37
9065 37
9543 37
453 53
1557 53
2716 53
4325 53
5614 53
6474 425
8530 169
8740 0
8898 121
454 379
4024 379
7549 268
455 61
1323 33
3795 203
4408 417
4947 112
8662 61
9280 61
9894 61
456 445
4181 445
6988 445
7752 445
8091 445
8555 190
9290 232
457 417
4821 417
5137 417
5830 417
8856 240
9293 178
9467 89
724 165
3212 456
4442 229
2366 53
9494 281
460 119
4267 119
5851 63
8695 119
9213 58
9395 207
9444 119
9602 119
9685 119
461 24
4758 24
4954 24
5717 103
5931 24
6753 24
7602 33
7768 24
9105 116
462 163
814 288
2431 163
3560 163
3676 163
4010 0
6103 163
7367 87
7422 166
463 51
1997 51
2640 51
5501 51
6355 51
9301 188
9715 96
846 349
1474 349
3128 349
6516 96
7248 157
465 167
1834 407
2248 27
3219 167
3576 430
3688 38
466 99
3031 241
8153 99
8399 99
8830 99
9079 169
467 394
2532 394
2733 341
5253 378
5427 394
7476 5
8748 5
9485 46
468 129
481 129
2208 129
2691 129
5334 193
5750 129
8435 240
8575 128
9886 110
469 140
3820 140
4136 0
8611 140
8619 140
8721 140
8729 303
9391 148
470 370
790 11
1872 344
5435 154
7385 124
8326 41
471 451
2104 451
5120 381
5541 451
472 273
1098 273
4860 273
5320 273
473 75
722 369
5391 94
7663 50
474 16
576 178
2570 345
6419 14
7657 16
8062 16
8115 8
475 300
4044 300
4949 85
5007 140
7065 263
7184 300
8156 67
476 67
1223 174
2871 254
4487 67
5196 202
7983 67
9166 67
9473 96
477 52
2236 121
4116 52
4683 52
5104 391
6102 287
6362 291
478 423
4676 423
5234 423
7238 287
7301 423
7759 423
7920 423
9517 33
479 106
1013 388
3685 106
4847 5
5918 106
6482 106
6636 106
6643 106
480 328
774 242
1403 328
2353 328
3359 328
3565 328
5908 328
9017 153
546 129
3176 129
3548 216
5384 100
5795 38
9341 214
482 173
2319 399
5896 208
7592 173
8172 374
8962 173
9533 173
6246 345
1531 418
4515 153
4667 83
7433 325
9583 123
485 26
1681 184
8473 286
8563 33
8689 26
9185 138
486 269
3705 444
3740 280
4173 269
5963 62
7312 269
7665 269
7856 306
487 387
3908 387
4435 387
4504 43
5193 387
5323 387
6622 159
7722 105
488 257
2699 257
6177 257
6538 421
7034 257
7880 257
9019 132
9919 148
864 274
4895 284
5041 274
9344 5
490 248
2961 248
3480 188
6277 116
8763 248
9125 248
9346 248
491 146
664 146
2084 345
6262 444
492 324
2435 324
2533 324
5798 324
9802 232
493 339
498 339
1118 339
4205 302
4862 339
5953 339
6374 339
6405 24
494 457
503 208
673 457
4177 457
5235 457
5428 457
5429 457
5535 168
7102 380
8775 112
495 5
1576 16
5036 206
7808 5
8230 177
8884 5
8911 5
9418 135
9629 43
496 162
2452 429
2779 368
8744 211
8754 380
1583 189
2613 189
2781 189
2892 458
6012 90
7070 33
7428 189
7609 189
1517 339
5270 339
5983 339
6204 64
8426 31
499 34
703 34
1112 34
5168 15
6020 300
500 14
4495 14
4855 114
5679 172
8024 14
8948 190
9661 351
501 40
2475 351
5747 40
6595 385
502 125
2421 125
2886 125
7642 191
5150 216
4694 81
7032 304
7610 37
505 14
2105 139
3264 451
9525 118
9701 27
506 39
3940 116
4592 225
7485 201
7833 17
9791 217
507 337
4928 337
5301 360
6660 337
9536 46
508 30
1843 131
6893 30
7876 30
8779 30
9479 357
9713 235
509 84
1859 84
2042 253
3512 84
4256 331
4938 84
6041 84
6911 375
8586 247
9477 168
4074 391
8920 94
511 145
2505 236
3382 145
3398 145
4155 145
4264 145
4369 3
6773 135
8968 99
512 30
3890 321
4840 254
6160 30
6853 30
8210 310
9398 27
513 254
1911 167
7263 254
7287 399
8778 254
8931 254
9761 254
9810 1
600 3
833 3
5117 3
5886 242
515 56
2907 10
7760 56
516 459
2764 459
3166 459
3698 459
4930 459
6070 459
7374 1
8134 128
8364 82
517 163
1336 163
3686 163
4123 198
4381 163
5877 373
6300 415
5445 362
5577 439
5960 92
6080 275
6110 92
6164 410
519 309
1396 166
3909 309
5034 309
5686 309
5969 329
6757 309
7793 233
520 351
5972 458
7052 351
7843 208
8395 269
9368 0
9420 351
9611 351
521 80
569 80
978 398
2017 351
3536 80
7949 217
522 46
3621 46
7112 46
7928 93
7955 426
8832 46
8918 303
9314 46
9804 46
523 96
831 203
1501 96
5325 73
6429 433
6475 96
8082 96
9514 89
524 344
2897 355
6663 373
7692 344
7878 344
8158 344
8631 344
525 239
5597 184
8171 239
8450 239
9139 10
9210 124
9321 116
1287 326
1768 110
7938 65
527 18
3192 61
4677 18
4890 142
7405 18
7453 18
9456 357
9466 18
9932 18
528 117
2605 222
4662 49
6311 117
6673 117
6970 1
9655 8
529 37
2231 329
5144 37
9621 55
530 400
2864 400
4178 1
4324 368
7442 400
9360 124
531 47
1494 47
2305 91
3826 358
9204 336
9831 47
9866 47
532 283
4650 283
4995 283
5079 228
5746 283
5930 283
6027 283
9496 235
533 460
4655 364
5616 460
5971 117
6599 460
7178 460
7561 460
7633 460
2314 351
3921 351
5102 290
5914 348
6056 290
6325 290
9712 188
2440 32
3636 347
4419 33
5506 195
7262 195
7605 195
7674 195
1653 183
3183 222
7266 1
8317 1
9893 1
537 97
1866 163
5783 18
6434 237
8329 97
538 274
1951 274
2426 161
3022 209
5388 225
6344 132
7067 105
7059 196
8045 183
8304 183
8609 183
9576 183
9596 183
540 209
2947 209
3912 209
7311 193
541 423
3150 303
3214 124
4307 423
8455 168
542 218
1910 334
3892 258
4973 191
6124 218
7500 100
543 220
4558 220
5019 327
6533 220
6868 220
7105 105
9888 220
897 418
7239 168
9581 214
545 127
1178 439
1308 174
7998 198
1810 141
2485 129
3721 157
4557 77
547 310
5242 176
5835 418
7855 96
7973 310
8240 310
9024 310
9077 310
9312 310
548 231
1721 434
1924 231
2567 231
4513 231
5209 214
6358 231
6751 66
8548 392
3306 2
3447 2
5083 2
5806 305
7398 270
550 314
852 314
1642 314
4729 314
5442 314
7195 333
7288 220
7726 372
551 33
1319 33
1646 134
5587 228
8252 49
552 345
2990 345
3004 153
7342 1
7497 345
7705 345
553 292
6752 259
8216 190
554 36
1029 36
2112 195
8139 150
8378 33
9722 110
555 94
1309 10
3431 437
3938 4
5639 94
6703 334
8969 94
556 66
789 303
3013 402
5508 244
6573 66
7614 66
7667 66
557 16
3358 254
7101 164
7218 141
8308 16
8434 16
8887 16
558 41
6011 41
6581 415
6788 360
7129 41
9021 191
559 116
1878 89
6611 391
560 89
1419 89
1456 46
8468 89
9331 303
561 238
3632 240
6977 401
562 447
1850 447
4472 447
4701 322
5020 447
7009 112
7490 173
8656 135
9548 8
563 135
2597 123
3012 461
6661 177
8007 135
8835 135
9253 232
9388 135
564 379
5945 428
9031 385
9578 30
3535 450
7630 8
9068 61
9437 247
728 20
1572 450
1852 392
3742 450
4475 450
5862 450
7677 63
567 367
7477 10
9215 178
9743 367
568 124
1661 124
6716 56
7094 376
9180 96
9386 124
5271 63
5618 80
9969 333
570 248
5546 248
7887 239
8277 248
4146 390
4659 292
5311 120
2312 322
2547 322
3810 322
6918 322
6974 322
9303 8
573 249
854 249
1075 177
5127 249
7231 211
7698 249
7761 249
9289 89
2092 96
8057 190
9949 5
575 333
7060 281
7886 333
8630 333
9329 55
9742 10
9754 333
2050 178
2853 401
4777 284
7906 153
8197 178
1550 230
5113 230
5417 127
6741 230
6863 230
7315 225
578 396
5642 454
8047 396
8804 116
579 348
4968 348
5700 348
6121 348
7010 205
7360 70
7590 348
7653 348
580 94
2734 90
8577 103
8669 94
9039 19
9205 135
9786 94
581 444
1923 444
3894 444
4185 444
4226 444
6653 449
6928 444
7261 87
9650 281
2668 141
5897 245
7593 245
8268 255
9274 135
2411 14
7401 67
584 72
2687 84
7014 342
585 175
2333 175
3814 280
4697 319
4892 175
9772 169
1301 128
3303 1
3952 170
5760 170
587 462
3326 388
4195 462
4411 463
5447 462
5566 66
5833 462
6306 462
6727 462
9489 336
588 220
4432 363
6449 220
768 135
9387 135
9693 135
590 297
1190 419
1381 86
4797 297
9582 297
4043 460
5551 363
7193 16
592 235
1809 20
2978 243
3691 235
8720 50
9165 235
9452 235
9885 235
593 332
3760 93
4077 332
4775 332
6167 332
6819 332
6873 140
6931 332
594 418
5366 238
5562 418
6559 418
7967 418
8940 418
9283 168
1138 40
3468 284
5107 355
8233 8
596 261
1516 100
5338 96
6939 261
597 135
1573 320
5909 287
9781 135
9902 61
2527 385
2980 251
4358 107
5169 107
6626 70
6949 107
1417 220
3724 136
3818 10
1602 3
5123 464
5664 3
7467 100
601 302
2191 165
2982 416
4486 302
4778 264
4941 297
6123 302
6706 302
7259 443
602 180
2237 180
2275 388
4913 180
5661 33
9406 247
603 58
2211 202
7444 342
8018 58
8200 58
604 329
1502 329
2024 333
3091 329
5635 329
8421 71
605 255
7866 315
8101 255
8944 255
9546 255
9811 255
606 211
2787 24
3946 429
7038 416
7515 367
607 297
8109 49
8280 297
8282 278
5885 257
8012 443
9634 138
609 18
3394 189
5181 100
7037 214
8324 389
8397 18
9415 18
9990 18
610 259
2046 131
6707 259
9320 216
611 199
1662 199
2923 199
3167 199
4747 322
5260 199
5629 199
612 299
5048 303
8052 188
8725 299
8867 18
9037 299
9311 18
9612 299
613 79
2717 350
2749 211
6007 89
3266 20
3776 45
4950 128
8632 191
615 176
919 176
1806 176
1815 83
5868 176
616 253
4298 253
5046 253
5472 253
5992 404
6026 448
7600 253
5027 116
8776 143
9671 52
7007 43
8568 27
619 115
2205 142
4453 115
4690 115
5106 115
5198 115
5598 115
6120 342
7745 195
620 152
6528 152
7923 465
8124 152
621 264
3580 264
3648 264
3971 320
5165 200
5422 264
6464 264
7849 207
8345 10
8797 87
622 67
853 341
4519 26
7874 67
8214 270
623 101
2792 173
4885 101
624 214
7774 214
8223 214
8258 214
9389 37
625 75
3011 75
5200 75
7540 330
9403 336
9783 336
9850 336
627 43
7341 57
8220 43
9632 43
9780 49
628 19
1020 161
2209 18
6722 19
7307 19
7978 220
8765 19
629 253
1519 253
2740 86
4005 253
6349 255
6702 301
954 101
2179 101
3375 386
4326 440
631 98
1763 98
2072 302
4627 302
8646 10
9247 12
632 164
1236 164
3171 164
3297 303
6837 385
8099 164
9104 164
9720 110
633 401
1670 184
1930 87
3434 225
4780 401
6620 401
7006 401
8125 401
9619 18
634 27
2234 304
2486 363
5421 27
6465 27
8344 342
9740 27
635 195
4079 2
6491 195
636 299
2542 379
6479 299
3587 234
9487 52
3283 33
3977 33
7965 33
639 58
6830 58
7411 47
8752 58
640 391
3732 432
5708 228
8017 391
8178 391
8757 391
9592 131
9979 89
4354 380
4392 420
9370 153
889 373
2726 317
4272 151
5910 111
643 28
707 330
1561 28
3120 28
3138 168
4303 28
4664 28
6053 5
6386 116
6497 28
8936 289
644 374
5794 374
6765 334
8246 374
8501 19
8618 374
4972 139
6162 128
7615 139
7850 139
9708 225
646 64
3374 192
3958 356
7678 64
647 105
5177 345
7055 184
7140 105
648 16
849 16
2115 448
4212 16
6654 16
649 7
3143 7
5684 118
8141 260
1986 67
3916 266
3925 445
4580 215
6546 215
7686 215
3702 365
5087 452
8505 321
652 216
1089 258
2459 443
4243 305
6799 216
7035 216
653 346
4208 346
4242 180
4932 346
5383 346
5433 432
654 130
1574 145
2844 130
3694 130
4051 160
4745 130
4779 130
5008 80
5072 130
6869 0
655 452
5174 37
8146 452
9076 197
9751 232
656 10
3377 10
3896 122
4299 353
9069 10
657 292
4421 381
4540 83
7719 399
8406 292
9732 292
658 459
3132 15
4589 459
5958 459
6916 119
9773 55
2357 34
4703 210
7328 97
660 208
4526 208
6657 89
7284 17
9154 197
9617 55
661 427
7211 427
7473 130
662 288
2692 43
6681 165
7244 288
8001 156
8064 288
663 32
3159 32
4550 53
5129 32
5532 347
8295 448
2036 146
5593 336
6016 456
7113 77
665 323
2997 323
3389 267
4261 208
4910 323
8113 336
666 167
791 167
888 167
1637 387
6329 78
8259 124
667 20
875 142
4843 182
7314 20
7529 360
9907 52
2094 318
2796 395
2854 329
669 119
1355 442
2869 69
3338 405
3934 399
8715 119
956 33
6091 438
999 101
8770 94
672 53
905 53
5888 405
9892 112
1222 457
1682 145
4013 306
8636 43
675 12
3869 109
676 212
4416 294
5341 212
677 72
5512 72
5819 72
6117 42
6336 74
7332 72
760 279
2001 47
3426 136
6659 313
7869 356
679 441
2675 408
4992 168
6971 168
8476 38
680 103
6035 59
6858 42
9830 103
2529 140
3294 302
4078 149
7531 402
9521 124
682 116
3054 116
6567 116
9292 116
683 359
5791 148
7859 21
7897 359
684 46
3655 28
9172 46
685 268
1891 268
2218 268
4485 268
5142 268
6556 381
9623 18
686 403
2482 342
3652 403
4584 403
5332 403
6352 11
8083 55
8229 207
687 436
3797 436
4532 436
5588 436
6488 394
7245 436
688 88
4613 88
5589 88
5887 88
689 40
1980 40
3649 270
7944 90
690 172
994 412
2334 350
5015 172
691 315
2121 204
3042 100
8643 0
692 30
1688 176
2306 318
3809 267
8480 30
9270 30
693 90
8989 90
9259 121
694 319
1833 319
5879 52
6196 319
7695 5
8273 319
8665 319
8906 89
9658 43
695 295
6932 295
7000 295
8261 10
696 355
980 284
1101 442
3087 372
3547 355
697 246
3939 52
8842 10
698 110
975 332
1409 331
9945 110
699 154
4552 154
4761 154
5982 110
8362 181
1663 334
3337 430
4599 405
1524 394
3453 271
3926 394
4396 394
5785 394
6812 358
7462 394
702 322
1157 48
2805 322
4564 153
4623 322
1069 119
2282 119
3458 119
5467 93
9336 47
705 459
1055 459
1300 33
1440 459
5545 140
5860 459
8635 337
706 41
8424 41
8993 1
6217 330
6423 411
6551 330
7247 330
7463 330
8379 181
4929 83
6805 389
7867 389
8314 389
939 69
1097 69
2845 132
6061 316
6172 83
8693 138
710 436
2093 5
5517 436
711 37
3618 377
5239 257
6013 37
7172 37
712 116
2670 201
3704 422
8094 46
713 131
2034 131
8382 208
9086 254
9563 131
9821 18
714 33
1070 308
2130 426
4091 145
4808 362
7121 33
7622 33
8746 33
715 189
2925 189
3569 189
4390 289
8340 42
5264 105
8227 105
9156 153
717 232
3964 215
8498 232
9164 232
718 39
4754 142
5136 32
6511 414
7100 260
719 347
3079 347
3262 227
4612 347
5714 347
6055 347
6073 347
8761 90
720 46
3635 46
7083 333
7420 61
8598 301
9846 46
721 211
6394 299
8980 211
8986 211
1081 369
1636 369
1984 292
2259 183
6032 369
6914 369
9429 89
723 347
896 321
2165 347
2326 347
5518 347
8981 390
5047 253
9208 153
725 80
2823 80
3514 80
3986 80
4377 80
7327 137
7636 218
726 438
2434 438
4382 438
6515 438
6951 438
7138 112
8520 112
727 265
2728 198
5403 265
6431 265
7644 15
8332 265
8493 265
9640 1
5704 121
729 134
2376 134
3504 134
5280 134
5935 134
6169 280
6791 271
730 83
2280 83
4625 83
5821 83
5906 83
2345 331
3017 258
3553 331
5267 353
732 257
5956 248
6203 257
7579 47
733 235
3567 107
9287 235
734 403
4832 223
8531 153
735 119
7685 213
7771 359
8692 465
736 154
1496 154
2019 360
8942 121
737 465
2000 92
4726 391
6462 465
7699 465
8964 465
9005 18
9600 385
738 104
963 2
1433 399
3568 405
5924 104
9570 104
9606 104
9681 111
9723 104
9734 104
739 137
3888 137
5246 137
5362 81
6128 151
6351 137
740 105
1548 105
7109 105
8730 372
9199 37
742 460
3066 460
3466 460
4826 460
6999 453
8461 207
9085 18
743 368
2143 368
2451 368
6045 368
7929 235
2791 355
8694 291
9041 96
4531 337
6301 213
7206 18
8348 207
8565 213
8726 213
3366 251
4481 251
6648 31
747 284
3633 264
9807 284
9931 284
748 208
1363 279
2646 163
2954 1
749 172
1024 233
2720 172
3788 172
6087 71
750 317
1482 317
3428 317
5672 317
5844 91
751 183
1453 391
5444 183
6630 183
8398 183
9692 385
2106 74
753 333
8066 373
8306 333
9472 333
754 33
1792 178
4054 265
7873 33
9242 33
755 271
1031 221
3077 271
5683 153
6500 271
6913 271
7471 271
8244 148
756 367
7915 85
9225 367
9666 367
757 442
1472 444
2799 442
2904 442
3854 442
5058 442
5347 442
9372 10
758 109
6585 15
6759 49
9475 188
759 322
2970 126
4657 442
4820 356
3494 279
4240 279
7826 235
761 1
4771 284
6381 1
7739 304
9580 1
9997 1
762 410
1655 410
6946 31
9447 303
9657 197
763 238
2163 87
4629 448
6781 223
7547 16
764 196
2590 223
5837 196
6348 196
6956 405
7871 196
8601 196
2078 187
4878 10
766 445
1106 254
6200 178
767 325
6097 325
6580 325
7957 325
933 348
3461 455
9641 135
769 397
3856 54
4343 397
6938 397
7201 397
7296 12
9478 52
770 284
6798 33
6889 315
9091 284
771 341
2169 351
5916 341
6610 341
6908 341
7215 341
772 355
3783 355
4133 338
6766 426
773 404
1340 322
2630 404
3401 404
5921 404
6583 404
7566 420
775 129
1633 199
2168 129
4630 129
9527 197
9608 116
776 445
2841 445
9603 78
6934 22
7217 65
9107 10
9176 120
7019 202
7543 127
8753 104
779 354
1942 133
2513 354
5344 354
8600 37
780 456
1392 456
1822 456
1957 456
3527 71
3843 456
4609 419
7954 190
781 143
1217 54
7363 143
7418 143
7841 312
782 126
4012 126
4718 439
6480 126
7773 126
783 172
2587 124
3194 172
784 145
2139 145
8815 372
4923 70
6078 70
8231 78
786 331
787 21
4695 250
6129 165
7496 396
8452 21
788 130
876 130
4940 224
7151 33
7379 303
9042 303
838 245
7651 291
1320 167
2977 374
6504 228
9448 232
4126 179
4783 318
5807 179
7993 179
793 370
1153 406
3414 76
3717 370
9062 207
794 441
1773 441
3197 241
4154 430
4306 29
795 224
3230 224
4593 417
8025 225
4791 433
5197 433
6962 433
7464 433
9509 89
797 124
881 124
5619 241
798 179
1142 348
3448 179
4873 156
5855 419
799 444
7079 444
9419 123
6744 395
7501 284
801 242
5045 334
6890 321
8542 168
9882 138
802 35
5723 373
6367 390
7180 35
8821 198
9993 148
803 420
804 323
1227 279
4167 323
3205 286
5932 293
6906 247
9686 247
806 461
885 461
2913 461
4103 461
4506 174
6835 461
6902 461
7670 143
7751 435
807 163
3455 311
3835 308
4979 463
7469 416
808 261
1107 311
1434 435
8136 261
809 394
2420 394
3450 5
6197 60
7409 400
810 28
4422 17
811 50
3319 25
5670 402
7294 45
8081 50
8087 131
8657 50
812 199
813 348
1754 28
2540 348
4883 297
4907 199
9363 109
1095 288
5148 356
5970 198
815 118
6159 118
8402 118
1163 151
2444 151
7384 59
7794 299
9639 93
817 413
1376 413
2514 413
3415 358
4998 207
7910 0
819 423
1102 423
5826 271
5894 71
8685 235
820 224
3403 224
3511 78
4220 392
5353 203
5505 224
821 9
7814 9
8176 9
822 299
7350 299
8374 299
823 71
4097 218
5154 71
7267 71
7457 10
824 246
2417 246
2754 285
2858 5
8120 356
9775 254
826 96
1214 181
4094 18
6254 86
8654 276
9197 96
9739 124
1282 339
1756 198
828 55
6637 87
8719 191
9760 55
829 207
3932 97
7488 221
8462 207
8868 207
830 33
1446 213
4436 33
4824 427
9697 33
1449 200
2222 386
3800 203
5261 203
6790 203
7535 321
832 78
3274 219
7816 78
8909 169
9330 78
9726 78
9769 142
1379 3
3906 234
4781 3
4800 3
9040 93
834 313
3070 313
4406 313
6105 313
7351 300
9173 313
9995 142
835 385
4140 406
8096 49
9073 82
9175 385
9194 78
9983 385
836 353
3613 375
3650 353
1135 245
1563 245
4288 245
5157 310
5743 245
8184 239
9246 385
4096 271
5594 1
7707 1
7797 1
840 124
1939 329
5865 54
6111 38
9884 18
2279 35
4068 35
4688 35
7933 198
5928 416
8712 319
843 0
2467 0
6881 138
8903 0
9233 0
9682 47
844 383
1211 383
7306 383
7354 383
8135 383
8299 383
845 429
1073 350
1718 429
5352 429
6483 429
4640 14
8075 10
847 236
3335 236
5285 236
5740 210
6867 16
6973 271
848 99
1863 341
6968 49
7559 99
8820 99
1143 98
7005 16
9319 16
7047 120
8191 128
8253 306
5402 50
6821 168
7177 43
4473 93
5075 314
5220 82
3135 341
3231 307
4768 341
4872 222
7556 372
6029 249
7362 5
8850 42
855 5
3474 464
5961 422
6596 5
856 226
3910 454
4132 226
7637 235
7785 276
2827 163
4502 353
7205 18
858 270
1696 270
3801 117
4573 270
5578 62
6498 270
859 19
3708 345
4321 215
9082 270
860 363
868 338
6676 322
7844 286
861 115
1208 115
1657 92
2946 115
5343 115
6389 115
8204 46
9774 112
862 115
1152 357
2492 115
2648 115
6295 259
6996 120
863 245
1498 452
4719 311
2575 274
2905 274
5638 316
6541 412
7064 355
865 281
7043 188
7661 166
8979 281
7320 153
867 401
1750 401
3969 401
4920 401
5114 38
5287 268
7304 405
2552 338
5832 338
869 96
4314 96
9342 342
9545 336
870 170
1929 124
2359 170
4308 24
871 300
7298 319
872 263
873 444
6250 444
7345 444
9954 90
874 311
3118 311
5647 311
6769 311
8284 270
8053 142
3288 130
3365 130
3848 437
7567 93
8571 47
9584 5
877 123
3137 401
3677 109
6137 123
6698 123
8862 123
878 96
1622 96
6697 96
7097 38
8429 96
879 271
3937 365
6761 271
7268 304
880 110
4186 163
6163 288
8965 110
9252 110
1160 191
7039 446
882 436
1005 436
2996 436
883 267
1083 285
4661 267
4724 267
6219 267
884 225
4292 188
4953 312
5789 220
7027 319
8849 225
9063 225
3141 461
3965 461
8415 118
886 377
2410 361
3784 377
5756 377
6370 377
8249 169
9483 148
962 145
2391 418
4978 418
2593 425
2015 180
2229 90
7815 373
8042 373
890 289
2987 160
4974 289
5330 289
5900 112
891 18
6502 337
8489 18
9155 18
9264 153
892 38
1261 425
5284 445
6019 336
7150 38
9195 38
893 260
5074 466
9575 33
894 12
1510 302
895 387
5730 387
5843 458
5854 422
7682 321
951 418
9614 61
898 319
2647 319
2813 329
4807 319
6645 50
899 47
7303 165
7383 47
8297 89
8318 47
9879 47
900 164
2113 188
901 309
1265 210
4332 46
5757 309
6229 309
902 250
4388 250
6126 250
6920 296
7176 216
5073 346
7365 178
4449 458
5962 222
3191 127
6017 81
906 74
1215 95
5605 1
907 389
3346 354
908 394
4174 265
4179 394
909 452
4782 268
5997 386
910 455
7509 65
7524 455
911 411
2875 205
7044 411
8368 411
2626 120
4512 221
8179 17
913 274
3364 286
4365 62
7536 168
914 84
1933 84
3575 84
915 308
1849 270
2267 308
7733 30
8169 118
916 30
1631 30
1757 234
9822 30
917 380
8690 380
8923 280
9023 111
4658 439
6263 439
6891 439
7234 439
4434 463
8138 276
920 396
1511 185
2824 396
4620 396
4828 396
4975 402
6030 45
921 347
4117 449
4966 347
922 82
2216 381
5288 238
9355 82
1203 51
3839 51
9268 31
924 286
3486 286
6114 286
1321 56
4229 81
926 220
1241 114
4492 420
7757 27
8383 188
927 285
5050 285
5780 285
7223 411
9145 225
928 115
5744 322
8933 278
929 236
5092 236
5698 448
6289 87
6400 236
8967 50
1114 80
5061 140
2898 247
4238 444
4638 309
932 33
6820 371
8111 247
1186 348
5990 318
9845 96
934 307
4660 256
5361 383
9308 357
8487 214
3169 366
937 31
8151 181
8165 43
8338 31
938 11
2224 432
3360 265
7649 43
5949 432
940 385
1025 255
3495 52
9823 385
941 138
1539 188
1873 341
1913 157
9524 138
942 269
3204 269
3530 9
4790 284
7280 269
8441 269
943 122
1828 122
944 227
992 227
1170 227
2397 377
4149 227
4603 227
5408 227
945 140
3615 266
4508 162
8431 140
8610 465
946 85
2340 237
6739 85
7056 85
7164 85
7430 85
7740 112
8668 281
947 28
2342 28
2573 28
3506 28
5654 28
6701 28
6763 358
8294 280
948 182
1991 182
3209 429
4464 371
7824 182
8994 182
9055 182
949 167
1514 287
1711 167
3510 167
3532 167
5397 299
6296 325
7378 206
950 219
2890 219
3608 219
3259 258
4053 418
5437 235
9029 464
952 73
1017 73
4291 73
5948 148
7595 247
953 367
3584 150
3069 395
5525 110
5994 30
2203 152
9309 232
1048 328
1745 377
8512 21
9433 10
9728 10
2370 421
2525 219
959 414
1425 414
6230 144
7228 414
7487 153
960 453
2872 453
4360 13
8106 453
8484 453
8671 453
8863 453
1888 230
4651 299
4906 145
6392 153
964 435
3967 435
965 390
7472 96
8370 390
9282 254
966 2
1028 2
1218 226
2029 146
3481 279
6700 112
3053 402
969 60
1890 60
3081 60
4385 125
6321 38
970 377
1648 53
3236 377
5335 340
5380 252
971 157
1564 220
3963 157
7227 392
972 33
8801 86
973 358
6840 358
7662 358
974 299
2064 218
5494 299
2328 0
5121 332
6817 186
8254 87
976 362
2718 362
5601 362
8130 89
977 30
4355 315
5097 30
7893 30
8250 52
1717 398
4211 139
979 178
5663 178
7599 247
8127 52
8515 178
8861 178
3920 284
8855 169
981 29
4331 27
5742 29
6940 123
7300 29
982 132
5630 339
6501 197
6855 132
2788 444
4996 54
7936 166
984 126
2037 384
2356 199
8513 0
1332 101
1643 318
2981 22
8957 87
987 448
7632 448
2362 260
2852 451
3018 442
989 100
4988 33
9434 89
2617 44
3680 44
5528 5
5703 250
6072 44
5965 49
7911 118
9637 118
9749 118
3313 375
3729 227
5853 227
5925 358
9109 216
993 299
5978 270
8359 299
4180 412
5890 412
6086 412
6531 412
995 402
3340 402
8521 402
8536 402
996 465
997 121
4849 123
6141 100
8818 372
998 31
2442 31
2945 350
4440 31
4202 195
9090 49
1000 160
3774 160
4409 160
6669 38
1140 20
4461 318
4903 308
1002 17
7660 161
8595 17
1003 177
5782 41
8660 177
8990 177
9120 177
1004 286
2447 286
3720 249
4322 286
5289 286
5387 286
6058 458
7846 90
7992 143
4909 277
5021 449
6391 277
5797 258
5805 99
6043 258
7202 278
1008 85
1506 85
3870 85
5426 38
8235 49
2742 227
2888 179
1010 169
3735 169
4115 158
5973 464
9299 303
1011 142
3032 142
3234 307
6979 142
7372 142
1012 66
2623 404
3463 439
3902 66
9717 66
1877 388
6845 112
8040 388
8972 217
1014 225
2030 177
2496 215
6154 225
9138 225
1015 248
5042 266
9260 385
1016 244
9366 49
5964 73
1018 48
8800 48
9913 48
1019 285
1882 285
4842 82
5298 139
6936 178
7858 52
3539 174
1590 142
3445 276
4604 104
7088 276
7639 276
1022 289
2090 40
2752 289
4426 289
1023 114
2150 114
2344 114
3719 311
5066 114
8260 131
1617 273
4851 233
6878 233
9110 233
1855 120
3556 334
4476 72
5933 255
8245 255
1026 90
4349 90
6353 49
7964 90
9431 90
2177 371
3196 454
3616 28
5825 371
6806 371
4900 393
5521 64
3763 152
9663 18
2383 373
4670 216
8237 111
9108 111
2405 12
2592 277
4431 221
1032 275
3485 153
1033 292
3627 24
5592 356
9359 292
1034 58
1615 350
6547 8
7895 58
8893 49
1035 5
5636 5
5817 225
7242 5
9959 5
1036 118
8093 54
8916 131
1037 220
4490 399
1038 5
1188 454
2900 450
4746 5
5938 5
6478 141
1039 184
1781 247
5084 184
5116 213
8371 55
8608 184
1040 428
2929 428
3968 428
6069 294
7495 1
1041 25
3754 25
6560 315
7286 25
2632 405
3992 81
4427 81
5374 81
1043 288
1044 193
4646 444
8390 193
9798 0
1045 216
2200 383
3945 25
8061 131
8296 216
1046 111
1225 185
8014 78
8848 184
1685 328
1798 328
2798 328
1049 373
6471 425
8276 373
1050 126
1961 423
5139 291
9400 211
1051 295
3663 308
3846 295
2433 81
5394 81
6226 284
6288 81
6990 329
3996 443
1491 199
3100 199
1507 46
8349 124
1056 247
2928 176
5627 383
9438 4
9847 247
1057 59
2144 354
2358 257
4738 59
5186 59
6314 59
7643 102
1058 278
2196 277
9007 89
9528 278
1059 16
1823 177
2258 104
4159 116
1060 418
4682 78
5464 418
5466 359
1061 368
1416 368
2644 206
4265 168
1062 248
8290 248
1063 16
5337 0
6255 225
8795 16
9284 319
7688 183
1065 390
1128 10
6694 294
8157 399
9501 0
1066 70
2618 70
2696 83
6395 187
1067 379
1293 379
3923 379
4516 379
4952 379
5993 379
6943 339
1068 372
6601 56
8098 372
2166 93
3254 94
3483 59
1092 66
6862 340
9474 118
9961 118
1072 181
3284 25
8670 4
7142 350
1074 241
3749 241
4845 64
5221 241
7131 184
1076 71
1687 71
1803 71
5244 52
7729 9
1658 83
1797 83
6075 168
7369 83
1078 37
5903 55
8469 232
8474 37
1079 217
8947 217
9296 217
9705 217
3625 444
5159 117
1558 369
3035 209
5183 374
5251 369
5748 119
6470 369
1082 15
2242 38
7082 15
8809 15
9747 8
1084 335
4730 335
4809 401
1085 351
6677 345
7281 381
9520 351
1086 29
2564 321
3092 29
6685 188
3563 192
4138 421
6508 196
1088 171
1358 171
6279 171
3298 258
5109 104
1090 127
2603 435
5318 205
6937 234
3844 424
4543 424
5556 424
5644 144
8492 280
7004 66
7050 66
1093 314
8347 344
1094 229
1527 251
2549 229
4222 385
1110 160
5319 33
5856 50
7720 188
1096 423
1969 423
6273 297
1567 273
2122 96
6304 26
1099 402
1201 71
6692 304
7068 402
1100 220
8527 93
3837 72
1103 233
2566 233
3915 233
7158 333
7250 233
2153 180
4361 65
5749 359
1105 122
6328 260
6415 122
6529 122
6591 122
7139 122
1231 11
7270 254
3873 164
4795 311
8023 10
1108 347
1760 347
2385 155
4067 347
4774 13
1109 118
3836 28
5108 408
9615 49
5719 160
1111 374
1395 374
6899 374
7046 374
8436 128
8634 198
7077 455
1113 18
2971 172
6180 142
1115 163
1240 163
3280 163
8585 214
8886 52
1116 281
1679 271
7344 281
9491 184
1117 333
3597 161
5222 359
5848 159
8676 46
4497 211
1119 302
2422 294
3425 302
3460 302
1120 57
4891 392
5049 57
6281 57
6993 57
1121 421
6882 421
7072 50
7925 421
7937 421
1601 301
4122 87
5527 405
6894 405
9598 190
1123 59
3505 59
4108 270
4679 59
1124 53
3670 53
5801 53
6587 52
9417 90
1125 406
2780 406
2891 140
5173 351
5516 406
6670 183
1126 366
1444 366
4735 110
5446 402
7548 366
1127 306
7439 306
7587 249
6696 446
1130 221
1638 308
4315 427
4641 27
1131 160
3275 160
6015 100
2878 201
8737 216
1133 121
2418 361
5243 430
5943 353
1134 282
1624 208
2230 220
5934 174
9146 18
1925 245
2896 245
5308 52
8978 96
1136 104
5773 153
8144 104
8243 261
8982 104
1137 352
3526 352
8497 439
9257 37
2606 40
6961 198
7028 86
1139 47
7031 446
8425 47
3998 20
4656 20
5171 20
3543 244
4137 61
4798 61
8885 61
1219 306
9672 399
3384 98
1144 460
2406 460
4763 460
1145 339
4260 339
6609 339
7116 339
9820 138
1146 161
2964 161
7987 276
1147 120
4848 43
5777 407
1148 53
1244 53
1526 53
3154 53
9212 52
1149 43
6748 43
7181 313
7647 43
9115 43
9305 254
1150 150
5406 280
8262 150
1151 245
8486 18
2637 357
6046 4
7194 319
8843 269
6364 292
6463 211
2721 161
2801 161
1155 232
7066 232
7802 266
8342 124
1156 201
4534 428
7483 320
1158 45
3907 302
4463 104
1159 379
1253 379
6710 234
6822 235
2268 191
5570 297
7415 191
8196 320
1161 27
6308 27
9273 27
1162 436
5658 55
2739 151
1164 198
4588 385
8534 198
9240 198
1165 392
1857 412
6094 392
8193 392
8977 38
1166 33
1180 140
5650 376
6143 46
6905 33
7553 33
8963 33
3386 369
1168 90
3599 90
1169 464
7666 464
7990 464
8545 464
8852 153
2378 227
2137 82
2402 339
3276 345
1172 329
5502 329
7935 329
8100 329
1173 293
2731 462
3293 120
6467 293
7512 93
7564 293
1174 85
6954 152
9163 103
1175 369
7156 48
1176 283
1821 33
5071 153
1177 130
1329 222
4203 12
5028 445
6293 26
1179 191
2833 86
8864 191
1181 219
6368 219
6481 219
7258 219
8816 193
1182 130
2351 130
3308 130
3318 130
5893 25
8163 130
1183 112
2922 422
9683 112
1184 405
2491 421
5354 131
6688 336
8320 89
2830 409
6155 327
3023 441
5187 385
5989 239
1187 142
5279 18
3564 10
5774 454
6000 454
6343 454
7386 77
9356 124
5299 399
6089 255
8479 255
6042 419
6206 419
6258 419
8122 10
1191 156
3309 384
8680 156
1788 465
4269 441
6554 1
7577 64
8019 1
9423 1
9832 52
1692 160
1194 251
1195 431
5372 174
6418 431
7440 431
8790 0
1196 22
7654 22
7718 22
7781 22
1740 133
1893 227
6838 79
6978 312
7058 79
7310 79
8031 79
8097 79
8128 79
1199 174
1948 330
5489 174
1200 211
1649 211
3220 464
3687 441
5162 211
7702 211
2591 372
3980 71
6388 71
4621 130
5016 385
9973 49
1794 103
4965 71
5089 254
7604 318
1686 458
1205 361
3372 125
4134 125
6051 104
6633 261
7036 10
1851 382
3656 301
6346 435
8659 108
3341 115
5974 115
6161 127
1209 230
1736 434
5790 230
1210 452
3726 452
6286 316
2508 240
4466 4
5378 191
1212 27
8387 66
8760 27
1213 442
1447 442
3330 163
7645 116
2018 184
3823 119
1987 361
3830 220
4246 433
4295 344
3624 226
7554 103
5026 107
7424 306
7574 306
1220 146
1652 150
7981 146
1221 28
1816 28
1448 457
4088 232
4764 457
5291 457
1938 174
3523 270
4456 184
7075 174
7747 174
9874 336
2559 262
4559 215
2233 185
6157 185
1226 0
4372 191
7770 0
4717 279
6877 235
1228 463
2622 463
5382 463
5770 463
5802 463
1229 368
1641 368
2516 368
4708 29
4757 378
1230 235
5617 11
5875 290
9298 61
9947 153
1232 49
1726 46
2263 409
3086 179
4647 49
1233 303
7352 303
7607 303
1234 143
1639 237
7825 143
8707 143
1235 463
3076 362
4099 14
5339 409
4884 164
8822 292
1237 452
9352 52
3115 68
3391 87
4270 77
4653 303
5713 68
1239 144
3016 200
3600 133
9955 38
1295 163
2438 114
5981 443
1242 374
2173 402
4163 308
5652 88
6664 430
8667 291
2831 101
3653 435
4070 345
1246 176
2709 340
2855 176
4164 98
6008 466
6892 318
7414 42
1522 133
8354 270
1248 449
2689 449
3315 449
5542 206
6975 449
1249 310
7618 310
8997 38
1250 343
2724 164
2790 343
8614 14
1251 47
4175 234
7542 47
8564 47
1252 210
7274 357
7578 443
9127 210
8103 104
1254 27
2054 123
5550 15
5764 45
1255 72
1993 394
2086 207
2576 42
4014 72
1256 320
6038 258
4527 385
5375 63
5399 63
7127 63
1702 20
4309 20
1259 32
2735 264
6584 32
1260 62
1831 62
6170 62
4801 425
5112 1
5513 15
6062 425
1262 153
4170 299
1263 196
3790 187
5306 196
7419 196
1264 97
8467 97
8616 240
5678 360
1266 0
3911 176
4101 0
5895 384
1267 194
7431 132
8702 132
1268 183
4505 26
5555 359
9601 33
1269 47
3767 47
7076 47
7273 153
8009 47
8788 47
9552 55
1270 8
5602 276
7204 162
9703 8
1271 127
1611 322
2548 196
1273 278
2949 125
1277 426
4542 97
4586 351
5610 426
8264 426
5796 104
8870 104
1279 301
3182 173
4429 301
4830 8
5450 301
7235 453
9235 52
1280 116
2303 94
5697 116
5922 116
3551 61
1283 243
2761 243
8360 124
2510 269
4395 398
5094 228
1286 353
1345 353
1759 353
1914 353
2253 353
4917 187
5030 326
5498 135
1288 388
5628 142
5779 446
7166 388
8777 118
1289 62
6782 152
2912 199
1291 109
8279 385
9696 38
1292 345
5033 345
7972 111
2339 115
6895 102
1294 1
1867 1
3177 26
5147 437
8251 191
9243 211
2051 79
7741 235
7425 5
7149 142
7913 90
1298 162
1664 38
2073 162
5529 192
7413 391
1299 149
5232 33
4665 155
9025 96
1303 360
9245 55
1304 439
2063 439
2089 439
1305 340
4217 340
5660 395
7723 340
7885 340
8331 340
1306 366
3249 128
3619 366
6884 138
8327 277
1947 384
4330 192
8626 319
1734 174
5368 174
1785 10
1310 276
5540 24
5818 276
6025 276
1311 384
4897 144
7237 37
1312 455
8857 284
1313 19
2762 114
4454 90
5944 464
3281 244
5175 250
3228 18
4562 426
6604 48
2246 117
3417 264
3544 417
3713 94
2436 33
4686 241
6800 67
7551 388
5219 167
4041 247
3376 186
6156 186
6242 186
6248 186
6642 165
1992 334
3913 304
7198 33
8218 33
2183 179
3406 148
1325 9
1326 54
1327 443
5548 100
7323 158
7608 443
7749 201
7875 443
1328 454
2497 146
3113 454
6427 90
4619 10
1330 451
3206 451
7216 211
1331 1
2713 246
6340 143
7675 1
7728 1
9181 1
3757 345
4533 240
1333 235
3350 322
7208 235
9940 235
1334 317
3885 336
4572 336
8411 336
5039 106
5615 357
1337 423
8582 132
1338 7
4415 7
5653 322
6574 342
6629 322
7764 322
1341 58
2061 55
4566 214
5119 58
1342 205
1424 157
3537 205
3798 205
4931 205
1343 389
6857 389
7074 389
3225 344
5531 256
9081 86
9130 111
2577 353
4524 353
6687 38
1346 96
4064 320
4626 18
8581 319
2227 371
2775 80
3813 453
3876 80
6315 80
1348 177
2125 450
1349 283
2022 179
6330 155
1350 9
6083 409
8078 310
1351 450
5389 450
1352 105
4570 105
6635 105
1353 267
4102 267
4517 267
5590 38
4915 262
1356 66
6864 66
7870 0
8356 66
8716 66
1357 168
1614 150
1818 155
2238 93
9909 153
1359 45
2352 45
5265 45
5392 194
1360 156
6767 156
9254 156
9542 156
8738 38
1362 248
3984 248
4190 279
1364 60
3700 60
5763 60
6785 60
6972 60
7260 60
1365 58
4034 412
7459 47
8302 58
5876 404
6243 37
8599 183
1367 440
5248 440
6613 440
7984 182
3008 280
7090 104
3180 464
5479 277
1370 10
1898 369
7441 10
1371 346
1935 292
5431 346
1372 151
3348 151
7484 300
1373 291
2348 216
2861 359
4162 291
9782 38
1374 422
5996 245
6456 422
7356 111
1375 124
3933 367
6955 287
9457 124
1570 25
2316 413
6398 319
5557 281
7020 49
1378 162
6106 162
3507 401
4706 41
4951 188
5559 77
7538 86
7505 255
1385 346
6445 124
1386 390
3566 4
1387 116
2812 267
3187 266
3232 414
6982 400
7319 21
6335 5
6980 190
9975 169
1391 205
1841 38
2091 456
2382 456
5022 456
1393 161
1665 236
5090 161
5662 161
1394 230
2443 230
3659 230
3960 230
4844 230
2129 374
5195 374
9385 18
3877 346
6028 166
8346 166
1397 96
1650 73
1398 309
5023 309
1400 353
2008 353
3654 335
4607 271
1401 322
3689 82
1402 182
3501 259
5110 180
2751 328
1404 10
3827 10
1405 27
2760 114
1407 440
1844 440
3200 121
1735 31
4092 237
4893 466
5013 237
5130 237
3392 331
4784 331
5167 137
7709 124
2343 98
3973 433
3817 122
4251 162
9862 61
1414 409
5031 409
9531 207
1415 122
6403 132
1651 370
5032 220
3096 402
7971 89
9137 89
1420 215
8035 109
1421 23
2722 385
4347 76
5845 294
7187 168
1628 386
4736 18
5085 319
5988 123
6317 135
2546 157
8311 131
1813 423
1426 272
4869 272
1427 66
1669 66
4448 66
5400 66
1428 256
4692 33
4109 183
1430 0
7868 342
9184 153
1431 54
7333 89
7377 399
8561 399
2009 389
5526 435
1435 18
4107 18
9573 89
7233 360
2840 253
1438 35
2386 383
4383 35
9159 96
9577 188
6373 365
1442 339
5010 339
1443 299
2695 225
6680 299
6915 150
1445 320
2604 320
6406 320
7894 320
1621 213
8219 399
6738 266
2160 128
2562 457
7451 67
1544 200
3606 83
1450 382
6059 382
3993 202
6022 202
6191 233
3114 49
9625 148
5728 391
1454 72
2296 72
1455 126
2119 126
5350 126
3156 56
8845 104
1457 428
2737 428
6758 130
1458 38
1720 281
6337 293
7325 156
8027 103
9219 38
1459 310
4356 38
1460 246
9504 5
1461 340
6603 340
6715 340
9502 184
1462 254
2677 98
6318 104
1463 445
3051 165
4268 55
5857 345
1465 387
3385 387
9731 89
9876 89
1467 108
2254 97
4045 108
4615 453
5567 458
6860 337
3520 288
9307 87
1469 82
8107 94
8825 280
9285 82
1470 26
7203 26
1471 326
3955 326
4767 266
6267 444
7041 278
1473 48
4722 48
9011 89
1543 380
1475 248
6594 389
1477 292
7706 292
9765 292
3410 352
4417 352
8148 293
2674 192
9046 10
1481 232
2044 159
6438 49
8873 232
9004 232
9343 232
1483 290
3662 438
5850 290
1493 83
1485 440
1854 158
2003 440
5788 18
7822 321
1486 292
2049 279
8140 292
9800 357
1487 10
4216 295
4313 2
1488 414
3343 414
3592 414
4556 414
5037 414
1489 81
2983 81
6457 269
1490 0
2180 38
6450 0
7290 110
7514 0
9002 0
2701 2
2818 270
3741 312
3883 122
6384 1
8831 201
4946 38
1495 12
8437 12
2908 315
3117 141
4587 154
1497 148
2621 431
9492 148
9788 148
8188 158
1499 412
4635 207
1500 1
2615 255
7800 38
3104 18
2156 9
3696 72
3746 286
4687 37
7877 46
1508 105
4019 237
5768 399
1509 33
6356 446
5258 302
6333 302
3251 185
3373 185
7246 153
1512 37
2393 179
9136 37
1513 165
3623 135
8682 153
7302 155
8950 351
3331 100
9010 173
4499 49
1518 204
1520 271
5252 271
1521 347
1790 228
2014 33
1523 404
5424 404
1525 30
3055 0
3936 30
7119 27
9367 111
8683 61
5905 329
1528 311
1838 311
5276 47
9960 49
1530 95
3179 166
7226 357
7650 55
7823 418
4275 2
1533 218
1753 316
4967 409
1534 337
2817 47
6378 27
1536 24
1917 24
2453 316
1537 114
2308 270
4549 114
4230 433
2413 188
3029 66
9745 188
1541 258
3314 258
7778 258
9593 38
1542 406
9064 357
2266 10
3349 206
8298 380
8742 214
6743 200
7717 90
1545 437
1571 5
4227 301
6542 437
8524 96
1546 384
6746 384
8247 280
1547 22
2159 103
4239 423
3808 113
1549 310
8553 93
9511 153
2506 346
1552 336
4201 374
4545 399
8833 336
1553 166
1945 73
1554 207
1955 245
3186 207
4904 297
1555 325
4877 325
5912 325
5975 325
6795 165
6901 153
1556 162
6762 18
7087 162
1827 53
3860 53
2730 369
1559 362
6448 304
1560 225
3594 173
3675 132
4483 28
1562 14
2555 1
6779 301
8919 49
1565 367
1566 100
6003 381
6898 94
8029 100
1677 376
4007 273
1568 241
3941 52
4714 242
8095 333
2536 114
3573 206
4334 365
6266 25
4503 112
6874 5
1936 234
5358 373
2663 455
4536 1
9698 61
1575 68
1901 68
2669 93
3991 55
1577 305
3116 305
5841 305
6115 305
1578 443
2656 124
4462 223
4681 237
1579 435
3026 435
9803 89
5448 221
2988 40
5511 373
7980 42
1582 265
3108 188
4616 265
4811 127
3061 446
6071 63
1584 305
2148 305
1585 292
9512 89
1586 14
2213 208
2636 1
3347 14
4206 9
5346 14
6212 14
2284 81
5608 351
1589 347
8574 61
6789 30
1592 227
2188 82
4675 429
7160 220
7376 372
8572 120
2600 258
7812 235
4916 331
5305 331
6428 260
1597 144
8234 55
4522 121
5101 201
6691 333
1599 282
5584 15
7799 93
8004 357
1600 334
3604 225
4875 284
5812 334
6628 334
8206 334
4649 14
5418 301
7652 301
8772 293
4608 186
5907 5
9498 110
1603 429
2347 429
6651 42
6963 181
9461 254
7071 130
1606 375
5492 375
6213 375
7022 375
3806 198
9216 197
1608 300
5256 300
1609 31
5453 207
5503 31
8175 31
1610 319
2245 325
6240 372
1612 237
6665 196
1613 104
4438 104
3528 350
4410 273
3736 239
3752 383
1619 135
9468 135
4530 330
2953 213
5968 213
7253 138
8119 284
3148 334
1623 352
2210 352
4371 60
3782 335
8182 208
6107 226
2537 219
4289 343
4384 354
4766 201
3690 45
5729 383
6139 386
7827 109
1630 255
6272 37
2038 375
6704 357
1632 240
7519 240
7801 48
1635 321
2952 280
5211 0
1968 369
8910 38
3151 308
3789 361
4528 308
6341 308
6640 308
7026 308
6652 276
7903 104
2256 217
4477 368
8367 158
9793 190
7522 318
1644 227
5482 393
2874 353
1795 134
2629 134
3082 134
5640 134
8514 254
2772 103
7974 153
9899 131
6605 211
2147 370
7569 234
7851 150
3629 394
1654 86
8853 86
4214 410
2768 83
3647 422
4032 386
4942 386
1660 153
4805 433
7348 153
7828 153
1800 452
9725 124
6606 173
7491 276
9182 49
4569 153
1666 278
8394 278
1667 424
2027 424
7145 184
1671 142
1672 443
1673 188
3222 12
4547 188
7402 380
1674 4
1675 118
3355 177
3657 44
1676 115
4033 115
8708 33
3518 313
1678 88
3105 392
3146 271
3554 271
3555 271
5068 271
2322 6
3970 266
1683 10
3044 305
1684 124
6228 124
2989 328
8272 16
4861 458
5259 16
6380 458
6509 308
4191 77
4253 345
6875 71
1728 176
2927 205
4445 261
2633 246
3034 69
3295 395
3639 419
6322 69
5404 458
4521 144
1693 76
1694 391
1695 301
2368 195
7503 124
3722 193
3772 263
4329 203
8623 270
9012 270
1697 6
3840 365
3025 47
1699 204
1719 204
4397 204
3819 238
3966 52
5328 143
4157 397
1703 238
2161 238
3071 238
4020 238
4925 238
1704 27
2698 176
1706 55
5920 102
8147 33
1709 409
1995 89
3471 409
4732 409
7550 99
1712 193
3028 138
8071 193
5685 305
7171 169
1714 174
2544 47
5873 174
1715 358
3131 358
7881 12
3807 291
6144 313
8550 281
8975 112
1722 301
2171 145
5926 22
1724 269
1725 377
2152 377
6205 367
6347 258
5710 47
2727 103
4166 253
1730 371
2264 421
4802 371
1731 272
8807 169
1732 378
5348 378
1733 247
2372 247
6658 55
4080 216
3811 108
7941 240
5778 214
6294 173
3068 253
1744 158
8033 158
8817 158
2868 181
2221 267
1748 18
6487 90
6682 448
3451 218
7478 291
1751 113
8357 169
1752 390
5536 390
6098 188
7225 87
4124 316
5105 316
6399 316
6421 316
1755 306
4867 282
6063 306
7508 1
8380 359
3134 402
4304 147
5980 198
1758 303
3667 296
4112 93
4590 138
6777 117
1761 409
7016 112
1764 232
9506 197
3678 453
5250 141
7528 65
1769 248
6764 186
1770 105
6442 0
1771 130
2607 458
3452 130
5675 58
6165 130
1772 360
3140 409
6655 360
7408 10
1774 49
3333 32
8860 49
9622 49
1775 8
7033 153
1777 402
2847 258
5135 122
7051 402
7829 402
1778 191
7743 191
3063 69
5439 329
1780 49
8198 190
8384 247
2295 16
6476 446
7192 446
1979 224
4535 191
6433 169
8428 21
3052 366
1787 311
4367 311
3367 465
4595 312
7337 465
7725 465
1988 180
4404 148
2660 72
5398 228
7486 228
1791 435
5459 145
1793 236
3443 232
4581 275
1796 352
3959 83
8050 61
6811 169
1799 389
2857 50
1801 360
1802 93
9977 93
1835 275
6796 30
1804 416
2968 416
5499 416
5579 193
6432 100
1805 104
5214 104
7448 104
3951 407
4734 408
7834 216
9678 153
7024 120
1808 194
3664 211
5514 137
6186 141
2512 266
1812 318
4544 318
2013 311
2145 89
7710 173
3041 58
8921 217
1817 275
3147 275
4374 275
5884 275
7394 64
2473 239
2551 431
6158 155
3750 213
1820 98
1928 93
6422 127
4114 45
9009 197
2521 180
1824 196
4290 196
1825 416
4363 41
6526 416
8491 65
1826 329
4959 329
6396 329
8900 8
1829 125
4236 125
1830 80
5143 80
3121 16
4642 337
6524 62
1832 291
2412 277
4301 4
7161 336
7338 319
4327 407
5082 407
5359 437
6079 407
6210 407
2327 275
1836 338
4345 4
4479 448
3033 354
9936 5
1903 379
6214 55
1845 303
1846 365
5606 81
5741 365
7489 365
7931 365
1847 183
1848 220
3502 446
6033 220
7399 220
6138 30
2087 282
4652 447
7738 214
5705 392
7842 392
1853 328
2261 328
4257 328
5701 46
5238 120
9034 120
3001 287
4879 287
3699 410
5456 5
1858 420
2963 420
5822 49
2507 84
7581 392
1861 113
2304 113
6991 345
1862 284
1864 216
3645 335
8731 216
1865 321
7061 46
2007 148
4300 305
2658 394
1869 410
2795 410
1870 415
3516 415
3780 415
2774 291
3695 444
6361 247
7804 344
1874 228
1876 120
3832 393
4084 87
8588 89
8718 89
1879 219
3558 219
3668 219
4465 219
1880 138
3021 210
1881 27
8281 27
1884 48
1885 256
5100 146
1886 386
1887 180
2460 230
3241 17
8882 211
1889 381
3588 284
5609 381
7918 131
8316 110
3988 60
4957 1
5786 268
2655 456
1931 327
1954 83
2311 432
1896 390
2809 390
1897 48
3642 342
6543 50
5133 166
9631 190
1904 466
2138 466
2441 466
3947 466
4571 466
6166 89
1905 365
3671 169
1906 254
5149 321
8988 399
4789 430
5754 159
1908 18
2556 18
4591 18
7086 18
8407 18
8798 280
1909 135
2281 306
2408 167
7343 5
5625 342
6424 218
2446 157
4430 233
7049 0
1915 146
5363 146
7629 146
2705 190
1918 92
3048 308
1919 4
2494 153
4634 292
3758 270
1922 226
3598 172
1926 90
6775 90
5631 184
3755 356
5103 327
1932 431
2509 355
6770 270
1934 111
7635 56
3136 292
1937 47
9763 216
3638 55
6768 111
3787 329
6631 329
7898 87
1940 196
2059 196
1941 419
1943 216
5495 216
3270 357
1946 23
3009 23
8049 208
6116 257
3901 330
6109 330
1949 119
6036 119
1950 302
2803 302
2219 21
1952 391
6264 278
1953 217
5212 241
5645 278
7766 142
6168 411
1958 179
2232 179
3994 179
7133 46
4494 77
1962 49
5419 303
1964 106
4093 106
1965 223
6297 223
6496 43
1966 200
2005 200
5255 292
1967 82
1970 30
1972 118
8503 430
1973 190
8162 190
8930 342
1975 131
2455 140
1976 33
3257 422
3884 425
5836 93
8225 0
4346 224
2572 307
1981 222
3413 427
3684 207
1982 206
2822 249
5004 206
6923 206
6957 206
2350 63
1985 61
6023 123
1989 377
2810 377
3084 182
3730 1
6803 372
2401 124
1998 123
3253 64
5947 47
2002 274
2004 266
9392 266
2006 372
3603 103
4596 333
2012 464
5069 464
6589 464
3517 10
4233 47
3862 184
2020 239
6794 82
8675 142
2876 333
7786 184
3342 52
9117 52
2026 277
8039 277
2679 86
6034 219
7125 153
5657 146
8239 284
4841 186
7062 235
2032 345
3489 399
4539 278
2033 204
2206 254
2887 384
2933 375
5307 211
8413 112
2039 305
2070 361
5917 305
6323 305
2040 463
2041 9
3734 78
4413 30
4982 364
2045 188
4219 188
2856 381
3040 465
2642 279
3149 384
6520 79
2052 261
6646 1
2053 198
5140 198
8621 266
3383 123
2055 1
2318 5
8267 1
2057 365
2641 365
9526 5
2058 409
2083 90
3325 196
2060 36
2398 73
3681 138
5425 55
7143 55
2062 17
3267 316
8647 4
6734 439
2066 5
4259 244
2068 282
7712 282
8160 235
8556 94
2069 462
2136 462
2390 357
2478 462
4282 0
2071 158
6714 359
7896 173
8417 319
3185 380
5991 165
2075 11
4262 135
5180 118
2723 174
7803 148
2079 124
3770 268
9572 124
2080 178
2276 255
3388 0
2081 209
3101 209
9748 0
2082 319
2178 37
7157 319
8792 280
3432 345
4405 156
6755 90
6959 465
2085 78
6237 5
2088 402
6689 402
3317 19
8069 197
7534 96
2331 5
8976 5
2095 320
4127 392
2096 17
2712 188
2100 313
5767 313
7502 313
2102 294
4294 294
6292 294
6730 294
2103 199
2746 462
6215 239
7183 49
4574 427
2107 46
3454 102
2108 210
2973 69
3570 110
3828 310
3794 370
4362 370
6050 31
2110 302
2111 57
3660 57
4888 18
5496 57
5709 57
9469 153
2935 152
4235 195
2114 375
2859 375
7673 55
5715 152
3126 364
8365 430
2118 11
3612 126
6305 367
3542 397
6639 61
4089 93
2124 183
6441 453
8181 78
2127 10
2128 321
4337 245
2134 152
2601 374
5734 18
2867 254
2132 5
2407 230
6593 152
2135 26
7606 15
7085 82
5759 466
4276 258
7293 173
2140 393
2487 103
4582 393
5666 239
2141 63
3605 63
5297 63
2142 316
2599 148
5179 235
2502 48
7093 89
2146 407
2427 407
8278 94
8319 217
4328 78
2149 275
4956 118
6004 5
2151 89
9441 89
3106 186
5632 380
6477 240
3858 110
2154 50
4386 390
5986 138
2157 115
7089 453
2158 24
4011 24
6100 259
8603 103
3064 59
4672 292
4266 238
2162 223
5572 104
4962 190
5060 292
2164 389
4859 194
2167 103
2744 103
2170 37
4424 37
2522 415
4029 466
2175 132
2176 320
5622 146
5381 289
2287 216
2465 33
3073 38
4344 148
7950 99
2476 23
6921 367
2182 2
6244 182
2185 224
2186 282
2843 131
5674 194
2187 430
6133 359
2189 351
3701 391
5430 208
2192 81
2193 138
2624 138
2194 96
2195 49
3943 100
4999 430
6444 49
3291 287
8408 356
2199 257
2201 338
2561 338
8110 93
4081 41
2204 367
4935 18
3538 254
6357 233
4605 100
5463 18
6986 18
2374 99
6401 263
2214 373
2985 373
7214 373
2215 188
3111 380
5693 268
6711 278
6638 132
3488 308
2649 432
5416 153
2225 103
2226 142
8655 142
2901 371
7908 49
4457 220
7966 156
7243 158
7558 124
5470 304
8010 121
4050 233
6813 67
5563 446
2239 279
4944 97
2323 254
3549 122
3778 178
7624 38
3362 0
9338 319
6590 325
2645 109
2247 58
9027 27
3574 175
4339 175
2541 239
4287 281
4902 110
2252 25
3731 124
5724 211
2676 94
2765 200
2255 334
8516 235
6719 217
2257 233
2610 164
9271 214
2262 415
2625 415
3751 415
4035 138
7727 94
2265 295
7353 10
7835 61
6872 21
4762 191
5365 111
6112 191
2270 3
2432 8
2938 423
2273 93
4618 93
6539 280
2277 56
6303 27
2302 465
5872 210
6231 94
2924 169
2286 303
2860 271
7001 187
2289 242
5226 124
5799 242
3153 48
4579 382
2294 241
4104 241
4160 241
2297 416
2298 357
2528 138
2299 110
5738 107
2301 366
5326 465
2851 333
4031 249
9162 94
5727 18
2700 91
4765 91
2307 43
5188 48
7435 464
9044 270
9676 270
2309 1
7555 1
2310 464
2926 432
6926 351
2315 292
2535 292
3842 11
4090 132
6565 336
5751 344
3561 201
8000 37
5699 464
2324 49
7122 239
7575 49
2325 131
4223 94
4955 232
2329 257
8142 4
2330 435
9933 38
2332 437
4488 437
4447 183
2335 417
6927 357
2337 97
3344 410
7482 16
3312 148
2341 15
6037 33
2346 420
4428 48
3441 182
4709 216
5784 235
5172 130
9203 47
6310 310
2354 445
6552 65
2355 215
6575 41
7188 124
7807 77
2360 165
4594 76
5205 165
4817 55
8255 49
2363 291
2364 132
4018 217
6060 38
3611 308
6127 210
6425 137
4529 158
2371 444
5241 18
2902 109
5125 213
3871 99
7017 99
2974 288
2379 270
8925 270
2380 168
2381 178
3411 178
4853 240
9777 38
3292 214
2384 214
7516 214
2992 155
5122 155
5213 155
3039 383
2523 351
2389 150
2464 418
3289 464
3261 396
2394 150
5560 38
2395 44
2667 444
2399 254
6903 254
4004 217
2403 247
3243 261
4198 240
7318 240
8961 333
2419 186
3465 148
3552 52
4379 38
6814 168
4075 385
7126 61
4837 263
2425 60
5370 211
9318 207
3666 438
8013 99
4194 334
3157 155
4353 289
3640 201
2568 305
7681 10
4237 361
5078 144
4197 119
2448 446
2450 27
7625 0
4039 244
5582 140
2456 255
2457 207
2458 236
2820 236
4342 447
4831 443
5043 164
2461 7
6125 333
2463 61
3546 408
3643 217
4187 102
2466 355
2469 430
2470 153
2472 305
4008 305
4792 177
5420 364
5787 465
6236 132
3439 240
3898 202
2480 297
2481 108
6096 292
2483 351
7092 351
7162 135
6152 399
7813 143
6910 367
2931 299
4776 261
2488 455
5292 33
7953 38
2490 0
3593 421
4394 421
3541 0
3370 151
3248 153
2495 90
3764 111
7750 8
2498 388
5099 206
2503 135
6064 135
4399 46
6793 197
3277 269
2511 302
5134 354
2934 183
2515 269
3905 269
4119 171
2519 342
2880 213
4963 77
7864 190
7912 96
6132 139
7648 138
8525 138
9122 138
4964 240
5411 290
2534 217
3853 169
4037 139
3378 411
5476 104
2539 38
3628 367
4373 210
3571 137
3822 178
5720 322
3247 66
2553 278
4971 1
2557 122
4258 380
4520 122
6832 281
7291 217
3473 19
7357 5
4310 254
4060 96
2826 443
7537 301
9574 197
8121 367
2571 275
6224 184
5413 123
2975 271
2580 82
5966 82
3161 75
2583 240
3420 330
4969 138
2865 83
3237 83
3368 146
2586 102
7731 216
2589 354
3745 354
4341 354
2921 417
5379 127
2594 411
3145 153
2596 90
4990 90
3786 173
4500 123
2598 132
4423 119
4685 181
4021 187
3596 9
7836 10
4865 357
2609 18
2657 216
6861 119
7168 18
7946 18
2611 285
4414 285
7358 337
2614 395
4057 395
2616 381
2802 357
2619 299
3155 65
8677 43
7334 190
7932 292
8796 191
8658 138
2639 241
2627 303
4597 150
8650 303
2628 333
5077 376
5395 77
2631 89
5987 89
2936 152
2804 453
2635 250
3446 168
4455 241
8652 153
4863 278
2881 351
5866 135
6372 143
2652 311
4785 311
2654 310
7583 10
8889 124
4918 367
3019 88
2664 43
6275 411
8494 43
2941 132
5711 174
7907 94
3371 444
7069 10
6896 367
4874 289
6772 190
4305 367
2870 70
4241 70
6216 37
4002 78
4666 408
2680 301
4056 301
6981 301
3423 10
2686 317
2755 169
6090 282
2690 38
5268 156
6198 225
2694 38
2697 269
3345 85
3310 91
2702 162
3075 269
4252 162
2703 141
2704 148
8985 148
4868 5
5054 11
4611 362
5745 191
2719 452
6447 333
4684 357
7664 211
6709 107
3725 174
4232 208
5191 164
5665 0
2725 213
7753 184
5998 342
8538 96
9237 197
6964 96
2942 292
2729 19
4297 52
8088 19
4712 448
2911 90
5152 90
2993 33
2736 206
4939 54
4046 238
2738 357
5591 357
2741 205
3369 42
2745 0
2747 315
2873 149
2909 149
3748 307
5153 289
2753 198
3922 252
2756 28
2758 8
2759 249
4854 249
2766 289
3162 289
4023 61
2770 299
3849 395
3490 111
2837 148
7939 291
4333 233
5892 41
2778 119
3658 138
2782 312
7130 312
5164 148
3472 79
3762 135
2800 313
3363 177
3038 100
5351 19
5731 33
2807 360
2962 267
2815 48
5766 270
2816 30
3976 280
8155 169
3387 270
4663 270
4905 270
6987 33
5809 396
2825 281
3482 89
3834 158
2832 138
2839 270
6363 207
3872 438
2846 242
5509 258
2848 325
2979 337
4279 121
5057 259
3886 5
4480 375
3336 271
6473 359
6650 281
2863 159
3891 159
3430 232
2866 182
3479 182
3223 69
3421 111
7240 333
3332 270
9864 153
3919 332
4838 281
2884 166
4601 400
2893 312
4285 312
6615 194
9272 153
7755 38
2976 294
4578 10
3578 461
2914 226
2916 8
5761 247
2919 14
4210 52
2930 31
6068 299
7511 12
3395 455
2937 74
3396 252
3036 216
4403 430
4632 131
6562 213
3533 112
2955 48
2958 131
5574 261
2960 299
8427 385
4059 79
2966 10
2967 345
3982 13
3559 54
3771 294
4069 19
5633 303
4755 304
2984 344
4523 344
8839 216
4061 441
4525 265
5634 225
2995 419
3875 86
2999 208
4015 60
5217 207
3005 187
3133 351
6119 193
3006 411
4671 433
8002 190
3010 439
4376 461
3015 19
5485 46
4803 166
7340 211
3020 210
3024 400
3027 38
3239 263
7002 153
3728 49
6760 158
3727 383
3103 232
3043 304
5804 304
7805 166
4370 266
6040 116
3058 247
6459 50
6582 449
9364 118
5224 26
6189 38
3074 218
4546 269
4825 182
5762 137
3080 345
7128 315
6269 8
3093 21
3097 156
6411 37
3583 453
4896 188
3766 4
5669 399
3590 181
7976 99
6683 250
3119 412
3999 8
7821 12
5519 358
5070 390
3144 107
8569 38
4510 46
6958 303
3170 0
4769 292
5441 94
3158 372
6745 310
3821 111
4921 289
3163 293
4047 21
4250 250
3329 297
8899 55
4577 110
3697 207
6113 207
6257 143
3188 410
3189 0
3198 57
6510 465
3193 284
6513 284
4076 270
7389 359
3201 319
7073 319
3202 137
3203 309
4610 425
3210 245
6808 15
3213 446
4876 65
6705 225
3226 123
8008 168
3233 143
3723 128
6876 104
3240 22
4189 175
4293 17
3245 193
3246 203
7191 66
3715 415
3866 300
7737 396
3263 82
3269 0
3271 306
5477 306
8030 89
4193 269
3278 241
4713 100
3416 42
4669 312
3299 178
3300 449
3301 211
3302 109
3304 157
4796 153
4439 265
3324 337
4723 270
5769 5
5000 79
3334 315
3855 4
3850 60
5771 50
3669 192
4213 29
3352 78
5820 304
7525 254
3531 278
5637 10
6407 315
8265 89
4151 252
3397 109
3402 90
3412 210
3422 140
5283 337
3424 313
6360 393
9022 96
3792 232
3863 437
3436 107
4911 240
4624 99
4433 232
8750 38
6517 166
6492 0
4402 104
3469 181
3508 464
3476 291
3492 5
3499 65
3914 82
3503 261
3744 158
7159 10
4312 408
5002 159
5977 191
4085 365
6151 216
5223 219
3557 422
8131 96
9160 197
3586 87
4511 121
8396 173
6327 65
3622 79
3626 252
6848 52
6014 24
4933 111
5096 250
3630 411
3631 372
5295 235
3644 132
4200 449
3665 96
5707 426
5823 184
5296 201
3716 277
3672 453
5940 12
3679 444
3683 214
4249 106
4391 93
3714 120
5596 197
7146 448
3743 50
5952 50
9080 112
5438 235
3756 198
3761 112
6625 110
6726 156
4042 55
4063 268
4083 50
3773 60
3793 255
4926 203
3802 111
3803 333
3804 426
4871 291
4407 66
8592 220
6383 380
4278 303
3868 156
3878 193
3879 10
3881 356
4493 104
4986 21
3927 321
4881 336
7576 55
3990 140
4484 2
3928 169
3978 169
4418 52
3935 297
4156 52
5310 342
5313 399
5655 284
3949 94
4135 356
4728 52
3975 321
4225 169
3989 67
3997 86
5461 65
4036 278
5207 190
6369 43
4058 261
4065 211
4100 46
4199 22
4121 177
4639 118
5733 421
4143 42
4144 104
5737 112
6354 144
4161 158
4451 166
4176 139
4204 92
4218 42
4387 64
5869 465
8189 18
8037 148
6188 220
4273 182
4711 255
4283 268
4380 43
5604 156
4548 363
7445 104
4467 181
4984 201
7015 5
7520 49
5203 77
4501 193
4507 121
6731 153
6930 1
4912 310
6010 46
7155 127
6834 89
4600 299
5899 5
4617 197
4628 18
6925 37
4936 89
4744 297
4759 38
7943 284
4772 184
6299 266
4786 55
4864 297
4816 304
5468 140
4834 30
4856 235
6118 22
4976 33
5695 12
4960 191
4989 103
4993 118
6994 194
5481 197
5044 211
5432 228
5281 118
5202 280
6232 42
6787 165
5564 56
6413 153
5849 112
5488 49
5500 197
5838 293
5859 319
