0 0
1 1
2 2
3 3
4 4
5 5
6 6
7 7
8 8
9 9
10 10
11 11
12 12
13 13
14 14
15 15
16 16
17 17
18 18
19 19
20 20
21 21
22 22
23 23
24 24
25 25
26 26
27 27
28 28
29 29
30 30
31 31
32 16
33 32
34 33
35 34
36 35
37 36
38 37
39 38
40 39
41 40
42 41
43 42
44 43
45 44
46 45
47 46
48 47
49 48
50 49
51 50
52 51
53 52
54 53
55 54
56 55
57 56
58 57
59 58
60 59
61 60
62 61
63 14
64 62
65 5
66 63
67 64
68 65
69 66
70 67
71 68
72 69
73 70
74 71
75 72
76 73
77 74
78 38
79 75
80 76
81 77
82 78
83 79
84 80
85 81
86 82
87 83
88 53
89 84
90 85
91 86
92 87
93 88
94 73
95 58
96 89
97 38
98 2
99 14
100 90
101 91
102 92
103 93
104 94
105 95
106 96
107 97
108 98
109 34
110 99
111 100
112 70
113 101
114 22
115 102
116 103
117 104
118 105
119 1
120 106
121 107
122 108
123 109
124 110
125 111
126 112
127 113
128 114
129 115
130 116
131 117
132 116
133 118
134 63
135 119
136 120
137 121
138 122
139 113
140 39
141 123
142 124
143 14
144 125
145 126
146 127
147 128
148 69
149 129
150 130
151 131
152 132
153 133
154 134
155 135
156 136
157 1
158 137
159 138
160 139
161 138
162 140
163 141
164 142
165 48
166 143
167 144
168 145
169 146
170 7
171 147
172 148
173 149
174 150
175 151
176 152
177 112
178 153
179 154
180 155
181 156
182 157
183 158
184 159
185 160
186 92
187 161
188 65
189 162
190 163
191 164
192 59
193 165
194 166
195 167
196 168
197 37
198 169
199 106
200 104
201 170
202 171
203 172
204 173
205 149
206 174
207 57
208 98
209 175
210 176
211 177
212 178
213 177
214 158
215 179
216 180
217 181
218 32
219 2
220 182
221 183
222 46
223 184
224 185
225 186
226 187
227 188
228 189
229 190
230 5
231 191
232 192
233 193
234 194
235 195
236 196
237 197
238 198
239 199
240 200
241 201
242 202
243 104
244 203
245 204
246 205
247 206
248 207
249 208
250 209
251 210
252 211
253 212
254 136
255 188
256 213
257 21
258 214
259 117
260 215
261 216
262 217
263 122
264 218
265 219
266 137
267 220
268 221
269 222
270 218
271 223
272 224
273 225
274 18
275 226
276 227
277 228
278 177
279 189
280 75
281 229
282 230
283 212
284 231
285 232
286 233
287 234
288 235
289 236
290 140
291 237
292 238
293 40
294 218
295 239
296 119
297 240
298 205
299 14
300 241
301 242
302 243
303 106
304 63
305 244
306 127
307 245
308 246
309 92
310 104
311 189
312 247
313 248
314 230
315 39
316 227
317 249
318 250
319 251
320 252
321 253
322 25
323 254
324 255
325 110
326 256
327 147
328 230
329 257
330 251
331 240
332 37
333 258
334 107
335 259
336 260
337 7
338 261
339 262
340 263
341 264
342 265
343 199
344 266
345 128
346 267
347 268
348 269
349 270
350 222
351 99
352 271
353 272
354 273
355 7
356 274
357 83
358 106
359 275
360 271
361 276
362 165
363 277
364 278
365 86
366 279
367 280
368 172
369 249
370 281
371 282
372 84
373 129
374 280
375 107
376 79
377 122
378 180
379 205
380 193
381 283
382 284
383 285
384 2
385 241
386 265
387 286
388 56
389 245
390 287
391 140
392 110
393 192
394 253
395 230
396 184
397 288
398 289
399 290
400 116
401 90
402 194
403 291
404 205
405 292
406 293
407 227
408 294
409 135
410 285
411 166
412 295
413 296
414 55
415 297
416 266
417 249
418 24
419 298
420 223
421 299
422 25
423 300
424 301
425 302
426 303
427 124
428 14
429 304
430 167
431 302
432 305
433 306
434 119
435 307
436 3
437 280
438 166
439 157
440 308
441 264
442 278
443 309
444 310
445 308
446 311
447 46
448 312
449 265
450 279
451 109
452 151
453 69
454 313
455 314
456 76
457 315
458 34
459 13
460 223
461 31
462 187
463 251
464 316
465 317
466 318
467 263
468 319
469 205
470 320
471 321
472 280
473 322
474 245
475 323
476 77
477 213
478 324
479 325
480 304
481 255
482 326
483 13
484 327
485 199
486 328
487 66
488 329
489 274
490 37
491 330
492 171
493 331
494 332
495 101
496 17
497 333
498 334
499 39
500 56
501 304
502 335
503 336
504 105
505 228
506 104
507 337
508 338
509 268
510 339
511 51
512 241
513 227
514 74
515 194
516 49
517 95
518 340
519 341
520 342
521 13
522 343
523 344
524 30
525 31
526 213
527 1
528 249
529 345
530 346
531 156
532 224
533 224
534 344
535 342
536 347
537 87
538 348
539 349
540 160
541 260
542 59
543 350
544 287
545 45
546 48
547 351
548 288
549 57
550 16
551 352
552 93
553 122
554 353
555 354
556 89
557 3
558 64
559 355
560 169
561 356
562 357
563 358
564 329
565 1
566 359
567 150
568 328
569 342
570 360
571 351
572 181
573 361
574 267
575 3
576 279
577 73
578 58
579 362
580 363
581 320
582 364
583 365
584 224
585 366
586 227
587 367
588 253
589 307
590 368
591 79
592 313
593 12
594 369
595 370
596 106
597 268
598 92
599 371
600 214
601 251
602 179
603 205
604 224
605 372
606 357
607 306
608 29
609 184
610 220
611 174
612 373
613 37
614 374
615 375
616 376
617 334
618 334
619 139
620 252
621 377
622 105
623 240
624 378
625 316
626 338
627 379
628 327
629 109
630 80
631 197
632 284
633 117
634 236
635 380
636 30
637 55
638 220
639 17
640 381
641 172
642 382
643 231
644 383
645 384
646 57
647 282
648 385
649 386
650 90
651 106
652 39
653 56
654 387
655 157
656 239
657 388
658 230
659 389
660 331
661 186
662 390
663 391
664 327
665 144
666 392
667 57
668 78
669 338
670 158
671 393
672 353
673 394
674 395
675 145
676 85
677 57
678 396
679 153
680 397
681 269
682 359
683 398
684 222
685 385
686 399
687 400
688 401
689 280
690 246
691 402
692 342
693 403
694 47
695 354
696 404
697 218
698 92
699 385
700 405
701 62
702 404
703 101
704 406
705 201
706 176
707 407
708 307
709 408
710 409
711 406
712 410
713 22
714 411
715 412
716 413
717 414
718 415
719 159
720 230
721 19
722 253
723 31
724 352
725 75
726 416
727 417
728 327
729 418
730 395
731 62
732 385
733 346
734 135
735 357
736 388
737 383
738 65
739 405
740 197
741 368
742 419
743 420
744 421
745 203
746 422
747 320
748 12
749 415
750 99
751 131
752 356
753 423
754 289
755 209
756 258
757 424
758 4
759 41
760 245
761 88
762 194
763 108
764 425
765 277
766 363
767 64
768 95
769 254
770 365
771 201
772 426
773 427
774 197
775 275
776 98
777 390
778 113
779 428
780 223
781 429
782 193
783 57
784 160
785 430
786 183
787 7
788 431
789 118
790 7
791 89
792 356
793 432
794 351
795 194
796 192
797 433
798 123
799 254
800 4
801 434
802 435
803 285
804 222
805 166
806 165
807 83
808 323
809 306
810 436
811 323
812 230
813 139
814 78
815 3
816 437
817 438
818 211
819 116
820 439
821 420
822 440
823 190
824 253
825 441
826 84
827 319
828 172
829 196
830 214
831 73
832 442
833 299
834 230
835 39
836 443
837 163
838 444
839 270
840 380
841 25
842 190
843 359
844 331
845 309
846 210
847 238
848 404
849 236
850 378
851 164
852 247
853 445
854 289
855 123
856 295
857 149
858 446
859 294
860 177
861 433
862 268
863 324
864 447
865 3
866 448
867 449
868 450
869 451
870 361
871 169
872 452
873 9
874 166
875 334
876 453
877 444
878 454
879 213
880 455
881 335
882 429
883 305
884 78
885 280
886 378
887 456
888 293
889 106
890 277
891 440
892 206
893 136
894 385
895 285
896 375
897 342
898 414
899 457
900 227
901 404
902 155
903 200
904 41
905 458
906 340
907 207
908 459
909 56
910 415
911 273
912 105
913 460
914 461
915 462
916 440
917 440
918 463
919 136
920 232
921 15
922 464
923 64
924 357
925 282
926 201
927 95
928 414
929 465
930 37
931 163
932 17
933 442
934 72
935 78
936 236
937 41
938 298
939 466
940 263
941 397
942 293
943 220
944 77
945 7
946 357
947 434
948 391
949 57
950 206
951 306
952 287
953 233
954 121
955 467
956 197
957 405
958 208
959 450
960 289
961 135
962 424
963 406
964 397
965 87
966 468
967 21
968 469
969 111
970 470
971 24
972 276
973 116
974 228
975 351
976 422
977 275
978 232
979 211
980 373
981 316
982 205
983 471
984 236
985 406
986 206
987 472
988 116
989 37
990 235
991 135
992 376
993 426
994 383
995 473
996 62
997 443
998 368
999 352
1000 94
1001 217
1002 474
1003 252
1004 119
1005 473
1006 475
1007 128
1008 476
1009 17
1010 477
1011 274
1012 304
1013 107
1014 167
1015 316
1016 311
1017 380
1018 151
1019 116
1020 444
1021 108
1022 455
1023 242
1024 253
1025 478
1026 414
1027 98
1028 479
1029 447
1030 414
1031 466
1032 480
1033 123
1034 78
1035 289
1036 227
1037 2
1038 57
1039 443
1040 171
1041 481
1042 82
1043 480
1044 316
1045 303
1046 166
1047 79
1048 478
1049 282
1050 480
1051 185
1052 482
1053 118
1054 113
1055 19
1056 390
1057 279
1058 13
1059 365
1060 433
1061 483
1062 409
1063 189
1064 484
1065 239
1066 47
1067 250
1068 95
1069 485
1070 233
1071 37
1072 151
1073 166
1074 169
1075 217
1076 391
1077 220
1078 391
1079 349
1080 363
1081 45
1082 377
1083 13
1084 486
1085 487
1086 365
1087 358
1088 247
1089 455
1090 362
1091 2
1092 488
1093 224
1094 89
1095 149
1096 167
1097 368
1098 184
1099 282
1100 282
1101 3
1102 307
1103 128
1104 171
1105 51
1106 282
1107 55
1108 448
1109 68
1110 56
1111 334
1112 89
1113 480
1114 49
1115 367
1116 444
1117 181
1118 183
1119 122
1120 252
1121 489
1122 55
1123 367
1124 147
1125 233
1126 385
1127 255
1128 205
1129 106
1130 183
1131 455
1132 200
1133 306
1134 117
1135 213
1136 184
1137 490
1138 161
1139 374
1140 94
1141 400
1142 185
1143 448
1144 428
1145 345
1146 261
1147 98
1148 116
1149 338
1150 80
1151 444
1152 31
1153 379
1154 491
1155 323
1156 367
1157 314
1158 181
1159 291
1160 175
1161 379
1162 370
1163 90
1164 232
1165 492
1166 240
1167 331
1168 131
1169 184
1170 318
1171 51
1172 179
1173 263
1174 479
1175 353
1176 493
1177 494
1178 400
1179 166
1180 136
1181 360
1182 448
1183 139
1184 390
1185 311
1186 21
1187 404
1188 171
1189 128
1190 307
1191 56
1192 271
1193 337
1194 370
1195 341
1196 128
1197 51
1198 246
1199 388
1200 481
1201 414
1202 181
1203 423
1204 211
1205 113
1206 258
1207 137
1208 391
1209 302
1210 309
1211 390
1212 302
1213 466
1214 432
1215 275
1216 414
1217 181
1218 204
1219 495
1220 496
1221 217
1222 159
1223 279
1224 236
1225 204
1226 37
1227 497
1228 168
1229 498
1230 76
1231 257
1232 134
1233 381
1234 302
1235 302
1236 499
1237 251
1238 143
1239 169
1240 177
1241 337
1242 223
1243 106
1244 456
1245 500
1246 156
1247 501
1248 330
1249 264
1250 146
1251 86
1252 502
1253 137
1254 249
1255 379
1256 365
1257 205
1258 417
1259 503
1260 280
1261 148
1262 236
1263 1
1264 344
1265 163
1266 379
1267 107
1268 422
1269 213
1270 213
1271 232
1272 178
1273 426
1274 504
1275 238
1276 505
1277 234
1278 60
1279 250
1280 128
1281 442
1282 94
1283 272
1284 63
1285 19
1286 255
1287 381
1288 232
1289 391
1290 443
1291 289
1292 248
1293 94
1294 460
1295 456
1296 39
1297 506
1298 507
1299 407
1300 385
1301 222
1302 497
1303 155
1304 99
1305 508
1306 155
1307 73
1308 297
1309 267
1310 346
1311 94
1312 391
1313 442
1314 282
1315 144
1316 41
1317 220
1318 106
1319 509
1320 251
1321 510
1322 185
1323 291
1324 337
1325 508
1326 122
1327 511
1328 359
1329 99
1330 37
1331 117
1332 58
1333 275
1334 285
1335 346
1336 503
1337 82
1338 245
1339 193
1340 53
1341 286
1342 444
1343 468
1344 448
1345 181
1346 442
1347 129
1348 345
1349 240
1350 73
1351 414
1352 236
1353 233
1354 22
1355 37
1356 196
1357 123
1358 323
1359 220
1360 437
1361 306
1362 166
1363 232
1364 119
1365 251
1366 342
1367 73
1368 185
1369 90
1370 144
1371 135
1372 57
1373 391
1374 41
1375 138
1376 150
1377 249
1378 269
1379 512
1380 189
1381 228
1382 513
1383 345
1384 313
1385 509
1386 514
1387 363
1388 460
1389 200
1390 460
1391 289
1392 242
1393 252
1394 274
1395 281
1396 342
1397 424
1398 413
1399 74
1400 84
1401 268
1402 278
1403 237
1404 406
1405 78
1406 169
1407 62
1408 302
1409 334
1410 278
1411 515
1412 92
1413 163
1414 338
1415 516
1416 508
1417 25
1418 252
1419 359
1420 439
1421 517
1422 144
1423 518
1424 37
1425 242
1426 448
1427 447
1428 48
1429 303
1430 414
1431 89
1432 451
1433 39
1434 392
1435 506
1436 407
1437 106
1438 37
1439 172
1440 37
1441 17
1442 30
1443 302
1444 407
1445 145
1446 14
1447 407
1448 444
1449 429
1450 136
1451 49
1452 251
1453 189
1454 301
1455 346
1456 73
1457 346
1458 51
1459 519
1460 135
1461 379
1462 13
1463 443
1464 344
1465 443
1466 194
1467 381
1468 194
1469 443
1470 520
1471 521
1472 481
1473 146
1474 334
1475 264
1476 50
1477 460
1478 444
1479 379
1480 80
1481 515
1482 404
1483 417
1484 430
1485 249
1486 506
1487 429
1488 82
1489 426
1490 55
1491 337
1492 367
1493 119
1494 100
1495 183
1496 522
1497 22
1498 397
1499 163
1500 405
1501 520
1502 31
1503 395
1504 278
1505 506
1506 135
1507 442
1508 417
1509 518
1510 264
1511 523
1512 196
1513 63
1514 157
1515 296
1516 40
1517 136
1518 337
1519 465
1520 359
1521 137
1522 520
1523 169
1524 364
1525 57
1526 130
1527 282
1528 524
1529 151
1530 503
1531 525
1532 105
1533 272
1534 99
1535 49
1536 337
1537 164
1538 196
1539 385
1540 295
1541 497
1542 306
1543 242
1544 213
1545 99
1546 84
1547 526
1548 108
1549 512
1550 397
1551 431
1552 144
1553 327
1554 106
1555 189
1556 404
1557 249
1558 274
1559 191
1560 81
1561 291
1562 319
1563 206
1564 14
1565 237
1566 260
1567 411
1568 282
1569 86
1570 171
1571 504
1572 467
1573 17
1574 379
1575 401
1576 111
1577 43
1578 241
1579 177
1580 368
1581 234
1582 289
1583 404
1584 199
1585 318
1586 464
1587 199
1588 367
1589 424
1590 43
1591 145
1592 313
1593 151
1594 227
1595 433
1596 128
1597 273
1598 516
1599 63
1600 173
1601 527
1602 237
1603 21
1604 481
1605 472
1606 139
1607 395
1608 528
1609 334
1610 331
1611 440
1612 152
1613 34
1614 442
1615 281
1616 529
1617 444
1618 339
1619 30
1620 117
1621 62
1622 168
1623 237
1624 368
1625 433
1626 272
1627 13
1628 504
1629 100
1630 404
1631 254
1632 313
1633 79
1634 333
1635 431
1636 137
1637 100
1638 530
1639 1
1640 442
1641 479
1642 424
1643 196
1644 32
1645 238
1646 45
1647 152
1648 323
1649 2
1650 221
1651 136
1652 178
1653 295
1654 531
1655 205
1656 159
1657 349
1658 419
1659 295
1660 281
1661 318
1662 79
1663 520
1664 481
1665 161
1666 318
1667 448
1668 190
1669 105
1670 159
1671 368
1672 238
1673 30
1674 347
1675 532
1676 327
1677 58
1678 118
1679 528
1680 502
1681 264
1682 516
1683 241
1684 520
1685 430
1686 261
1687 464
1688 533
1689 31
1690 162
1691 502
1692 106
1693 391
1694 427
1695 111
1696 94
1697 354
1698 534
1699 452
1700 185
1701 535
1702 477
1703 163
1704 56
1705 315
1706 122
1707 13
1708 473
1709 306
1710 318
1711 279
1712 379
1713 355
1714 306
1715 378
1716 83
1717 408
1718 333
1719 416
1720 306
1721 121
1722 489
1723 83
1724 142
1725 464
1726 22
1727 157
1728 480
1729 124
1730 152
1731 78
1732 230
1733 56
1734 55
1735 151
1736 481
1737 477
1738 321
1739 312
1740 536
1741 273
1742 306
1743 493
1744 269
1745 147
1746 89
1747 307
1748 356
1749 415
1750 157
1751 55
1752 136
1753 196
1754 323
1755 455
1756 137
1757 396
1758 442
1759 400
1760 430
1761 474
1762 32
1763 89
1764 120
1765 198
1766 360
1767 280
1768 337
1769 181
1770 189
1771 350
1772 238
1773 429
1774 63
1775 45
1776 62
1777 206
1778 439
1779 41
1780 426
1781 190
1782 426
1783 342
1784 153
1785 456
1786 166
1787 73
1788 291
1789 39
1790 254
1791 56
1792 207
1793 506
1794 282
1795 224
1796 395
1797 155
1798 537
1799 197
1800 488
1801 55
1802 306
1803 282
1804 379
1805 106
1806 190
1807 263
1808 538
1809 275
1810 208
1811 440
1812 506
1813 404
1814 520
1815 194
1816 334
1817 80
1818 204
1819 160
1820 539
1821 397
1822 136
1823 239
1824 62
1825 80
1826 147
1827 270
1828 269
1829 198
1830 146
1831 165
1832 42
1833 71
1834 200
1835 401
1836 286
1837 143
1838 220
1839 173
1840 415
1841 251
1842 406
1843 109
1844 409
1845 227
1846 413
1847 238
1848 429
1849 344
1850 28
1851 55
1852 55
1853 154
1854 41
1855 19
1856 57
1857 137
1858 152
1859 414
1860 333
1861 88
1862 536
1863 147
1864 230
1865 236
1866 190
1867 175
1868 141
1869 536
1870 220
1871 245
1872 183
1873 109
1874 535
1875 106
1876 230
1877 362
1878 509
1879 540
1880 56
1881 90
1882 269
1883 249
1884 60
1885 175
1886 439
1887 520
1888 468
1889 402
1890 527
1891 303
1892 305
1893 337
1894 326
1895 85
1896 167
1897 518
1898 115
1899 342
1900 527
1901 447
1902 200
1903 424
1904 236
1905 456
1906 208
1907 221
1908 479
1909 471
1910 480
1911 286
1912 223
1913 379
1914 411
1915 300
1916 84
1917 124
1918 241
1919 507
1920 430
1921 58
1922 205
1923 309
1924 88
1925 411
1926 269
1927 10
1928 313
1929 229
1930 98
1931 320
1932 323
1933 462
1934 217
1935 80
1936 90
1937 116
1938 175
1939 480
1940 306
1941 426
1942 163
1943 2
1944 53
1945 175
1946 72
1947 2
1948 338
1949 171
1950 334
1951 64
1952 313
1953 381
1954 531
1955 244
1956 137
1957 148
1958 405
1959 337
1960 541
1961 420
1962 473
1963 94
1964 225
1965 395
1966 7
1967 203
1968 2
1969 228
1970 281
1971 448
1972 39
1973 281
1974 221
1975 532
1976 161
1977 21
1978 157
1979 99
1980 407
1981 213
1982 262
1983 391
1984 116
1985 397
1986 205
1987 296
1988 405
1989 304
1990 311
1991 339
1992 80
1993 362
1994 308
1995 464
1996 306
1997 281
1998 251
1999 542
2000 21
2001 162
2002 330
2003 543
2004 334
2005 543
2006 146
2007 281
2008 25
2009 45
2010 466
2011 155
2012 330
2013 480
2014 470
2015 119
2016 331
2017 362
2018 544
2019 197
2020 223
2021 321
2022 164
2023 269
2024 293
2025 41
2026 545
2027 501
2028 453
2029 389
2030 407
2031 515
2032 144
2033 157
2034 84
2035 264
2036 175
2037 233
2038 342
2039 225
2040 249
2041 327
2042 241
2043 280
2044 470
2045 73
2046 19
2047 161
2048 55
2049 546
2050 200
2051 543
2052 286
2053 494
2054 36
2055 58
2056 264
2057 319
2058 334
2059 139
2060 21
2061 264
2062 3
2063 490
2064 306
2065 98
2066 440
2067 493
2068 36
2069 224
2070 80
2071 506
2072 208
2073 334
2074 440
2075 100
2076 220
2077 19
2078 343
2079 395
2080 241
2081 336
2082 400
2083 506
2084 166
2085 376
2086 269
2087 56
2088 62
2089 220
2090 2
2091 241
2092 329
2093 147
2094 458
2095 19
2096 157
2097 375
2098 87
2099 332
2100 342
2101 119
2102 196
2103 207
2104 353
2105 281
2106 427
2107 378
2108 185
2109 484
2110 494
2111 50
2112 200
2113 302
2114 13
2115 123
2116 395
2117 176
2118 284
2119 39
2120 112
2121 62
2122 313
2123 513
2124 304
2125 116
2126 137
2127 441
2128 269
2129 37
2130 363
2131 150
2132 345
2133 194
2134 292
2135 479
2136 547
2137 444
2138 462
2139 190
2140 80
2141 403
2142 105
2143 90
2144 468
2145 39
2146 548
2147 106
2148 508
2149 62
2150 419
2151 346
2152 164
2153 200
2154 224
2155 66
2156 448
2157 362
2158 282
2159 2
2160 232
2161 21
2162 277
2163 3
2164 139
2165 463
2166 425
2167 548
2168 171
2169 397
2170 119
2171 466
2172 395
2173 24
2174 397
2175 425
2176 73
2177 113
2178 381
2179 54
2180 308
2181 486
2182 542
2183 143
2184 230
2185 293
2186 174
2187 280
2188 6
2189 358
2190 194
2191 159
2192 391
2193 429
2194 183
2195 549
2196 63
2197 274
2198 83
2199 327
2200 439
2201 351
2202 83
2203 281
2204 353
2205 187
2206 379
2207 280
2208 230
2209 493
2210 21
2211 242
2212 349
2213 206
2214 79
2215 280
2216 498
2217 497
2218 113
2219 378
2220 104
2221 415
2222 56
2223 242
2224 163
2225 41
2226 550
2227 367
2228 282
2229 137
2230 378
2231 92
2232 139
2233 116
2234 67
2235 80
2236 380
2237 515
2238 175
2239 440
2240 532
2241 429
2242 356
2243 181
2244 135
2245 41
2246 82
2247 273
2248 162
2249 274
2250 205
2251 323
2252 147
2253 383
2254 460
2255 109
2256 385
2257 185
2258 80
2259 242
2260 266
2261 490
2262 362
2263 200
2264 139
2265 551
2266 440
2267 278
2268 345
2269 31
2270 196
2271 374
2272 56
2273 122
2274 157
2275 508
2276 171
2277 19
2278 462
2279 422
2280 19
2281 506
2282 180
2283 106
2284 327
2285 75
2286 238
2287 359
2288 538
2289 249
2290 376
2291 422
2292 549
2293 433
2294 450
2295 540
2296 106
2297 119
2298 106
2299 249
2300 61
2301 159
2302 206
2303 466
2304 2
2305 75
2306 370
2307 194
2308 331
2309 256
2310 83
2311 390
2312 107
2313 120
2314 175
2315 119
2316 352
2317 359
2318 157
2319 311
2320 278
2321 31
2322 388
2323 224
2324 280
2325 265
2326 227
2327 157
2328 333
2329 462
2330 289
2331 468
2332 330
2333 346
2334 522
2335 181
2336 412
2337 433
2338 517
2339 480
2340 189
2341 105
2342 80
2343 157
2344 552
2345 390
2346 119
2347 451
2348 49
2349 543
2350 56
2351 451
2352 41
2353 313
2354 429
2355 420
2356 553
2357 77
2358 442
2359 240
2360 260
2361 404
2362 443
2363 161
2364 481
2365 411
2366 62
2367 194
2368 257
2369 540
2370 440
2371 273
2372 449
2373 79
2374 145
2375 378
2376 217
2377 58
2378 13
2379 203
2380 406
2381 30
2382 236
2383 262
2384 217
2385 251
2386 378
2387 333
2388 422
2389 354
2390 361
2391 422
2392 400
2393 72
2394 135
2395 181
2396 245
2397 345
2398 307
2399 2
2400 3
2401 420
2402 429
2403 79
2404 551
2405 554
2406 420
2407 144
2408 220
2409 288
2410 337
2411 337
2412 22
2413 237
2414 375
2415 171
2416 345
2417 22
2418 184
2419 404
2420 307
2421 261
2422 555
2423 212
2424 194
2425 400
2426 217
2427 175
2428 338
2429 306
2430 244
2431 556
2432 376
2433 508
2434 423
2435 346
2436 346
2437 291
2438 397
2439 281
2440 462
2441 331
2442 2
2443 526
2444 217
2445 373
2446 240
2447 235
2448 289
2449 505
2450 459
2451 163
2452 367
2453 106
2454 367
2455 452
2456 289
2457 202
2458 497
2459 241
2460 265
2461 527
2462 103
2463 280
2464 331
2465 404
2466 409
2467 241
2468 283
2469 406
2470 400
2471 432
2472 404
2473 420
2474 184
2475 330
2476 263
2477 178
2478 122
2479 251
2480 62
2481 478
2482 425
2483 281
2484 242
2485 400
2486 169
2487 463
2488 557
2489 375
2490 170
2491 161
2492 333
2493 90
2494 49
2495 558
2496 32
2497 49
2498 380
2499 381
2500 269
2501 443
2502 185
2503 172
2504 176
2505 334
2506 479
2507 221
2508 306
2509 559
2510 194
2511 128
2512 515
2513 237
2514 251
2515 560
2516 359
2517 118
2518 269
2519 45
2520 19
2521 40
2522 244
2523 307
2524 41
2525 443
2526 258
2527 378
2528 99
2529 441
2530 172
2531 202
2532 251
2533 310
2534 3
2535 308
2536 256
2537 353
2538 395
2539 333
2540 383
2541 251
2542 48
2543 45
2544 316
2545 403
2546 367
2547 313
2548 472
2549 523
2550 508
2551 337
2552 67
2553 183
2554 447
2555 463
2556 286
2557 68
2558 282
2559 12
2560 76
2561 464
2562 47
2563 469
2564 135
2565 356
2566 343
2567 420
2568 379
2569 495
2570 44
2571 189
2572 318
2573 74
2574 318
2575 37
2576 450
2577 262
2578 368
2579 444
2580 440
2581 249
2582 334
2583 116
2584 411
2585 237
2586 181
2587 464
2588 421
2589 268
2590 122
2591 3
2592 401
2593 399
2594 146
2595 370
2596 373
2597 230
2598 278
2599 287
2600 273
2601 194
2602 440
2603 368
2604 273
2605 217
2606 397
2607 113
2608 239
2609 258
2610 98
2611 80
2612 205
2613 488
2614 534
2615 444
2616 4
2617 75
2618 460
2619 407
2620 13
2621 107
2622 344
2623 420
2624 44
2625 94
2626 98
2627 87
2628 184
2629 57
2630 13
2631 447
2632 392
2633 145
2634 487
2635 51
2636 265
2637 411
2638 260
2639 253
2640 157
2641 481
2642 51
2643 3
2644 331
2645 520
2646 221
2647 155
2648 445
2649 207
2650 44
2651 207
2652 135
2653 205
2654 353
2655 444
2656 405
2657 268
2658 397
2659 189
2660 91
2661 98
2662 513
2663 293
2664 41
2665 197
2666 155
2667 197
2668 279
2669 139
2670 57
2671 380
2672 14
2673 0
2674 264
2675 411
2676 78
2677 147
2678 402
2679 399
2680 431
2681 258
2682 259
2683 475
2684 381
2685 359
2686 126
2687 381
2688 281
2689 227
2690 230
2691 429
2692 73
2693 318
2694 220
2695 378
2696 498
2697 38
2698 209
2699 211
2700 381
2701 387
2702 3
2703 334
2704 145
2705 470
2706 510
2707 479
2708 400
2709 155
2710 107
2711 420
2712 225
2713 41
2714 230
2715 541
2716 363
2717 374
2718 391
2719 93
2720 282
2721 306
2722 391
2723 79
2724 488
2725 109
2726 518
2727 479
2728 455
2729 19
2730 269
2731 119
2732 225
2733 169
2734 151
2735 291
2736 216
2737 269
2738 19
2739 138
2740 402
2741 260
2742 430
2743 330
2744 107
2745 169
2746 401
2747 445
2748 372
2749 282
2750 311
2751 330
2752 486
2753 67
2754 318
2755 45
2756 45
2757 426
2758 151
2759 431
2760 367
2761 139
2762 33
2763 508
2764 4
2765 369
2766 190
2767 251
2768 114
2769 505
2770 57
2771 251
2772 269
2773 57
2774 112
2775 376
2776 400
2777 519
2778 427
2779 225
2780 561
2781 78
2782 176
2783 502
2784 236
2785 472
2786 164
2787 117
2788 356
2789 379
2790 197
2791 91
2792 389
2793 367
2794 411
2795 106
2796 178
2797 378
2798 448
2799 433
2800 330
2801 238
2802 156
2803 426
2804 274
2805 267
2806 376
2807 175
2808 83
2809 502
2810 562
2811 41
2812 456
2813 517
2814 104
2815 405
2816 346
2817 353
2818 31
2819 286
2820 45
2821 440
2822 62
2823 395
2824 167
2825 318
2826 462
2827 430
2828 303
2829 420
2830 251
2831 433
2832 353
2833 232
2834 230
2835 482
2836 532
2837 502
2838 333
2839 330
2840 286
2841 39
2842 425
2843 251
2844 365
2845 131
2846 41
2847 387
2848 291
2849 480
2850 143
2851 411
2852 124
2853 519
2854 294
2855 370
2856 106
2857 494
2858 154
2859 63
2860 136
2861 13
2862 512
2863 485
2864 82
2865 158
2866 541
2867 330
2868 25
2869 25
2870 462
2871 4
2872 496
2873 88
2874 161
2875 359
2876 139
2877 135
2878 185
2879 470
2880 215
2881 78
2882 288
2883 104
2884 323
2885 440
2886 550
2887 183
2888 346
2889 251
2890 494
2891 145
2892 185
2893 151
2894 522
2895 433
2896 220
2897 429
2898 563
2899 175
2900 154
2901 73
2902 388
2903 137
2904 137
2905 480
2906 370
2907 161
2908 508
2909 318
2910 564
2911 368
2912 217
2913 181
2914 190
2915 155
2916 163
2917 344
2918 175
2919 508
2920 443
2921 291
2922 442
2923 440
2924 62
2925 236
2926 537
2927 353
2928 395
2929 234
2930 561
2931 249
2932 362
2933 480
2934 200
2935 41
2936 304
2937 217
2938 55
2939 207
2940 314
2941 220
2942 420
2943 263
2944 541
2945 389
2946 524
2947 208
2948 448
2949 151
2950 228
2951 289
2952 361
2953 217
2954 177
2955 537
2956 342
2957 422
2958 284
2959 544
2960 462
2961 146
2962 448
2963 175
2964 317
2965 442
2966 327
2967 491
2968 342
2969 51
2970 251
2971 429
2972 565
2973 151
2974 566
2975 430
2976 151
2977 107
2978 429
2979 565
2980 264
2981 261
2982 286
2983 379
2984 415
2985 139
2986 3
2987 238
2988 559
2989 286
2990 158
2991 564
2992 34
2993 189
2994 391
2995 567
2996 330
2997 343
2998 246
2999 323
3000 209
3001 147
3002 353
3003 470
3004 264
3005 406
3006 311
3007 517
3008 94
3009 105
3010 532
3011 242
3012 391
3013 25
3014 375
3015 338
3016 26
3017 291
3018 119
3019 171
3020 327
3021 426
3022 479
3023 324
3024 4
3025 73
3026 237
3027 264
3028 473
3029 479
3030 474
3031 560
3032 2
3033 200
3034 181
3035 100
3036 161
3037 481
3038 568
3039 323
3040 404
3041 163
3042 219
3043 209
3044 175
3045 464
3046 483
3047 543
3048 278
3049 189
3050 100
3051 543
3052 1
3053 242
3054 147
3055 406
3056 505
3057 68
3058 3
3059 135
3060 259
3061 146
3062 9
3063 225
3064 30
3065 172
3066 278
3067 470
3068 330
3069 2
3070 362
3071 187
3072 264
3073 147
3074 21
3075 1
3076 515
3077 6
3078 411
3079 443
3080 395
3081 117
3082 466
3083 2
3084 466
3085 187
3086 391
3087 307
3088 460
3089 238
3090 429
3091 275
3092 169
3093 192
3094 205
3095 25
3096 391
3097 391
3098 323
3099 420
3100 111
3101 136
3102 238
3103 397
3104 124
3105 383
3106 180
3107 169
3108 399
3109 16
3110 402
3111 542
3112 441
3113 402
3114 245
3115 457
3116 237
3117 2
3118 233
3119 95
3120 473
3121 472
3122 171
3123 206
3124 139
3125 64
3126 136
3127 139
3128 274
3129 490
3130 443
3131 290
3132 190
3133 497
3134 240
3135 474
3136 178
3137 19
3138 112
3139 282
3140 545
3141 291
3142 423
3143 569
3144 389
3145 444
3146 185
3147 94
3148 494
3149 286
3150 58
3151 177
3152 430
3153 85
3154 119
3155 174
3156 258
3157 345
3158 318
3159 119
3160 480
3161 421
3162 165
3163 346
3164 53
3165 180
3166 397
3167 67
3168 330
3169 508
3170 345
3171 537
3172 232
3173 493
3174 90
3175 532
3176 151
3177 266
3178 163
3179 90
3180 407
3181 98
3182 78
3183 220
3184 111
3185 567
3186 53
3187 430
3188 318
3189 479
3190 144
3191 238
3192 379
3193 506
3194 534
3195 280
3196 346
3197 480
3198 122
3199 224
3200 31
3201 37
3202 155
3203 224
3204 251
3205 79
3206 528
3207 175
3208 282
3209 277
3210 379
3211 342
3212 415
3213 342
3214 327
3215 424
3216 341
3217 282
3218 540
3219 224
3220 359
3221 442
3222 137
3223 136
3224 373
3225 454
3226 122
3227 550
3228 480
3229 82
3230 199
3231 258
3232 342
3233 240
3234 323
3235 184
3236 375
3237 139
3238 570
3239 175
3240 178
3241 443
3242 41
3243 494
3244 238
3245 269
3246 330
3247 222
3248 407
3249 166
3250 493
3251 53
3252 284
3253 342
3254 57
3255 208
3256 426
3257 105
3258 414
3259 334
3260 159
3261 124
3262 433
3263 368
3264 1
3265 63
3266 532
3267 391
3268 269
3269 433
3270 515
3271 345
3272 318
3273 236
3274 18
3275 480
3276 427
3277 149
3278 39
3279 257
3280 275
3281 105
3282 78
3283 337
3284 447
3285 198
3286 397
3287 237
3288 94
3289 474
3290 390
3291 474
3292 218
3293 311
3294 464
3295 353
3296 43
3297 86
3298 404
3299 9
3300 7
3301 190
3302 466
3303 411
3304 159
3305 440
3306 163
3307 75
3308 174
3309 540
3310 253
3311 55
3312 31
3313 145
3314 41
3315 197
3316 541
3317 220
3318 139
3319 469
3320 205
3321 307
3322 251
3323 404
3324 571
3325 30
3326 460
3327 333
3328 135
3329 476
3330 41
3331 163
3332 259
3333 242
3334 451
3335 32
3336 388
3337 342
3338 473
3339 128
3340 479
3341 407
3342 94
3343 227
3344 379
3345 200
3346 451
3347 468
3348 488
3349 391
3350 139
3351 540
3352 508
3353 542
3354 161
3355 506
3356 58
3357 107
3358 285
3359 278
3360 37
3361 348
3362 175
3363 269
3364 373
3365 450
3366 119
3367 41
3368 420
3369 442
3370 377
3371 337
3372 135
3373 456
3374 448
3375 19
3376 436
3377 181
3378 224
3379 94
3380 407
3381 534
3382 188
3383 337
3384 278
3385 262
3386 456
3387 233
3388 190
3389 147
3390 426
3391 271
3392 173
3393 359
3394 49
3395 39
3396 411
3397 220
3398 390
3399 181
3400 355
3401 289
3402 107
3403 177
3404 212
3405 44
3406 237
3407 75
3408 414
3409 21
3410 280
3411 105
3412 106
3413 256
3414 318
3415 430
3416 466
3417 213
3418 289
3419 99
3420 323
3421 497
3422 474
3423 39
3424 411
3425 220
3426 397
3427 239
3428 77
3429 1
3430 451
3431 452
3432 123
3433 375
3434 217
3435 228
3436 442
3437 414
3438 88
3439 270
3440 274
3441 56
3442 318
3443 174
3444 53
3445 56
3446 233
3447 168
3448 77
3449 466
3450 63
3451 442
3452 408
3453 73
3454 157
3455 204
3456 237
3457 502
3458 217
3459 345
3460 476
3461 266
3462 275
3463 225
3464 323
3465 230
3466 385
3467 334
3468 171
3469 279
3470 476
3471 338
3472 456
3473 440
3474 221
3475 447
3476 359
3477 44
3478 78
3479 414
3480 150
3481 178
3482 333
3483 119
3484 479
3485 145
3486 318
3487 137
3488 348
3489 460
3490 401
3491 152
3492 196
3493 73
3494 152
3495 84
3496 225
3497 562
3498 73
3499 194
3500 159
3501 480
3502 269
3503 430
3504 443
3505 291
3506 491
3507 256
3508 372
3509 41
3510 75
3511 137
3512 145
3513 391
3514 45
3515 450
3516 229
3517 44
3518 330
3519 200
3520 60
3521 69
3522 157
3523 448
3524 278
3525 2
3526 146
3527 433
3528 518
3529 564
3530 342
3531 240
3532 238
3533 474
3534 460
3535 490
3536 178
3537 231
3538 334
3539 306
3540 356
3541 163
3542 49
3543 553
3544 307
3545 518
3546 119
3547 273
3548 220
3549 230
3550 397
3551 307
3552 332
3553 200
3554 488
3555 572
3556 402
3557 468
3558 171
3559 486
3560 78
3561 414
3562 219
3563 169
3564 105
3565 265
3566 162
3567 425
3568 275
3569 184
3570 333
3571 305
3572 389
3573 285
3574 221
3575 3
3576 506
3577 84
3578 304
3579 452
3580 238
3581 161
3582 338
3583 431
3584 278
3585 98
3586 206
3587 169
3588 286
3589 80
3590 206
3591 410
3592 278
3593 173
3594 486
3595 235
3596 31
3597 251
3598 318
3599 515
3600 381
3601 163
3602 170
3603 368
3604 137
3605 90
3606 237
3607 275
3608 330
3609 206
3610 444
3611 448
3612 314
3613 316
3614 167
3615 375
3616 158
3617 268
3618 30
3619 362
3620 275
3621 232
3622 397
3623 194
3624 218
3625 136
3626 196
3627 31
3628 285
3629 161
3630 145
3631 260
3632 227
3633 241
3634 403
3635 450
3636 78
3637 183
3638 200
3639 298
3640 31
3641 305
3642 129
3643 342
3644 188
3645 348
3646 373
3647 472
3648 225
3649 395
3650 357
3651 359
3652 146
3653 488
3654 161
3655 258
3656 157
3657 508
3658 187
3659 307
3660 348
3661 58
3662 44
3663 55
3664 254
3665 502
3666 287
3667 32
3668 518
3669 260
3670 448
3671 56
3672 249
3673 518
3674 234
3675 229
3676 359
3677 378
3678 213
3679 106
3680 321
3681 225
3682 397
3683 123
3684 252
3685 397
3686 348
3687 282
3688 136
3689 197
3690 404
3691 518
3692 92
3693 363
3694 177
3695 120
3696 87
3697 507
3698 220
3699 307
3700 430
3701 254
3702 296
3703 44
3704 430
3705 56
3706 55
3707 176
3708 230
3709 284
3710 398
3711 275
3712 13
3713 39
3714 269
3715 128
3716 307
3717 424
3718 481
3719 269
3720 82
3721 466
3722 505
3723 109
3724 270
3725 566
3726 115
3727 548
3728 187
3729 506
3730 104
3731 41
3732 101
3733 240
3734 466
3735 3
3736 44
3737 147
3738 90
3739 477
3740 184
3741 225
3742 161
3743 380
3744 307
3745 147
3746 230
3747 542
3748 106
3749 62
3750 504
3751 180
3752 241
3753 275
3754 249
3755 107
3756 98
3757 365
3758 209
3759 455
3760 469
3761 39
3762 156
3763 430
3764 225
3765 504
3766 323
3767 352
3768 204
3769 194
3770 41
3771 136
3772 274
3773 3
3774 561
3775 225
3776 263
3777 169
3778 58
3779 400
3780 72
3781 447
3782 521
3783 323
3784 365
3785 337
3786 231
3787 403
3788 31
3789 155
3790 162
3791 235
3792 404
3793 44
3794 414
3795 444
3796 0
3797 456
3798 180
3799 355
3800 377
3801 165
3802 372
3803 278
3804 494
3805 493
3806 205
3807 31
3808 13
3809 79
3810 460
3811 232
3812 342
3813 424
3814 348
3815 355
3816 152
3817 413
3818 201
3819 241
3820 536
3821 430
3822 155
3823 430
3824 107
3825 175
3826 249
3827 113
3828 238
3829 94
3830 331
3831 425
3832 383
3833 488
3834 56
3835 186
3836 463
3837 461
3838 474
3839 241
3840 139
3841 531
3842 169
3843 241
3844 342
3845 18
3846 518
3847 425
3848 205
3849 100
3850 41
3851 103
3852 205
3853 395
3854 183
3855 494
3856 146
3857 41
3858 573
3859 123
3860 294
3861 200
3862 241
3863 392
3864 155
3865 426
3866 212
3867 41
3868 151
3869 55
3870 421
3871 314
3872 159
3873 277
3874 73
3875 183
3876 42
3877 574
3878 274
3879 552
3880 208
3881 435
3882 144
3883 168
3884 267
3885 274
3886 196
3887 246
3888 271
3889 83
3890 425
3891 21
3892 83
3893 137
3894 450
3895 139
3896 94
3897 493
3898 167
3899 136
3900 7
3901 237
3902 575
3903 282
3904 338
3905 57
3906 515
3907 155
3908 489
3909 345
3910 2
3911 205
3912 78
3913 79
3914 227
3915 342
3916 136
3917 378
3918 56
3919 219
3920 20
3921 466
3922 80
3923 187
3924 558
3925 480
3926 444
3927 424
3928 200
3929 85
3930 73
3931 426
3932 473
3933 239
3934 3
3935 55
3936 379
3937 64
3938 396
3939 57
3940 450
3941 533
3942 47
3943 576
3944 269
3945 342
3946 30
3947 55
3948 392
3949 466
3950 3
3951 390
3952 299
3953 330
3954 376
3955 523
3956 62
3957 237
3958 538
3959 98
3960 327
3961 130
3962 175
3963 185
3964 45
3965 494
3966 196
3967 459
3968 365
3969 334
3970 286
3971 250
3972 157
3973 514
3974 31
3975 465
3976 98
3977 458
3978 325
3979 101
3980 240
3981 21
3982 225
3983 157
3984 357
3985 282
3986 58
3987 207
3988 41
3989 98
3990 464
3991 67
3992 115
3993 348
3994 330
3995 305
3996 194
3997 243
3998 571
3999 241
4000 454
4001 318
4002 464
4003 397
4004 184
4005 225
4006 348
4007 225
4008 269
4009 226
4010 333
4011 55
4012 251
4013 264
4014 269
4015 140
4016 141
4017 323
4018 397
4019 286
4020 319
4021 21
4022 3
4023 54
4024 2
4025 230
4026 379
4027 16
4028 196
4029 569
4030 468
4031 425
4032 326
4033 29
4034 372
4035 442
4036 342
4037 577
4038 425
4039 495
4040 39
4041 314
4042 350
4043 404
4044 430
4045 167
4046 431
4047 542
4048 255
4049 183
4050 477
4051 139
4052 55
4053 360
4054 17
4055 238
4056 56
4057 185
4058 316
4059 330
4060 68
4061 21
4062 574
4063 73
4064 279
4065 220
4066 209
4067 522
4068 348
4069 79
4070 152
4071 15
4072 21
4073 203
4074 157
4075 79
4076 83
4077 200
4078 62
4079 92
4080 405
4081 124
4082 404
4083 27
4084 233
4085 228
4086 249
4087 58
4088 534
4089 75
4090 367
4091 306
4092 175
4093 101
4094 189
4095 493
4096 284
4097 401
4098 66
4099 128
4100 279
4101 198
4102 155
4103 532
4104 249
4105 47
4106 163
4107 406
4108 234
4109 389
4110 223
4111 435
4112 373
4113 178
4114 37
4115 440
4116 562
4117 365
4118 200
4119 268
4120 43
4121 351
4122 319
4123 485
4124 286
4125 53
4126 128
4127 58
4128 204
4129 151
4130 53
4131 81
4132 130
4133 450
4134 320
4135 549
4136 464
4137 427
4138 354
4139 106
4140 187
4141 200
4142 106
4143 273
4144 53
4145 2
4146 111
4147 53
4148 233
4149 416
4150 79
4151 546
4152 90
4153 578
4154 225
4155 205
4156 327
4157 157
4158 447
4159 238
4160 17
4161 135
4162 521
4163 579
4164 298
4165 397
4166 551
4167 46
4168 4
4169 562
4170 279
4171 234
4172 210
4173 345
4174 474
4175 91
4176 371
4177 363
4178 506
4179 464
4180 265
4181 471
4182 73
4183 102
4184 56
4185 109
4186 150
4187 175
4188 440
4189 494
4190 464
4191 31
4192 488
4193 316
4194 382
4195 174
4196 378
4197 391
4198 506
4199 31
4200 51
4201 56
4202 213
4203 239
4204 508
4205 378
4206 138
4207 454
4208 37
4209 470
4210 62
4211 375
4212 280
4213 404
4214 3
4215 580
4216 79
4217 207
4218 208
4219 43
4220 416
4221 367
4222 559
4223 442
4224 196
4225 194
4226 196
4227 90
4228 224
4229 462
4230 230
4231 282
4232 493
4233 73
4234 63
4235 559
4236 194
4237 22
4238 345
4239 373
4240 64
4241 35
4242 311
4243 256
4244 30
4245 187
4246 396
4247 199
4248 225
4249 62
4250 353
4251 159
4252 3
4253 192
4254 306
4255 267
4256 181
4257 438
4258 239
4259 376
4260 230
4261 22
4262 27
4263 241
4264 98
4265 468
4266 331
4267 370
4268 22
4269 162
4270 257
4271 194
4272 278
4273 344
4274 146
4275 425
4276 549
4277 75
4278 79
4279 166
4280 240
4281 466
4282 455
4283 392
4284 201
4285 487
4286 541
4287 295
4288 296
4289 171
4290 80
4291 274
4292 353
4293 404
4294 67
4295 67
4296 378
4297 56
4298 237
4299 347
4300 407
4301 22
4302 86
4303 41
4304 495
4305 186
4306 154
4307 80
4308 569
4309 174
4310 445
4311 404
4312 356
4313 331
4314 146
4315 19
4316 63
4317 159
4318 265
4319 98
4320 326
4321 122
4322 570
4323 185
4324 3
4325 417
4326 425
4327 222
4328 464
4329 39
4330 174
4331 264
4332 224
4333 566
4334 508
4335 225
4336 427
4337 79
4338 279
4339 440
4340 183
4341 404
4342 342
4343 224
4344 63
4345 79
4346 349
4347 404
4348 382
4349 75
4350 429
4351 185
4352 433
4353 581
4354 37
4355 380
4356 273
4357 48
4358 482
4359 98
4360 138
4361 356
4362 154
4363 205
4364 3
4365 479
4366 381
4367 303
4368 47
4369 259
4370 224
4371 124
4372 400
4373 515
4374 135
4375 181
4376 430
4377 117
4378 62
4379 432
4380 90
4381 227
4382 253
4383 265
4384 19
4385 175
4386 303
4387 440
4388 254
4389 246
4390 147
4391 370
4392 420
4393 205
4394 217
4395 280
4396 128
4397 512
4398 508
4399 145
4400 356
4401 492
4402 58
4403 237
4404 183
4405 167
4406 344
4407 481
4408 440
4409 230
4410 482
4411 397
4412 429
4413 31
4414 390
4415 207
4416 370
4417 175
4418 274
4419 331
4420 128
4421 172
4422 55
4423 562
4424 174
4425 512
4426 264
4427 456
4428 404
4429 346
4430 137
4431 338
4432 464
4433 538
4434 16
4435 333
4436 119
4437 181
4438 172
4439 56
4440 520
4441 60
4442 280
4443 159
4444 21
4445 273
4446 327
4447 282
4448 62
4449 95
4450 512
4451 135
4452 14
4453 377
4454 3
4455 233
4456 280
4457 129
4458 238
4459 491
4460 145
4461 31
4462 373
4463 425
4464 115
4465 480
4466 433
4467 41
4468 335
4469 407
4470 552
4471 221
4472 555
4473 290
4474 297
4475 367
4476 312
4477 429
4478 251
4479 221
4480 14
4481 20
4482 278
4483 582
4484 264
4485 359
4486 196
4487 79
4488 411
4489 205
4490 523
4491 385
4492 119
4493 41
4494 184
4495 273
4496 396
4497 49
4498 486
4499 56
4500 145
4501 233
4502 409
4503 338
4504 481
4505 183
4506 422
4507 341
4508 30
4509 21
4510 3
4511 242
4512 485
4513 356
4514 114
4515 194
4516 334
4517 44
4518 464
4519 473
4520 464
4521 240
4522 313
4523 501
4524 395
4525 50
4526 100
4527 302
4528 442
4529 165
4530 162
4531 334
4532 44
4533 224
4534 219
4535 183
4536 28
4537 289
4538 543
4539 251
4540 178
4541 513
4542 50
4543 442
4544 353
4545 318
4546 464
4547 279
4548 359
4549 223
4550 49
4551 286
4552 368
4553 460
4554 99
4555 31
4556 157
4557 228
4558 178
4559 198
4560 273
4561 176
4562 248
4563 41
4564 251
4565 346
4566 425
4567 291
4568 230
4569 25
4570 157
4571 0
4572 420
4573 178
4574 79
4575 281
4576 488
4577 331
4578 106
4579 30
4580 297
4581 2
4582 241
4583 292
4584 391
4585 215
4586 327
4587 249
4588 249
4589 515
4590 468
4591 205
4592 522
4593 329
4594 338
4595 265
4596 49
4597 497
4598 318
4599 217
4600 402
4601 316
4602 235
4603 401
4604 562
4605 308
4606 45
4607 152
4608 201
4609 381
4610 237
4611 137
4612 139
4613 90
4614 291
4615 172
4616 207
4617 145
4618 94
4619 552
4620 338
4621 377
4622 212
4623 49
4624 202
4625 317
4626 3
4627 6
4628 393
4629 477
4630 13
4631 481
4632 103
4633 171
4634 308
4635 19
4636 290
4637 460
4638 415
4639 41
4640 138
4641 375
4642 378
4643 356
4644 318
4645 295
4646 274
4647 78
4648 62
4649 164
4650 485
4651 327
4652 62
4653 64
4654 470
4655 145
4656 515
4657 57
4658 178
4659 534
4660 164
4661 583
4662 410
4663 152
4664 194
4665 367
4666 349
4667 79
4668 47
4669 121
4670 155
4671 334
4672 33
4673 13
4674 152
4675 95
4676 99
4677 115
4678 113
4679 331
4680 405
4681 178
4682 584
4683 9
4684 87
4685 346
4686 334
4687 353
4688 291
4689 536
4690 159
4691 515
4692 327
4693 415
4694 98
4695 385
4696 256
4697 118
4698 87
4699 37
4700 378
4701 171
4702 52
4703 398
4704 14
4705 378
4706 346
4707 155
4708 304
4709 53
4710 194
4711 307
4712 375
4713 411
4714 559
4715 445
4716 225
4717 169
4718 368
4719 191
4720 264
4721 318
4722 41
4723 224
4724 364
4725 98
4726 376
4727 234
4728 224
4729 379
4730 309
4731 55
4732 37
4733 194
4734 470
4735 62
4736 293
4737 390
4738 368
4739 488
4740 55
4741 147
4742 31
4743 480
4744 217
4745 144
4746 330
4747 427
4748 424
4749 178
4750 163
4751 215
4752 395
4753 108
4754 237
4755 189
4756 94
4757 338
4758 305
4759 515
4760 338
4761 172
4762 184
4763 463
4764 494
4765 353
4766 419
4767 374
4768 443
4769 195
4770 311
4771 227
4772 63
4773 430
4774 75
4775 359
4776 190
4777 97
4778 429
4779 94
4780 180
4781 379
4782 19
4783 181
4784 367
4785 53
4786 121
4787 512
4788 289
4789 197
4790 381
4791 488
4792 164
4793 327
4794 330
4795 402
4796 197
4797 157
4798 174
4799 269
4800 62
4801 78
4802 269
4803 379
4804 524
4805 320
4806 414
4807 279
4808 392
4809 522
4810 151
4811 581
4812 508
4813 493
4814 297
4815 90
4816 333
4817 223
4818 97
4819 585
4820 353
4821 426
4822 31
4823 473
4824 246
4825 443
4826 252
4827 479
4828 70
4829 424
4830 239
4831 145
4832 404
4833 493
4834 274
4835 251
4836 176
4837 90
4838 308
4839 55
4840 302
4841 269
4842 230
4843 76
4844 343
4845 94
4846 470
4847 55
4848 405
4849 110
4850 241
4851 323
4852 62
4853 346
4854 139
4855 232
4856 85
4857 167
4858 567
4859 390
4860 402
4861 493
4862 21
4863 448
4864 274
4865 223
4866 65
4867 443
4868 492
4869 503
4870 405
4871 117
4872 425
4873 7
4874 354
4875 251
4876 119
4877 163
4878 433
4879 58
4880 41
4881 249
4882 260
4883 526
4884 58
4885 288
4886 6
4887 481
4888 67
4889 430
4890 118
4891 167
4892 478
4893 307
4894 414
4895 397
4896 474
4897 475
4898 444
4899 506
4900 402
4901 323
4902 586
4903 309
4904 220
4905 112
4906 402
4907 274
4908 151
4909 302
4910 371
4911 581
4912 275
4913 396
4914 167
4915 433
4916 35
4917 34
4918 479
4919 217
4920 2
4921 427
4922 183
4923 247
4924 327
4925 465
4926 569
4927 289
4928 16
4929 287
4930 499
4931 79
4932 115
4933 135
4934 224
4935 489
4936 37
4937 424
4938 438
4939 237
4940 389
4941 135
4942 540
4943 105
4944 422
4945 381
4946 228
4947 518
4948 318
4949 465
4950 493
4951 177
4952 327
4953 433
4954 368
4955 80
4956 92
4957 570
4958 106
4959 359
4960 520
4961 55
4962 453
4963 209
4964 473
4965 127
4966 25
4967 208
4968 346
4969 346
4970 98
4971 519
4972 169
4973 334
4974 404
4975 493
4976 433
4977 442
4978 73
4979 5
4980 289
4981 481
4982 410
4983 470
4984 368
4985 346
4986 4
4987 238
4988 55
4989 421
4990 37
4991 206
4992 151
4993 327
4994 207
4995 126
4996 448
4997 163
4998 80
4999 124
5000 84
5001 220
5002 225
5003 429
5004 281
5005 141
5006 577
5007 368
5008 175
5009 432
5010 307
5011 102
5012 447
5013 395
5014 393
5015 493
5016 47
5017 84
5018 443
5019 169
5020 327
5021 251
5022 161
5023 395
5024 139
5025 166
5026 152
5027 410
5028 78
5029 470
5030 116
5031 172
5032 466
5033 83
5034 436
5035 549
5036 229
5037 404
5038 219
5039 200
5040 251
5041 375
5042 238
5043 29
5044 56
5045 330
5046 443
5047 498
5048 45
5049 185
5050 327
5051 549
5052 414
5053 79
5054 203
5055 57
5056 171
5057 445
5058 319
5059 460
5060 331
5061 166
5062 146
5063 459
5064 2
5065 526
5066 433
5067 414
5068 171
5069 135
5070 444
5071 106
5072 151
5073 251
5074 407
5075 508
5076 217
5077 3
5078 332
5079 474
5080 41
5081 379
5082 427
5083 183
5084 444
5085 518
5086 585
5087 167
5088 462
5089 353
5090 348
5091 21
5092 354
5093 167
5094 521
5095 186
5096 283
5097 365
5098 144
5099 397
5100 201
5101 2
5102 137
5103 109
5104 375
5105 110
5106 474
5107 389
5108 146
5109 13
5110 264
5111 146
5112 227
5113 166
5114 444
5115 429
5116 497
5117 251
5118 81
5119 84
5120 368
5121 414
5122 477
5123 151
5124 531
5125 220
5126 518
5127 404
5128 515
5129 23
5130 136
5131 251
5132 334
5133 518
5134 404
5135 53
5136 49
5137 238
5138 164
5139 430
5140 399
5141 429
5142 407
5143 533
5144 230
5145 182
5146 141
5147 298
5148 298
5149 37
5150 21
5151 427
5152 327
5153 242
5154 302
5155 3
5156 518
5157 587
5158 477
5159 171
5160 242
5161 480
5162 184
5163 78
5164 256
5165 348
5166 282
5167 136
5168 266
5169 402
5170 411
5171 21
5172 161
5173 363
5174 410
5175 19
5176 342
5177 94
5178 414
5179 278
5180 555
5181 588
5182 190
5183 41
5184 251
5185 139
5186 163
5187 332
5188 448
5189 402
5190 120
5191 17
5192 345
5193 345
5194 121
5195 269
5196 21
5197 376
5198 553
5199 538
5200 237
5201 307
5202 335
5203 269
5204 106
5205 522
5206 424
5207 363
5208 406
5209 397
5210 420
5211 466
5212 319
5213 2
5214 174
5215 558
5216 169
5217 73
5218 455
5219 181
5220 508
5221 58
5222 137
5223 334
5224 468
5225 75
5226 425
5227 490
5228 357
5229 107
5230 185
5231 345
5232 523
5233 212
5234 375
5235 209
5236 506
5237 41
5238 359
5239 518
5240 220
5241 83
5242 397
5243 163
5244 409
5245 292
5246 137
5247 2
5248 444
5249 502
5250 164
5251 391
5252 228
5253 589
5254 53
5255 404
5256 502
5257 426
5258 39
5259 174
5260 183
5261 175
5262 104
5263 387
5264 289
5265 563
5266 438
5267 37
5268 75
5269 426
5270 497
5271 112
5272 451
5273 151
5274 256
5275 590
5276 443
5277 33
5278 444
5279 289
5280 17
5281 494
5282 9
5283 570
5284 137
5285 181
5286 433
5287 220
5288 269
5289 39
5290 353
5291 37
5292 53
5293 169
5294 146
5295 200
5296 365
5297 138
5298 31
5299 251
5300 380
5301 58
5302 146
5303 242
5304 406
5305 269
5306 302
5307 49
5308 155
5309 269
5310 407
5311 307
5312 344
5313 362
5314 323
5315 221
5316 187
5317 331
5318 94
5319 322
5320 207
5321 144
5322 75
5323 124
5324 94
5325 212
5326 275
5327 356
5328 327
5329 379
5330 212
5331 415
5332 163
5333 541
5334 377
5335 420
5336 205
5337 379
5338 57
5339 204
5340 59
5341 388
5342 375
5343 591
5344 152
5345 233
5346 312
5347 242
5348 275
5349 42
5350 58
5351 508
5352 365
5353 518
5354 515
5355 80
5356 163
5357 417
5358 355
5359 414
5360 166
5361 353
5362 261
5363 65
5364 344
5365 444
5366 220
5367 425
5368 568
5369 577
5370 196
5371 279
5372 411
5373 332
5374 22
5375 166
5376 273
5377 221
5378 426
5379 32
5380 348
5381 41
5382 505
5383 2
5384 334
5385 201
5386 175
5387 407
5388 278
5389 389
5390 128
5391 218
5392 139
5393 442
5394 31
5395 479
5396 105
5397 165
5398 59
5399 78
5400 382
5401 558
5402 25
5403 258
5404 256
5405 330
5406 458
5407 507
5408 278
5409 337
5410 116
5411 331
5412 166
5413 592
5414 74
5415 279
5416 502
5417 169
5418 238
5419 196
5420 271
5421 189
5422 333
5423 146
5424 161
5425 448
5426 404
5427 50
5428 319
5429 474
5430 480
5431 418
5432 297
5433 199
5434 189
5435 220
5436 506
5437 139
5438 353
5439 237
5440 336
5441 216
5442 385
5443 318
5444 443
5445 342
5446 443
5447 157
5448 87
5449 94
5450 367
5451 551
5452 426
5453 437
5454 31
5455 466
5456 347
5457 451
5458 433
5459 441
5460 89
5461 256
5462 106
5463 58
5464 282
5465 241
5466 389
5467 458
5468 312
5469 227
5470 307
5471 161
5472 313
5473 429
5474 128
5475 217
5476 494
5477 478
5478 515
5479 174
5480 183
5481 151
5482 393
5483 538
5484 456
5485 365
5486 213
5487 10
5488 306
5489 426
5490 220
5491 338
5492 336
5493 562
5494 395
5495 19
5496 420
5497 241
5498 405
5499 289
5500 157
5501 7
5502 150
5503 282
5504 5
5505 527
5506 230
5507 270
5508 430
5509 282
5510 136
5511 173
5512 486
5513 583
5514 56
5515 256
5516 26
5517 280
5518 334
5519 275
5520 205
5521 470
5522 229
5523 185
5524 185
5525 391
5526 44
5527 479
5528 448
5529 142
5530 313
5531 55
5532 230
5533 323
5534 318
5535 334
5536 406
5537 355
5538 464
5539 39
5540 307
5541 225
5542 237
5543 443
5544 385
5545 497
5546 151
5547 256
5548 442
5549 414
5550 515
5551 241
5552 265
5553 376
5554 441
5555 32
5556 57
5557 39
5558 136
5559 7
5560 237
5561 368
5562 494
5563 99
5564 201
5565 367
5566 227
5567 224
5568 291
5569 124
5570 275
5571 221
5572 139
5573 73
5574 79
5575 106
5576 39
5577 194
5578 477
5579 194
5580 348
5581 316
5582 497
5583 164
5584 306
5585 269
5586 31
5587 319
5588 485
5589 430
5590 414
5591 313
5592 460
5593 43
5594 506
5595 230
5596 183
5597 303
5598 427
5599 45
5600 318
5601 196
5602 345
5603 56
5604 262
5605 518
5606 440
5607 520
5608 164
5609 520
5610 513
5611 164
5612 520
5613 56
5614 265
5615 346
5616 494
5617 44
5618 330
5619 579
5620 256
5621 187
5622 169
5623 379
5624 334
5625 391
5626 121
5627 518
5628 319
5629 334
5630 307
5631 391
5632 151
5633 200
5634 426
5635 117
5636 130
5637 287
5638 249
5639 458
5640 444
5641 379
5642 26
5643 178
5644 39
5645 404
5646 279
5647 138
5648 391
5649 381
5650 163
5651 356
5652 135
5653 239
5654 155
5655 41
5656 122
5657 177
5658 408
5659 404
5660 259
5661 349
5662 163
5663 429
5664 37
5665 45
5666 122
5667 278
5668 37
5669 308
5670 186
5671 151
5672 100
5673 331
5674 28
5675 402
5676 225
5677 94
5678 305
5679 192
5680 480
5681 404
5682 311
5683 157
5684 386
5685 136
5686 267
5687 173
5688 222
5689 45
5690 164
5691 245
5692 238
5693 13
5694 220
5695 424
5696 334
5697 98
5698 515
5699 166
5700 118
5701 68
5702 137
5703 291
5704 37
5705 268
5706 30
5707 361
5708 363
5709 164
5710 344
5711 518
5712 282
5713 453
5714 168
5715 227
5716 302
5717 205
5718 593
5719 241
5720 464
5721 279
5722 166
5723 506
5724 554
5725 400
5726 50
5727 475
5728 117
5729 330
5730 378
5731 480
5732 200
5733 22
5734 550
5735 275
5736 117
5737 289
5738 488
5739 318
5740 333
5741 249
5742 328
5743 359
5744 536
5745 501
5746 41
5747 187
5748 238
5749 183
5750 594
5751 151
5752 595
5753 302
5754 487
5755 323
5756 474
5757 174
5758 407
5759 306
5760 341
5761 229
5762 25
5763 63
5764 78
5765 243
5766 260
5767 275
5768 98
5769 282
5770 220
5771 571
5772 239
5773 182
5774 470
5775 78
5776 403
5777 400
5778 530
5779 342
5780 404
5781 275
5782 154
5783 155
5784 13
5785 414
5786 273
5787 116
5788 57
5789 455
5790 193
5791 78
5792 573
5793 260
5794 172
5795 87
5796 560
5797 414
5798 508
5799 41
5800 506
5801 31
5802 342
5803 391
5804 166
5805 381
5806 213
5807 596
5808 66
5809 99
5810 455
5811 379
5812 200
5813 379
5814 41
5815 578
5816 520
5817 56
5818 146
5819 194
5820 435
5821 282
5822 260
5823 280
5824 342
5825 574
5826 252
5827 107
5828 73
5829 417
5830 154
5831 348
5832 309
5833 307
5834 163
5835 219
5836 107
5837 289
5838 166
5839 494
5840 396
5841 313
5842 313
5843 192
5844 429
5845 173
5846 388
5847 443
5848 148
5849 41
5850 400
5851 225
5852 288
5853 328
5854 481
5855 282
5856 102
5857 442
5858 94
5859 461
5860 330
5861 389
5862 204
5863 235
5864 118
5865 315
5866 94
5867 313
5868 213
5869 470
5870 55
5871 416
5872 136
5873 315
5874 8
5875 175
5876 506
5877 493
5878 418
5879 107
5880 381
5881 78
5882 414
5883 381
5884 429
5885 44
5886 493
5887 102
5888 74
5889 348
5890 147
5891 178
5892 397
5893 163
5894 588
5895 146
5896 395
5897 414
5898 98
5899 75
5900 212
5901 155
5902 397
5903 169
5904 45
5905 520
5906 206
5907 114
5908 250
5909 185
5910 508
5911 197
5912 206
5913 493
5914 216
5915 157
5916 376
5917 41
5918 464
5919 479
5920 534
5921 238
5922 445
5923 538
5924 79
5925 146
5926 426
5927 443
5928 460
5929 13
5930 166
5931 177
5932 355
5933 531
5934 10
5935 337
5936 342
5937 161
5938 397
5939 102
5940 237
5941 424
5942 414
5943 566
5944 83
5945 409
5946 205
5947 426
5948 506
5949 194
5950 470
5951 191
5952 287
5953 240
5954 223
5955 99
5956 2
5957 395
5958 282
5959 57
5960 293
5961 94
5962 86
5963 370
5964 498
5965 236
5966 440
5967 205
5968 12
5969 448
5970 396
5971 418
5972 466
5973 227
5974 474
5975 425
5976 397
5977 45
5978 510
5979 163
5980 105
5981 379
5982 30
5983 22
5984 397
5985 232
5986 145
5987 488
5988 220
5989 204
5990 388
5991 220
5992 342
5993 323
5994 107
5995 230
5996 92
5997 213
5998 326
5999 288
6000 464
6001 87
6002 249
6003 119
6004 119
6005 220
6006 411
6007 376
6008 56
6009 306
6010 279
6011 511
6012 514
6013 278
6014 381
6015 2
6016 251
6017 205
6018 206
6019 36
6020 491
6021 73
6022 501
6023 227
6024 480
6025 375
6026 55
6027 185
6028 411
6029 68
6030 175
6031 163
6032 342
6033 96
6034 271
6035 169
6036 239
6037 281
6038 11
6039 378
6040 295
6041 357
6042 3
6043 527
6044 330
6045 488
6046 318
6047 319
6048 171
6049 331
6050 80
6051 406
6052 41
6053 106
6054 278
6055 353
6056 213
6057 57
6058 39
6059 56
6060 32
6061 481
6062 443
6063 164
6064 488
6065 98
6066 252
6067 486
6068 196
6069 166
6070 237
6071 481
6072 417
6073 474
6074 68
6075 303
6076 334
6077 225
6078 337
6079 278
6080 330
6081 152
6082 444
6083 19
6084 395
6085 520
6086 109
6087 282
6088 338
6089 52
6090 429
6091 467
6092 237
6093 493
6094 509
6095 330
6096 330
6097 379
6098 281
6099 312
6100 350
6101 194
6102 301
6103 12
6104 137
6105 233
6106 323
6107 269
6108 401
6109 194
6110 597
6111 130
6112 236
6113 503
6114 167
6115 389
6116 3
6117 58
6118 459
6119 185
6120 200
6121 362
6122 464
6123 490
6124 83
6125 62
6126 9
6127 94
6128 474
6129 16
6130 570
6131 348
6132 137
6133 2
6134 415
6135 464
6136 375
6137 378
6138 395
6139 348
6140 324
6141 128
6142 571
6143 568
6144 242
6145 207
6146 366
6147 508
6148 558
6149 464
6150 514
6151 39
6152 481
6153 470
6154 173
6155 228
6156 342
6157 152
6158 518
6159 261
6160 182
6161 353
6162 537
6163 194
6164 353
6165 349
6166 209
6167 185
6168 163
6169 175
6170 412
6171 348
6172 403
6173 249
6174 43
6175 51
6176 79
6177 508
6178 376
6179 148
6180 1
6181 1
6182 169
6183 567
6184 78
6185 150
6186 274
6187 549
6188 224
6189 230
6190 79
6191 144
6192 193
6193 499
6194 55
6195 353
6196 224
6197 518
6198 482
6199 183
6200 345
6201 90
6202 356
6203 400
6204 240
6205 377
6206 230
6207 144
6208 171
6209 80
6210 52
6211 508
6212 248
6213 379
6214 174
6215 254
6216 211
6217 342
6218 79
6219 429
6220 49
6221 302
6222 503
6223 453
6224 135
6225 132
6226 516
6227 233
6228 98
6229 136
6230 167
6231 472
6232 341
6233 72
6234 595
6235 166
6236 473
6237 337
6238 195
6239 39
6240 224
6241 379
6242 379
6243 184
6244 98
6245 401
6246 423
6247 316
6248 81
6249 337
6250 297
6251 330
6252 130
6253 508
6254 215
6255 425
6256 474
6257 221
6258 213
6259 157
6260 404
6261 286
6262 420
6263 191
6264 56
6265 508
6266 367
6267 116
6268 378
6269 481
6270 377
6271 315
6272 188
6273 500
6274 181
6275 199
6276 481
6277 470
6278 507
6279 21
6280 404
6281 256
6282 397
6283 79
6284 181
6285 258
6286 198
6287 106
6288 278
6289 306
6290 228
6291 36
6292 331
6293 440
6294 488
6295 169
6296 14
6297 80
6298 206
6299 319
6300 331
6301 136
6302 306
6303 518
6304 136
6305 302
6306 434
6307 224
6308 113
6309 494
6310 504
6311 16
6312 274
6313 163
6314 481
6315 338
6316 124
6317 150
6318 380
6319 381
6320 246
6321 479
6322 320
6323 406
6324 119
6325 331
6326 81
6327 404
6328 305
6329 80
6330 194
6331 400
6332 106
6333 377
6334 37
6335 561
6336 7
6337 67
6338 432
6339 19
6340 404
6341 78
6342 576
6343 188
6344 164
6345 382
6346 180
6347 334
6348 230
6349 451
6350 349
6351 381
6352 172
6353 588
6354 291
6355 246
6356 141
6357 497
6358 119
6359 67
6360 331
6361 75
6362 162
6363 377
6364 474
6365 98
6366 273
6367 56
6368 426
6369 47
6370 112
6371 367
6372 279
6373 3
6374 367
6375 137
6376 255
6377 136
6378 364
6379 278
6380 288
6381 327
6382 264
6383 237
6384 335
6385 120
6386 98
6387 442
6388 367
6389 4
6390 369
6391 550
6392 316
6393 445
6394 420
6395 234
6396 363
6397 258
6398 40
6399 205
6400 576
6401 420
6402 420
6403 541
6404 397
6405 227
6406 13
6407 242
6408 468
6409 13
6410 464
6411 342
6412 331
6413 404
6414 49
6415 429
6416 194
6417 51
6418 480
6419 275
6420 3
6421 425
6422 344
6423 353
6424 319
6425 234
6426 41
6427 464
6428 230
6429 274
6430 98
6431 227
6432 405
6433 154
6434 119
6435 499
6436 128
6437 515
6438 25
6439 493
6440 403
6441 546
6442 515
6443 99
6444 175
6445 270
6446 190
6447 157
6448 333
6449 128
6450 154
6451 238
6452 378
6453 77
6454 177
6455 33
6456 330
6457 367
6458 372
6459 124
6460 260
6461 595
6462 116
6463 55
6464 155
6465 232
6466 389
6467 420
6468 426
6469 164
6470 116
6471 319
6472 145
6473 389
6474 451
6475 505
6476 19
6477 220
6478 291
6479 334
6480 390
6481 565
6482 414
6483 597
6484 13
6485 45
6486 145
6487 413
6488 35
6489 344
6490 13
6491 378
6492 157
6493 225
6494 63
6495 273
6496 298
6497 410
6498 515
6499 397
6500 31
6501 106
6502 56
6503 377
6504 256
6505 426
6506 373
6507 39
6508 155
6509 419
6510 19
6511 217
6512 161
6513 460
6514 481
6515 342
6516 31
6517 373
6518 286
6519 3
6520 223
6521 278
6522 397
6523 164
6524 273
6525 99
6526 14
6527 223
6528 302
6529 565
6530 41
6531 420
6532 200
6533 39
6534 259
6535 232
6536 75
6537 181
6538 426
6539 213
6540 199
6541 227
6542 591
6543 506
6544 348
6545 381
6546 175
6547 433
6548 376
6549 425
6550 135
6551 540
6552 431
6553 274
6554 290
6555 63
6556 561
6557 168
6558 538
6559 441
6560 385
6561 202
6562 63
6563 520
6564 149
6565 208
6566 224
6567 480
6568 391
6569 370
6570 119
6571 307
6572 481
6573 409
6574 537
6575 30
6576 388
6577 84
6578 303
6579 251
6580 111
6581 171
6582 491
6583 554
6584 562
6585 174
6586 510
6587 269
6588 405
6589 261
6590 199
6591 291
6592 62
6593 337
6594 401
6595 513
6596 102
6597 269
6598 62
6599 119
6600 204
6601 378
6602 171
6603 19
6604 63
6605 80
6606 194
6607 249
6608 368
6609 148
6610 269
6611 338
6612 380
6613 447
6614 32
6615 119
6616 178
6617 119
6618 186
6619 159
6620 184
6621 80
6622 397
6623 319
6624 307
6625 397
6626 178
6627 230
6628 368
6629 140
6630 471
6631 128
6632 111
6633 397
6634 256
6635 300
6636 49
6637 527
6638 291
6639 378
6640 485
6641 242
6642 67
6643 460
6644 159
6645 130
6646 289
6647 295
6648 239
6649 266
6650 279
6651 537
6652 135
6653 119
6654 172
6655 443
6656 387
6657 192
6658 403
6659 425
6660 138
6661 478
6662 495
6663 365
6664 135
6665 387
6666 400
6667 598
6668 175
6669 307
6670 341
6671 403
6672 510
6673 155
6674 48
6675 176
6676 194
6677 440
6678 95
6679 510
6680 369
6681 251
6682 405
6683 19
6684 368
6685 117
6686 334
6687 192
6688 44
6689 269
6690 155
6691 164
6692 273
6693 570
6694 68
6695 194
6696 495
6697 81
6698 145
6699 589
6700 464
6701 552
6702 289
6703 460
6704 21
6705 489
6706 288
6707 175
6708 420
6709 443
6710 144
6711 135
6712 397
6713 599
6714 359
6715 196
6716 495
6717 359
6718 367
6719 441
6720 152
6721 78
6722 3
6723 367
6724 94
6725 310
6726 67
6727 126
6728 279
6729 122
6730 368
6731 425
6732 315
6733 455
6734 576
6735 337
6736 343
6737 283
6738 30
6739 499
6740 22
6741 481
6742 421
6743 79
6744 428
6745 98
6746 488
6747 291
6748 357
6749 455
6750 168
6751 13
6752 397
6753 356
6754 431
6755 466
6756 295
6757 98
6758 430
6759 145
6760 225
6761 37
6762 110
6763 181
6764 440
6765 520
6766 455
6767 187
6768 88
6769 37
6770 479
6771 78
6772 536
6773 411
6774 51
6775 420
6776 94
6777 368
6778 515
6779 490
6780 240
6781 444
6782 230
6783 251
6784 545
6785 205
6786 470
6787 399
6788 90
6789 379
6790 241
6791 224
6792 281
6793 94
6794 162
6795 67
6796 147
6797 162
6798 307
6799 56
6800 135
6801 90
6802 178
6803 159
6804 279
6805 395
6806 548
6807 315
6808 90
6809 66
6810 356
6811 497
6812 363
6813 258
6814 243
6815 98
6816 155
6817 207
6818 404
6819 420
6820 499
6821 73
6822 507
6823 227
6824 595
6825 55
6826 327
6827 272
6828 284
6829 365
6830 144
6831 474
6832 468
6833 337
6834 89
6835 404
6836 306
6837 279
6838 420
6839 477
6840 241
6841 170
6842 9
6843 108
6844 558
6845 151
6846 404
6847 570
6848 429
6849 122
6850 412
6851 411
6852 220
6853 235
6854 2
6855 181
6856 90
6857 434
6858 289
6859 31
6860 156
6861 426
6862 231
6863 307
6864 313
6865 266
6866 237
6867 19
6868 135
6869 412
6870 201
6871 36
6872 150
6873 444
6874 98
6875 67
6876 251
6877 83
6878 370
6879 291
6880 39
6881 154
6882 381
6883 196
6884 419
6885 430
6886 151
6887 48
6888 359
6889 416
6890 540
6891 367
6892 55
6893 19
6894 566
6895 73
6896 22
6897 236
6898 126
6899 37
6900 462
6901 388
6902 529
6903 152
6904 258
6905 381
6906 273
6907 471
6908 330
6909 365
6910 381
6911 479
6912 168
6913 444
6914 223
6915 467
6916 411
6917 187
6918 291
6919 106
6920 159
6921 106
6922 13
6923 197
6924 481
6925 184
6926 3
6927 369
6928 289
6929 426
6930 287
6931 479
6932 367
6933 600
6934 128
6935 232
6936 293
6937 130
6938 119
6939 175
6940 83
6941 119
6942 269
6943 297
6944 601
6945 468
6946 30
6947 506
6948 395
6949 167
6950 217
6951 462
6952 297
6953 420
6954 330
6955 67
6956 3
6957 481
6958 17
6959 387
6960 223
6961 163
6962 220
6963 150
6964 488
6965 179
6966 347
6967 217
6968 333
6969 319
6970 145
6971 21
6972 521
6973 167
6974 289
6975 397
6976 291
6977 383
6978 415
6979 330
6980 225
6981 522
6982 169
6983 35
6984 599
6985 217
6986 474
6987 207
6988 287
6989 602
6990 411
6991 361
6992 210
6993 601
6994 6
6995 339
6996 466
6997 543
6998 591
6999 145
7000 414
7001 117
7002 178
7003 62
7004 282
7005 466
7006 334
7007 424
7008 286
7009 330
7010 402
7011 70
7012 155
7013 204
7014 90
7015 19
7016 106
7017 237
7018 448
7019 397
7020 94
7021 190
7022 139
7023 342
7024 152
7025 119
7026 414
7027 279
7028 183
7029 205
7030 284
7031 346
7032 402
7033 5
7034 378
7035 273
7036 232
7037 106
7038 318
7039 392
7040 559
7041 518
7042 137
7043 121
7044 237
7045 167
7046 397
7047 137
7048 37
7049 166
7050 378
7051 584
7052 405
7053 398
7054 136
7055 319
7056 257
7057 282
7058 94
7059 67
7060 183
7061 359
7062 406
7063 237
7064 9
7065 82
7066 291
7067 227
7068 474
7069 207
7070 431
7071 420
7072 415
7073 175
7074 238
7075 456
7076 411
7077 234
7078 136
7079 479
7080 172
7081 163
7082 448
7083 178
7084 106
7085 167
7086 496
7087 485
7088 508
7089 183
7090 479
7091 444
7092 603
7093 242
7094 517
7095 217
7096 269
7097 466
7098 462
7099 19
7100 41
7101 112
7102 425
7103 264
7104 352
7105 139
7106 62
7107 259
7108 575
7109 205
7110 444
7111 157
7112 493
7113 291
7114 604
7115 407
7116 34
7117 132
7118 397
7119 442
7120 169
7121 323
7122 425
7123 163
7124 419
7125 290
7126 70
7127 21
7128 313
7129 368
7130 375
7131 184
7132 166
7133 318
7134 346
7135 76
7136 187
7137 475
7138 33
7139 284
7140 183
7141 444
7142 41
7143 4
7144 42
7145 397
7146 163
7147 285
7148 544
7149 426
7150 393
7151 155
7152 307
7153 349
7154 386
7155 391
7156 197
7157 209
7158 220
7159 365
7160 425
7161 555
7162 395
7163 494
7164 425
7165 25
7166 64
7167 238
7168 565
7169 552
7170 106
7171 58
7172 119
7173 85
7174 139
7175 25
7176 275
7177 138
7178 248
7179 508
7180 399
7181 430
7182 25
7183 359
7184 281
7185 508
7186 270
7187 546
7188 342
7189 130
7190 379
7191 489
7192 334
7193 67
7194 80
7195 163
7196 154
7197 551
7198 106
7199 93
7200 19
7201 220
7202 279
7203 402
7204 264
7205 113
7206 403
7207 83
7208 414
7209 105
7210 181
7211 397
7212 297
7213 180
7214 477
7215 275
7216 425
7217 479
7218 345
7219 183
7220 57
7221 395
7222 161
7223 136
7224 274
7225 444
7226 279
7227 269
7228 78
7229 342
7230 251
7231 78
7232 59
7233 85
7234 334
7235 57
7236 444
7237 257
7238 169
7239 330
7240 291
7241 238
7242 397
7243 58
7244 319
7245 220
7246 78
7247 379
7248 542
7249 163
7250 247
7251 502
7252 362
7253 150
7254 238
7255 99
7256 3
7257 96
7258 380
7259 355
7260 106
7261 503
7262 232
7263 117
7264 265
7265 137
7266 117
7267 475
7268 466
7269 425
7270 166
7271 276
7272 413
7273 68
7274 41
7275 105
7276 323
7277 53
7278 144
7279 166
7280 275
7281 220
7282 414
7283 145
7284 113
7285 200
7286 98
7287 116
7288 106
7289 348
7290 194
7291 428
7292 238
7293 291
7294 260
7295 80
7296 380
7297 161
7298 466
7299 473
7300 166
7301 365
7302 181
7303 55
7304 300
7305 220
7306 341
7307 265
7308 345
7309 163
7310 424
7311 510
7312 275
7313 282
7314 129
7315 397
7316 377
7317 330
7318 540
7319 87
7320 458
7321 269
7322 78
7323 206
7324 55
7325 256
7326 122
7327 540
7328 232
7329 113
7330 150
7331 459
7332 498
7333 448
7334 188
7335 161
7336 72
7337 41
7338 279
7339 62
7340 280
7341 512
7342 220
7343 402
7344 269
7345 161
7346 345
7347 122
7348 334
7349 78
7350 367
7351 181
7352 63
7353 466
7354 296
7355 357
7356 279
7357 206
7358 237
7359 189
7360 12
7361 146
7362 224
7363 175
7364 146
7365 395
7366 19
7367 240
7368 169
7369 102
7370 200
7371 323
7372 402
7373 311
7374 169
7375 319
7376 251
7377 344
7378 279
7379 168
7380 457
7381 220
7382 307
7383 105
7384 376
7385 241
7386 228
7387 249
7388 37
7389 203
7390 348
7391 368
7392 309
7393 273
7394 159
7395 10
7396 605
7397 282
7398 337
7399 226
7400 157
7401 2
7402 271
7403 291
7404 385
7405 7
7406 230
7407 274
7408 518
7409 31
7410 278
7411 177
7412 207
7413 323
7414 55
7415 184
7416 401
7417 206
7418 283
7419 37
7420 457
7421 162
7422 359
7423 355
7424 165
7425 150
7426 166
7427 163
7428 474
7429 200
7430 145
7431 146
7432 442
7433 2
7434 30
7435 39
7436 104
7437 258
7438 163
7439 59
7440 199
7441 515
7442 227
7443 234
7444 391
7445 205
7446 405
7447 395
7448 141
7449 159
7450 289
7451 323
7452 425
7453 137
7454 192
7455 256
7456 157
7457 151
7458 276
7459 146
7460 307
7461 140
7462 397
7463 278
7464 353
7465 168
7466 265
7467 275
7468 302
7469 497
7470 271
7471 105
7472 348
7473 94
7474 181
7475 400
7476 365
7477 163
7478 169
7479 552
7480 289
7481 227
7482 405
7483 407
7484 227
7485 45
7486 456
7487 165
7488 220
7489 224
7490 55
7491 379
7492 172
7493 306
7494 391
7495 200
7496 178
7497 42
7498 330
7499 495
7500 379
7501 161
7502 14
7503 279
7504 306
7505 249
7506 23
7507 99
7508 282
7509 330
7510 368
7511 346
7512 166
7513 220
7514 175
7515 373
7516 397
7517 78
7518 275
7519 426
7520 122
7521 568
7522 543
7523 474
7524 348
7525 400
7526 400
7527 163
7528 344
7529 375
7530 400
7531 146
7532 239
7533 529
7534 411
7535 527
7536 113
7537 73
7538 31
7539 189
7540 262
7541 41
7542 143
7543 359
7544 356
7545 105
7546 73
7547 264
7548 73
7549 99
7550 458
7551 229
7552 356
7553 166
7554 307
7555 72
7556 41
7557 39
7558 418
7559 33
7560 346
7561 141
7562 230
7563 297
7564 84
7565 509
7566 135
7567 415
7568 31
7569 334
7570 196
7571 427
7572 346
7573 397
7574 336
7575 286
7576 205
7577 287
7578 307
7579 37
7580 149
7581 373
7582 513
7583 238
7584 578
7585 224
7586 444
7587 220
7588 151
7589 168
7590 506
7591 152
7592 41
7593 345
7594 498
7595 199
7596 185
7597 378
7598 479
7599 473
7600 338
7601 334
7602 139
7603 365
7604 442
7605 166
7606 381
7607 286
7608 279
7609 242
7610 237
7611 308
7612 279
7613 137
7614 451
7615 378
7616 58
7617 101
7618 169
7619 306
7620 318
7621 146
7622 306
7623 306
7624 506
7625 45
7626 166
7627 455
7628 337
7629 30
7630 336
7631 348
7632 18
7633 542
7634 381
7635 365
7636 106
7637 281
7638 109
7639 55
7640 515
7641 468
7642 379
7643 520
7644 477
7645 122
7646 106
7647 287
7648 488
7649 22
7650 406
7651 538
7652 342
7653 37
7654 31
7655 98
7656 334
7657 368
7658 62
7659 58
7660 183
7661 22
7662 105
7663 13
7664 164
7665 332
7666 74
7667 416
7668 106
7669 13
7670 414
7671 313
7672 365
7673 493
7674 45
7675 166
7676 206
7677 56
7678 401
7679 411
7680 506
7681 139
7682 589
7683 494
7684 126
7685 414
7686 279
7687 295
7688 456
7689 242
7690 144
7691 346
7692 199
7693 169
7694 14
7695 480
7696 473
7697 58
7698 249
7699 378
7700 98
7701 435
7702 136
7703 508
7704 260
7705 43
7706 395
7707 391
7708 41
7709 175
7710 413
7711 460
7712 278
7713 161
7714 308
7715 225
7716 395
7717 351
7718 15
7719 564
7720 44
7721 379
7722 508
7723 400
7724 480
7725 348
7726 331
7727 174
7728 344
7729 40
7730 106
7731 42
7732 369
7733 273
7734 194
7735 136
7736 31
7737 333
7738 45
7739 269
7740 466
7741 146
7742 448
7743 241
7744 446
7745 4
7746 460
7747 153
7748 84
7749 115
7750 480
7751 220
7752 280
7753 518
7754 73
7755 456
7756 373
7757 282
7758 279
7759 500
7760 200
7761 595
7762 53
7763 370
7764 307
7765 460
7766 115
7767 440
7768 359
7769 334
7770 470
7771 345
7772 489
7773 347
7774 183
7775 23
7776 205
7777 275
7778 562
7779 297
7780 265
7781 407
7782 442
7783 397
7784 258
7785 431
7786 395
7787 550
7788 138
7789 187
7790 592
7791 194
7792 63
7793 227
7794 124
7795 481
7796 468
7797 88
7798 525
7799 401
7800 278
7801 167
7802 200
7803 488
7804 172
7805 333
7806 370
7807 480
7808 104
7809 94
7810 145
7811 266
7812 31
7813 209
7814 79
7815 133
7816 363
7817 212
7818 465
7819 336
7820 550
7821 397
7822 565
7823 79
7824 588
7825 494
7826 157
7827 426
7828 355
7829 50
7830 54
7831 254
7832 253
7833 365
7834 206
7835 137
7836 194
7837 522
7838 80
7839 448
7840 382
7841 166
7842 387
7843 106
7844 122
7845 90
7846 108
7847 520
7848 129
7849 289
7850 342
7851 455
7852 278
7853 278
7854 373
7855 86
7856 78
7857 162
7858 9
7859 282
7860 227
7861 425
7862 348
7863 98
7864 155
7865 55
7866 274
7867 164
7868 42
7869 1
7870 405
7871 236
7872 3
7873 476
7874 425
7875 334
7876 463
7877 477
7878 400
7879 287
7880 207
7881 123
7882 392
7883 62
7884 78
7885 494
7886 230
7887 447
7888 241
7889 307
7890 440
7891 468
7892 532
7893 586
7894 164
7895 323
7896 37
7897 205
7898 79
7899 201
7900 232
7901 180
7902 460
7903 222
7904 404
7905 323
7906 62
7907 151
7908 13
7909 237
7910 94
7911 163
7912 380
7913 357
7914 106
7915 146
7916 473
7917 164
7918 197
7919 417
7920 330
7921 594
7922 442
7923 413
7924 455
7925 395
7926 460
7927 73
7928 103
7929 265
7930 13
7931 393
7932 424
7933 89
7934 31
7935 145
7936 164
7937 123
7938 241
7939 481
7940 183
7941 46
7942 68
7943 67
7944 455
7945 348
7946 137
7947 90
7948 20
7949 73
7950 376
7951 164
7952 286
7953 2
7954 175
7955 379
7956 56
7957 481
7958 157
7959 222
7960 249
7961 415
7962 440
7963 200
7964 210
7965 220
7966 570
7967 470
7968 206
7969 424
7970 606
7971 411
7972 425
7973 249
7974 279
7975 284
7976 415
7977 277
7978 425
7979 510
7980 432
7981 441
7982 175
7983 3
7984 388
7985 480
7986 493
7987 98
7988 395
7989 556
7990 162
7991 541
7992 334
7993 57
7994 443
7995 183
7996 170
7997 334
7998 334
7999 319
8000 455
8001 220
8002 257
8003 297
8004 19
8005 464
8006 252
8007 331
8008 241
8009 35
8010 205
8011 58
8012 227
8013 278
8014 194
8015 485
8016 327
8017 444
8018 0
8019 55
8020 19
8021 582
8022 256
8023 342
8024 205
8025 294
8026 397
8027 191
8028 190
8029 158
8030 141
8031 493
8032 220
8033 440
8034 250
8035 385
8036 441
8037 126
8038 407
8039 541
8040 147
8041 252
8042 471
8043 194
8044 324
8045 372
8046 119
8047 327
8048 324
8049 167
8050 429
8051 423
8052 269
8053 392
8054 269
8055 164
8056 317
8057 98
8058 35
8059 289
8060 391
8061 498
8062 185
8063 41
8064 132
8065 185
8066 512
8067 342
8068 55
8069 269
8070 441
8071 407
8072 98
8073 448
8074 237
8075 55
8076 166
8077 116
8078 261
8079 306
8080 107
8081 353
8082 391
8083 155
8084 78
8085 225
8086 205
8087 13
8088 352
8089 206
8090 6
8091 468
8092 19
8093 333
8094 169
8095 420
8096 42
8097 278
8098 220
8099 365
8100 105
8101 395
8102 448
8103 3
8104 414
8105 362
8106 204
8107 79
8108 279
8109 323
8110 251
8111 169
8112 281
8113 601
8114 569
8115 21
8116 183
8117 49
8118 2
8119 256
8120 233
8121 406
8122 230
8123 2
8124 6
8125 213
8126 381
8127 162
8128 426
8129 233
8130 57
8131 206
8132 285
8133 508
8134 99
8135 187
8136 232
8137 274
8138 83
8139 376
8140 493
8141 331
8142 337
8143 78
8144 372
8145 137
8146 41
8147 319
8148 212
8149 228
8150 269
8151 146
8152 183
8153 146
8154 13
8155 369
8156 564
8157 278
8158 274
8159 363
8160 268
8161 155
8162 208
8163 80
8164 458
8165 249
8166 177
8167 79
8168 168
8169 365
8170 278
8171 424
8172 213
8173 230
8174 480
8175 502
8176 407
8177 90
8178 348
8179 98
8180 274
8181 331
8182 197
8183 175
8184 286
8185 306
8186 261
8187 248
8188 282
8189 230
8190 330
8191 169
8192 175
8193 497
8194 191
8195 429
8196 334
8197 353
8198 480
8199 37
8200 443
8201 508
8202 1
8203 37
8204 234
8205 155
8206 53
8207 152
8208 242
8209 249
8210 207
8211 373
8212 262
8213 147
8214 406
8215 379
8216 103
8217 227
8218 374
8219 172
8220 508
8221 400
8222 105
8223 137
8224 532
8225 323
8226 295
8227 440
8228 172
8229 123
8230 61
8231 415
8232 282
8233 418
8234 194
8235 353
8236 330
8237 19
8238 270
8239 232
8240 429
8241 227
8242 135
8243 355
8244 233
8245 89
8246 378
8247 90
8248 152
8249 337
8250 481
8251 151
8252 230
8253 508
8254 345
8255 72
8256 187
8257 148
8258 464
8259 133
8260 230
8261 135
8262 545
8263 306
8264 131
8265 51
8266 175
8267 474
8268 129
8269 21
8270 302
8271 286
8272 223
8273 230
8274 595
8275 171
8276 302
8277 508
8278 19
8279 434
8280 234
8281 80
8282 175
8283 173
8284 238
8285 154
8286 67
8287 402
8288 318
8289 222
8290 228
8291 260
8292 85
8293 518
8294 369
8295 357
8296 404
8297 316
8298 440
8299 207
8300 299
8301 164
8302 357
8303 327
8304 225
8305 106
8306 404
8307 367
8308 264
8309 544
8310 461
8311 267
8312 194
8313 233
8314 294
8315 404
8316 408
8317 424
8318 125
8319 245
8320 217
8321 307
8322 502
8323 508
8324 466
8325 449
8326 420
8327 427
8328 80
8329 264
8330 448
8331 378
8332 330
8333 316
8334 549
8335 405
8336 212
8337 36
8338 389
8339 196
8340 407
8341 37
8342 116
8343 365
8344 151
8345 224
8346 328
8347 138
8348 39
8349 353
8350 379
8351 549
8352 56
8353 256
8354 144
8355 319
8356 13
8357 466
8358 353
8359 508
8360 226
8361 62
8362 217
8363 406
8364 173
8365 411
8366 395
8367 122
8368 206
8369 265
8370 405
8371 164
8372 528
8373 271
8374 378
8375 230
8376 100
8377 344
8378 222
8379 242
8380 155
8381 337
8382 44
8383 223
8384 276
8385 425
8386 249
8387 319
8388 348
8389 92
8390 287
8391 337
8392 464
8393 150
8394 512
8395 349
8396 157
8397 502
8398 474
8399 293
8400 36
8401 379
8402 13
8403 334
8404 337
8405 68
8406 174
8407 227
8408 157
8409 138
8410 506
8411 107
8412 502
8413 444
8414 137
8415 356
8416 119
8417 274
8418 216
8419 510
8420 37
8421 430
8422 228
8423 227
8424 37
8425 220
8426 75
8427 556
8428 256
8429 381
8430 19
8431 265
8432 425
8433 257
8434 94
8435 397
8436 345
8437 484
8438 205
8439 126
8440 433
8441 241
8442 136
8443 13
8444 30
8445 577
8446 450
8447 584
8448 105
8449 462
8450 494
8451 74
8452 480
8453 258
8454 46
8455 53
8456 117
8457 192
8458 479
8459 384
8460 220
8461 217
8462 468
8463 381
8464 291
8465 375
8466 573
8467 367
8468 456
8469 256
8470 205
8471 481
8472 200
8473 345
8474 346
8475 3
8476 356
8477 346
8478 508
8479 79
8480 217
8481 33
8482 49
8483 374
8484 163
8485 164
8486 429
8487 396
8488 289
8489 242
8490 327
8491 30
8492 549
8493 216
8494 327
8495 79
8496 425
8497 479
8498 184
8499 93
8500 567
8501 480
8502 270
8503 210
8504 419
8505 381
8506 518
8507 290
8508 37
8509 228
8510 404
8511 342
8512 3
8513 262
8514 274
8515 520
8516 282
8517 346
8518 175
8519 237
8520 450
8521 459
8522 79
8523 255
8524 39
8525 177
8526 360
8527 84
8528 390
8529 172
8530 185
8531 411
8532 480
8533 411
8534 9
8535 222
8536 422
8537 87
8538 480
8539 128
8540 280
8541 386
8542 385
8543 420
8544 395
8545 75
8546 201
8547 232
8548 258
8549 181
8550 181
8551 512
8552 45
8553 494
8554 195
8555 441
8556 141
8557 174
8558 280
8559 119
8560 379
8561 80
8562 157
8563 333
8564 56
8565 278
8566 129
8567 287
8568 353
8569 307
8570 230
8571 305
8572 239
8573 273
8574 98
8575 356
8576 167
8577 313
8578 148
8579 402
8580 397
8581 400
8582 368
8583 13
8584 367
8585 79
8586 36
8587 106
8588 481
8589 307
8590 53
8591 175
8592 172
8593 193
8594 334
8595 164
8596 273
8597 334
8598 175
8599 55
8600 148
8601 181
8602 164
8603 297
8604 268
8605 265
8606 291
8607 291
8608 542
8609 128
8610 405
8611 334
8612 50
8613 537
8614 146
8615 245
8616 324
8617 1
8618 344
8619 151
8620 226
8621 307
8622 81
8623 256
8624 270
8625 289
8626 281
8627 237
8628 16
8629 106
8630 331
8631 145
8632 359
8633 169
8634 450
8635 334
8636 62
8637 189
8638 159
8639 433
8640 331
8641 45
8642 451
8643 480
8644 225
8645 419
8646 75
8647 579
8648 303
8649 513
8650 359
8651 205
8652 453
8653 267
8654 240
8655 112
8656 262
8657 205
8658 106
8659 432
8660 93
8661 318
8662 75
8663 404
8664 222
8665 331
8666 373
8667 122
8668 319
8669 325
8670 353
8671 331
8672 61
8673 413
8674 420
8675 164
8676 27
8677 411
8678 479
8679 203
8680 338
8681 141
8682 379
8683 263
8684 459
8685 316
8686 245
8687 458
8688 119
8689 120
8690 349
8691 397
8692 292
8693 94
8694 106
8695 169
8696 220
8697 460
8698 368
8699 488
8700 75
8701 79
8702 83
8703 353
8704 367
8705 116
8706 20
8707 75
8708 106
8709 481
8710 546
8711 280
8712 172
8713 481
8714 452
8715 76
8716 331
8717 240
8718 383
8719 371
8720 39
8721 19
8722 175
8723 53
8724 442
8725 116
8726 557
8727 86
8728 9
8729 251
8730 205
8731 489
8732 169
8733 460
8734 104
8735 356
8736 141
8737 151
8738 30
8739 308
8740 281
8741 269
8742 520
8743 183
8744 391
8745 601
8746 552
8747 305
8748 378
8749 233
8750 163
8751 381
8752 129
8753 425
8754 404
8755 130
8756 318
8757 470
8758 286
8759 377
8760 367
8761 282
8762 125
8763 146
8764 356
8765 464
8766 196
8767 42
8768 220
8769 479
8770 595
8771 470
8772 356
8773 526
8774 470
8775 222
8776 181
8777 225
8778 109
8779 76
8780 63
8781 292
8782 220
8783 485
8784 233
8785 146
8786 182
8787 316
8788 151
8789 159
8790 348
8791 433
8792 455
8793 289
8794 178
8795 304
8796 260
8797 148
8798 99
8799 538
8800 548
8801 3
8802 260
8803 480
8804 481
8805 122
8806 437
8807 251
8808 234
8809 173
8810 325
8811 318
8812 438
8813 177
8814 443
8815 269
8816 193
8817 330
8818 57
8819 381
8820 480
8821 55
8822 357
8823 220
8824 187
8825 275
8826 508
8827 217
8828 346
8829 43
8830 470
8831 291
8832 275
8833 59
8834 73
8835 205
8836 103
8837 430
8838 291
8839 100
8840 273
8841 337
8842 443
8843 21
8844 353
8845 56
8846 307
8847 397
8848 490
8849 433
8850 576
8851 510
8852 89
8853 479
8854 97
8855 371
8856 269
8857 117
8858 159
8859 302
8860 183
8861 281
8862 3
8863 205
8864 3
8865 199
8866 246
8867 294
8868 367
8869 517
8870 470
8871 234
8872 516
8873 515
8874 139
8875 48
8876 368
8877 113
8878 425
8879 220
8880 151
8881 187
8882 443
8883 166
8884 90
8885 349
8886 292
8887 374
8888 94
8889 233
8890 541
8891 142
8892 483
8893 506
8894 428
8895 327
8896 265
8897 367
8898 83
8899 181
8900 30
8901 566
8902 78
8903 205
8904 347
8905 3
8906 379
8907 480
8908 232
8909 570
8910 433
8911 217
8912 377
8913 223
8914 383
8915 63
8916 73
8917 174
8918 346
8919 207
8920 217
8921 248
8922 395
8923 553
8924 595
8925 390
8926 159
8927 117
8928 87
8929 107
8930 23
8931 371
8932 152
8933 417
8934 422
8935 232
8936 480
8937 425
8938 153
8939 45
8940 178
8941 474
8942 341
8943 147
8944 466
8945 280
8946 433
8947 426
8948 509
8949 251
8950 172
8951 237
8952 465
8953 274
8954 83
8955 443
8956 318
8957 331
8958 455
8959 562
8960 66
8961 207
8962 28
8963 272
8964 357
8965 574
8966 83
8967 145
8968 577
8969 291
8970 301
8971 315
8972 107
8973 178
8974 559
8975 1
8976 167
8977 291
8978 152
8979 369
8980 190
8981 440
8982 273
8983 162
8984 415
8985 426
8986 346
8987 373
8988 411
8989 505
8990 303
8991 432
8992 169
8993 424
8994 316
8995 1
8996 232
8997 359
8998 479
8999 347
9000 585
9001 595
9002 455
9003 115
9004 389
9005 232
9006 238
9007 480
9008 19
9009 448
9010 429
9011 577
9012 237
9013 397
9014 45
9015 332
9016 19
9017 10
9018 275
9019 208
9020 318
9021 239
9022 332
9023 115
9024 19
9025 76
9026 183
9027 562
9028 220
9029 379
9030 201
9031 480
9032 145
9033 365
9034 346
9035 57
9036 55
9037 327
9038 353
9039 98
9040 433
9041 397
9042 395
9043 41
9044 252
9045 215
9046 485
9047 41
9048 45
9049 442
9050 448
9051 107
9052 110
9053 93
9054 9
9055 481
9056 359
9057 367
9058 450
9059 163
9060 115
9061 73
9062 365
9063 237
9064 414
9065 464
9066 271
9067 462
9068 297
9069 52
9070 111
9071 590
9072 448
9073 232
9074 426
9075 333
9076 118
9077 220
9078 500
9079 73
9080 206
9081 190
9082 238
9083 557
9084 237
9085 142
9086 290
9087 545
9088 70
9089 441
9090 444
9091 397
9092 341
9093 288
9094 94
9095 105
9096 499
9097 397
9098 411
9099 426
9100 289
9101 480
9102 136
9103 488
9104 409
9105 480
9106 376
9107 309
9108 152
9109 498
9110 198
9111 278
9112 67
9113 269
9114 99
9115 251
9116 289
9117 508
9118 278
9119 123
9120 368
9121 169
9122 237
9123 212
9124 466
9125 84
9126 389
9127 64
9128 211
9129 237
9130 96
9131 178
9132 433
9133 38
9134 411
9135 228
9136 545
9137 67
9138 372
9139 598
9140 425
9141 61
9142 417
9143 319
9144 58
9145 169
9146 172
9147 148
9148 298
9149 184
9150 405
9151 220
9152 94
9153 305
9154 217
9155 110
9156 466
9157 334
9158 456
9159 391
9160 571
9161 161
9162 51
9163 93
9164 237
9165 208
9166 373
9167 532
9168 94
9169 251
9170 466
9171 334
9172 40
9173 57
9174 9
9175 414
9176 562
9177 448
9178 415
9179 249
9180 397
9181 359
9182 316
9183 522
9184 444
9185 397
9186 424
9187 319
9188 146
9189 391
9190 235
9191 181
9192 94
9193 474
9194 410
9195 318
9196 146
9197 263
9198 238
9199 291
9200 205
9201 379
9202 525
9203 508
9204 171
9205 151
9206 432
9207 100
9208 365
9209 426
9210 49
9211 94
9212 228
9213 37
9214 539
9215 433
9216 290
9217 206
9218 151
9219 389
9220 94
9221 320
9222 508
9223 166
9224 443
9225 205
9226 391
9227 553
9228 502
9229 470
9230 397
9231 590
9232 181
9233 430
9234 212
9235 282
9236 373
9237 506
9238 414
9239 38
9240 405
9241 282
9242 402
9243 342
9244 330
9245 444
9246 269
9247 395
9248 428
9249 217
9250 518
9251 281
9252 46
9253 597
9254 206
9255 223
9256 402
9257 444
9258 264
9259 282
9260 429
9261 37
9262 205
9263 19
9264 353
9265 206
9266 494
9267 342
9268 232
9269 426
9270 493
9271 240
9272 146
9273 161
9274 82
9275 20
9276 444
9277 238
9278 485
9279 365
9280 302
9281 397
9282 178
9283 113
9284 119
9285 506
9286 351
9287 90
9288 348
9289 318
9290 267
9291 189
9292 251
9293 519
9294 376
9295 406
9296 240
9297 540
9298 53
9299 62
9300 593
9301 169
9302 515
9303 279
9304 395
9305 466
9306 415
9307 327
9308 237
9309 415
9310 158
9311 321
9312 106
9313 179
9314 444
9315 258
9316 139
9317 409
9318 430
9319 163
9320 367
9321 39
9322 279
9323 391
9324 408
9325 425
9326 451
9327 518
9328 564
9329 518
9330 275
9331 41
9332 448
9333 176
9334 370
9335 205
9336 170
9337 199
9338 100
9339 465
9340 415
9341 183
9342 359
9343 416
9344 220
9345 248
9346 375
9347 582
9348 121
9349 379
9350 116
9351 77
9352 358
9353 397
9354 237
9355 274
9356 199
9357 104
9358 460
9359 57
9360 399
9361 232
9362 145
9363 414
9364 155
9365 58
9366 365
9367 395
9368 289
9369 237
9370 359
9371 452
9372 377
9373 164
9374 163
9375 282
9376 196
9377 417
9378 397
9379 540
9380 548
9381 146
9382 426
9383 81
9384 254
9385 142
9386 448
9387 202
9388 145
9389 195
9390 385
9391 322
9392 157
9393 402
9394 451
9395 106
9396 218
9397 151
9398 200
9399 41
9400 506
9401 137
9402 197
9403 370
9404 215
9405 67
9406 166
9407 504
9408 385
9409 591
9410 238
9411 596
9412 147
9413 344
9414 480
9415 353
9416 278
9417 146
9418 248
9419 94
9420 55
9421 337
9422 282
9423 420
9424 181
9425 41
9426 280
9427 238
9428 348
9429 318
9430 206
9431 107
9432 573
9433 395
9434 78
9435 76
9436 224
9437 238
9438 272
9439 323
9440 555
9441 178
9442 319
9443 70
9444 397
9445 183
9446 289
9447 323
9448 346
9449 430
9450 94
9451 518
9452 1
9453 466
9454 480
9455 375
9456 370
9457 480
9458 399
9459 217
9460 330
9461 348
9462 250
9463 433
9464 55
9465 323
9466 159
9467 150
9468 343
9469 540
9470 119
9471 395
9472 282
9473 375
9474 215
9475 323
9476 411
9477 206
9478 359
9479 480
9480 389
9481 327
9482 280
9483 379
9484 337
9485 205
9486 391
9487 265
9488 163
9489 444
9490 57
9491 589
9492 395
9493 517
9494 404
9495 291
9496 63
9497 445
9498 414
9499 510
9500 493
9501 446
9502 365
9503 157
9504 249
9505 379
9506 359
9507 448
9508 159
9509 518
9510 508
9511 494
9512 137
9513 344
9514 25
9515 189
9516 409
9517 443
9518 73
9519 118
9520 144
9521 466
9522 430
9523 224
9524 344
9525 404
9526 319
9527 255
9528 473
9529 58
9530 397
9531 431
9532 94
9533 334
9534 278
9535 41
9536 22
9537 95
9538 180
9539 379
9540 82
9541 234
9542 220
9543 32
9544 338
9545 53
9546 117
9547 506
9548 474
9549 180
9550 273
9551 318
9552 377
9553 157
9554 273
9555 286
9556 167
9557 256
9558 1
9559 166
9560 425
9561 137
9562 155
9563 306
9564 448
9565 506
9566 241
9567 196
9568 267
9569 290
9570 497
9571 39
9572 214
9573 227
9574 379
9575 365
9576 426
9577 271
9578 288
9579 448
9580 39
9581 348
9582 137
9583 426
9584 480
9585 395
9586 266
9587 474
9588 425
9589 270
9590 208
9591 451
9592 57
9593 252
9594 265
9595 161
9596 39
9597 494
9598 266
9599 459
9600 359
9601 348
9602 206
9603 334
9604 330
9605 493
9606 230
9607 364
9608 220
9609 3
9610 265
9611 518
9612 318
9613 80
9614 287
9615 167
9616 365
9617 275
9618 205
9619 220
9620 449
9621 169
9622 45
9623 161
9624 139
9625 367
9626 443
9627 508
9628 298
9629 224
9630 480
9631 166
9632 184
9633 184
9634 249
9635 318
9636 73
9637 468
9638 151
9639 395
9640 570
9641 241
9642 290
9643 200
9644 251
9645 165
9646 442
9647 306
9648 511
9649 562
9650 460
9651 415
9652 75
9653 125
9654 375
9655 392
9656 494
9657 592
9658 400
9659 40
9660 151
9661 371
9662 296
9663 80
9664 334
9665 175
9666 38
9667 381
9668 407
9669 256
9670 249
9671 205
9672 146
9673 561
9674 230
9675 21
9676 50
9677 41
9678 405
9679 348
9680 64
9681 529
9682 55
9683 37
9684 348
9685 447
9686 44
9687 414
9688 130
9689 381
9690 105
9691 99
9692 43
9693 194
9694 425
9695 81
9696 178
9697 163
9698 280
9699 406
9700 212
9701 159
9702 156
9703 63
9704 477
9705 14
9706 385
9707 164
9708 59
9709 334
9710 73
9711 330
9712 436
9713 78
9714 171
9715 31
9716 98
9717 414
9718 114
9719 466
9720 230
9721 241
9722 318
9723 260
9724 98
9725 352
9726 62
9727 385
9728 381
9729 442
9730 200
9731 205
9732 440
9733 399
9734 518
9735 227
9736 349
9737 307
9738 55
9739 530
9740 367
9741 41
9742 323
9743 227
9744 553
9745 166
9746 397
9747 260
9748 515
9749 480
9750 62
9751 278
9752 30
9753 302
9754 56
9755 266
9756 33
9757 58
9758 404
9759 443
9760 601
9761 183
9762 183
9763 480
9764 37
9765 537
9766 46
9767 433
9768 41
9769 278
9770 31
9771 241
9772 480
9773 472
9774 198
9775 480
9776 220
9777 17
9778 251
9779 39
9780 307
9781 198
9782 168
9783 405
9784 62
9785 137
9786 455
9787 159
9788 330
9789 397
9790 400
9791 358
9792 53
9793 264
9794 378
9795 157
9796 89
9797 85
9798 545
9799 378
9800 164
9801 498
9802 480
9803 302
9804 359
9805 496
9806 164
9807 98
9808 361
9809 337
9810 256
9811 273
9812 55
9813 422
9814 385
9815 347
9816 473
9817 480
9818 536
9819 146
9820 546
9821 489
9822 364
9823 342
9824 443
9825 525
9826 561
9827 152
9828 395
9829 367
9830 380
9831 135
9832 237
9833 414
9834 48
9835 136
9836 365
9837 389
9838 280
9839 414
9840 220
9841 362
9842 407
9843 73
9844 166
9845 146
9846 289
9847 494
9848 94
9849 464
9850 12
9851 379
9852 348
9853 411
9854 411
9855 516
9856 57
9857 230
9858 442
9859 220
9860 379
9861 146
9862 397
9863 356
9864 400
9865 47
9866 124
9867 451
9868 44
9869 506
9870 136
9871 494
9872 308
9873 271
9874 485
9875 411
9876 223
9877 161
9878 478
9879 541
9880 183
9881 457
9882 34
9883 391
9884 189
9885 16
9886 378
9887 146
9888 62
9889 368
9890 455
9891 590
9892 45
9893 155
9894 73
9895 241
9896 504
9897 163
9898 166
9899 13
9900 183
9901 307
9902 352
9903 127
9904 98
9905 249
9906 239
9907 414
9908 559
9909 58
9910 464
9911 75
9912 73
9913 73
9914 70
9915 479
9916 288
9917 259
9918 56
9919 410
9920 185
9921 75
9922 477
9923 13
9924 364
9925 162
9926 395
9927 239
9928 518
9929 585
9930 348
9931 137
9932 157
9933 420
9934 13
9935 155
9936 346
9937 145
9938 49
9939 287
9940 400
9941 275
9942 183
9943 337
9944 527
9945 404
9946 488
9947 42
9948 169
9949 225
9950 80
9951 493
9952 57
9953 244
9954 261
9955 128
9956 107
9957 269
9958 209
9959 200
9960 31
9961 395
9962 80
9963 451
9964 424
9965 464
9966 429
9967 194
9968 197
9969 468
9970 329
9971 311
9972 334
9973 504
9974 399
9975 173
9976 515
9977 239
9978 3
9979 493
9980 280
9981 67
9982 381
9983 31
9984 94
9985 602
9986 530
9987 379
9988 287
9989 531
9990 589
9991 29
9992 79
9993 381
9994 440
9995 105
9996 306
9997 404
9998 269
9999 596
10000 323
10001 175
10002 395
10003 227
10004 319
10005 474
10006 238
10007 381
10008 196
10009 279
10010 56
10011 286
10012 240
10013 58
10014 232
10015 400
10016 147
10017 137
10018 455
10019 439
10020 103
10021 147
10022 80
10023 379
10024 230
10025 365
10026 84
10027 39
10028 468
10029 481
10030 451
10031 551
10032 468
10033 493
10034 521
10035 533
10036 222
10037 278
10038 155
10039 411
10040 169
10041 87
10042 395
10043 73
10044 282
10045 25
10046 468
10047 365
10048 117
10049 480
10050 197
10051 39
10052 464
10053 237
10054 79
10055 122
10056 200
10057 164
10058 411
10059 12
10060 209
10061 147
10062 595
10063 67
10064 62
10065 278
10066 383
10067 353
10068 105
10069 147
10070 80
10071 480
10072 374
10073 278
10074 331
10075 106
10076 24
10077 269
10078 442
10079 200
10080 494
10081 307
10082 462
10083 137
10084 94
10085 45
10086 227
10087 86
10088 346
10089 166
10090 348
10091 355
10092 337
10093 577
10094 180
10095 537
10096 166
10097 62
10098 605
10099 276
10100 205
10101 137
10102 334
10103 222
10104 116
10105 274
10106 485
10107 80
10108 337
10109 466
10110 588
10111 212
10112 248
10113 196
10114 278
10115 330
10116 348
10117 400
10118 470
10119 25
10120 395
10121 319
10122 274
10123 319
10124 95
10125 106
10126 278
10127 200
10128 330
10129 264
10130 119
10131 410
10132 425
10133 490
10134 98
10135 208
10136 274
10137 62
10138 274
10139 356
10140 440
10141 220
10142 35
10143 528
10144 518
10145 327
10146 378
10147 80
10148 342
10149 171
10150 379
10151 278
10152 233
10153 197
10154 3
10155 107
10156 151
10157 407
10158 278
10159 429
10160 338
10161 83
10162 390
10163 279
10164 157
10165 159
10166 414
10167 220
10168 123
10169 200
10170 529
10171 274
10172 175
10173 145
10174 356
10175 480
10176 282
10177 175
10178 405
10179 59
10180 213
10181 84
10182 233
10183 37
10184 463
10185 95
10186 373
10187 92
10188 157
10189 448
10190 587
10191 106
10192 464
10193 232
10194 9
10195 378
10196 217
10197 55
10198 348
10199 121
10200 90
10201 554
10202 31
10203 73
10204 466
10205 37
10206 164
10207 200
10208 227
10209 105
10210 395
10211 555
10212 55
10213 337
10214 58
10215 282
10216 194
10217 373
10218 275
10219 338
10220 166
10221 233
10222 306
10223 460
10224 200
10225 280
10226 152
10227 282
10228 381
10229 141
10230 157
10231 334
10232 523
10233 251
10234 13
10235 331
10236 506
10237 163
10238 249
10239 319
10240 166
10241 279
10242 249
10243 80
10244 253
10245 452
10246 137
10247 501
10248 323
10249 430
10250 201
10251 436
10252 175
10253 361
10254 488
10255 460
10256 139
10257 341
10258 239
10259 147
10260 319
10261 209
10262 420
10263 250
10264 455
10265 79
10266 348
10267 152
10268 539
10269 262
10270 230
10271 456
10272 220
10273 166
10274 404
10275 34
10276 363
10277 255
10278 240
10279 93
10280 56
10281 429
10282 175
10283 225
10284 219
10285 406
10286 218
10287 420
10288 504
10289 13
10290 119
10291 395
10292 331
10293 426
10294 589
10295 274
10296 499
10297 379
10298 537
10299 175
10300 178
10301 19
10302 230
10303 220
10304 79
10305 13
10306 481
10307 107
10308 241
10309 481
10310 187
10311 86
10312 217
10313 585
10314 19
10315 274
10316 169
10317 510
10318 319
10319 53
10320 105
10321 174
10322 217
10323 2
10324 31
10325 166
10326 212
10327 135
10328 468
10329 73
10330 496
10331 363
10332 441
10333 188
10334 488
10335 230
10336 55
10337 558
10338 367
10339 345
10340 55
10341 6
10342 367
10343 519
10344 464
10345 397
10346 53
10347 238
10348 217
10349 172
10350 274
10351 425
10352 106
10353 400
10354 178
10355 429
10356 404
10357 163
10358 19
10359 217
10360 21
10361 327
10362 331
10363 534
10364 278
10365 274
10366 67
10367 164
10368 414
10369 86
10370 67
10371 412
10372 164
10373 302
10374 64
10375 334
10376 466
10377 385
10378 479
10379 137
10380 235
10381 552
10382 121
10383 217
10384 123
10385 499
10386 62
10387 357
10388 595
10389 280
10390 159
10391 74
10392 306
10393 272
10394 119
10395 337
10396 307
10397 22
10398 75
10399 37
10400 174
10401 62
10402 464
10403 119
10404 334
10405 135
10406 298
10407 106
10408 470
10409 80
10410 41
10411 408
10412 302
10413 209
10414 206
10415 353
10416 327
10417 122
10418 3
10419 451
10420 240
10421 88
10422 106
10423 348
10424 158
10425 497
10426 260
10427 296
10428 345
10429 559
10430 388
10431 353
10432 249
10433 291
10434 307
10435 62
10436 400
10437 227
10438 162
10439 56
10440 389
10441 326
10442 464
10443 428
10444 330
10445 331
10446 184
10447 224
10448 167
10449 172
10450 80
10451 80
10452 381
10453 256
10454 291
10455 170
10456 56
10457 415
10458 404
10459 79
10460 196
10461 429
10462 155
10463 400
10464 600
10465 345
10466 179
10467 164
10468 208
10469 604
10470 19
10471 372
10472 265
10473 225
10474 404
10475 22
10476 353
10477 502
10478 79
10479 444
10480 62
10481 397
10482 93
10483 274
10484 151
10485 387
10486 451
10487 518
10488 181
10489 31
10490 499
10491 164
10492 331
10493 319
10494 200
10495 291
10496 21
10497 90
10498 464
10499 374
10500 279
10501 93
10502 526
10503 200
10504 106
10505 331
10506 495
10507 466
10508 257
10509 583
10510 99
10511 480
10512 62
10513 466
10514 359
10515 536
10516 530
10517 593
10518 367
10519 497
10520 397
10521 579
10522 543
10523 172
10524 422
10525 86
10526 157
10527 205
10528 464
10529 186
10530 413
10531 353
10532 80
10533 135
10534 116
10535 334
10536 520
10537 237
10538 251
10539 367
10540 307
10541 291
10542 173
10543 258
10544 56
10545 508
10546 39
10547 324
10548 119
10549 200
10550 313
10551 507
10552 331
10553 79
10554 540
10555 251
10556 591
10557 405
10558 274
10559 67
10560 19
10561 515
10562 360
10563 367
10564 402
10565 291
10566 279
10567 411
10568 10
10569 540
10570 217
10571 536
10572 342
10573 265
10574 480
10575 337
10576 67
10577 393
10578 560
10579 508
10580 451
10581 493
10582 405
10583 66
10584 3
10585 481
10586 551
10587 241
10588 171
10589 223
10590 508
10591 405
10592 43
10593 41
10594 225
10595 227
10596 342
10597 135
10598 249
10599 159
10600 251
10601 506
10602 67
10603 541
10604 79
10605 513
10606 425
10607 163
10608 187
10609 215
10610 307
10611 537
10612 293
10613 485
10614 38
10615 106
10616 79
10617 289
10618 465
10619 367
10620 402
10621 377
10622 469
10623 237
10624 163
10625 92
10626 508
10627 135
10628 433
10629 508
10630 334
10631 31
10632 460
10633 81
10634 414
10635 157
10636 405
10637 433
10638 355
10639 307
10640 357
10641 464
10642 315
10643 400
10644 334
10645 230
10646 91
10647 106
10648 479
10649 99
10650 268
10651 13
10652 595
10653 403
10654 233
10655 3
10656 90
10657 263
10658 353
10659 144
10660 479
10661 415
10662 287
10663 3
10664 584
10665 205
10666 237
10667 159
10668 447
10669 3
10670 367
10671 3
10672 411
10673 280
10674 405
10675 433
10676 152
10677 44
10678 429
10679 464
10680 188
10681 585
10682 583
10683 130
10684 302
10685 378
10686 327
10687 407
10688 508
10689 145
10690 3
10691 282
10692 251
10693 397
10694 443
10695 320
10696 205
10697 99
10698 41
10699 40
10700 53
10701 265
10702 201
10703 85
10704 75
10705 584
10706 150
10707 151
10708 227
10709 79
10710 404
10711 405
10712 135
10713 169
10714 46
10715 481
10716 485
10717 1
10718 397
10719 520
10720 367
10721 532
10722 565
10723 268
10724 256
10725 409
10726 411
10727 178
10728 138
10729 227
10730 296
10731 400
10732 602
10733 289
10734 225
10735 171
10736 269
10737 323
10738 405
10739 476
10740 315
10741 171
10742 105
10743 342
10744 49
10745 22
10746 130
10747 169
10748 350
10749 367
10750 336
10751 370
10752 324
10753 181
10754 479
10755 479
10756 381
10757 420
10758 365
10759 94
10760 367
10761 227
10762 156
10763 273
10764 253
10765 212
10766 110
10767 488
10768 168
10769 108
10770 379
10771 224
10772 145
10773 464
10774 98
10775 369
10776 122
10777 302
10778 102
10779 170
10780 397
10781 1
10782 113
10783 29
10784 499
10785 151
10786 19
10787 9
10788 560
10789 175
10790 429
10791 365
10792 447
10793 228
10794 181
10795 346
10796 381
10797 98
10798 387
10799 440
10800 75
10801 359
10802 552
10803 245
10804 381
10805 227
10806 41
10807 308
10808 164
10809 86
10810 255
10811 63
10812 494
10813 506
10814 498
10815 427
10816 94
10817 136
10818 168
10819 327
10820 205
10821 241
10822 295
10823 80
10824 348
10825 318
10826 265
10827 397
10828 385
10829 402
10830 480
10831 420
10832 427
10833 254
10834 384
10835 443
10836 55
10837 185
10838 58
10839 304
10840 452
10841 474
10842 251
10843 155
10844 475
10845 472
10846 397
10847 378
10848 206
10849 348
10850 308
10851 267
10852 259
10853 440
10854 97
10855 481
10856 74
10857 145
10858 145
10859 254
10860 406
10861 205
10862 305
10863 25
10864 175
10865 58
10866 79
10867 353
10868 385
10869 318
10870 230
10871 275
10872 575
10873 405
10874 283
10875 149
10876 433
10877 149
10878 200
10879 254
10880 411
10881 334
10882 420
10883 405
10884 549
10885 152
10886 537
10887 57
10888 480
10889 86
10890 482
10891 78
10892 455
10893 433
10894 479
10895 249
10896 5
10897 209
10898 275
10899 13
10900 430
10901 205
10902 381
10903 443
10904 227
10905 560
10906 159
10907 80
10908 265
10909 405
10910 220
10911 172
10912 474
10913 237
10914 455
10915 99
10916 145
10917 258
10918 139
10919 106
10920 50
10921 449
10922 425
10923 257
10924 151
10925 181
10926 474
10927 305
10928 4
10929 410
10930 477
10931 145
10932 130
10933 458
10934 465
10935 151
10936 257
10937 62
10938 166
10939 436
10940 324
10941 37
10942 402
10943 109
10944 263
10945 309
10946 31
10947 426
10948 371
10949 317
10950 439
10951 283
10952 103
10953 119
10954 93
10955 54
10956 514
10957 432
10958 232
10959 147
10960 209
10961 207
10962 430
10963 13
10964 164
10965 123
10966 55
10967 73
10968 444
10969 555
10970 203
10971 522
10972 41
10973 451
10974 376
10975 414
10976 83
10977 342
10978 57
10979 330
10980 561
10981 397
10982 438
10983 139
10984 288
10985 425
10986 334
10987 491
10988 275
10989 155
10990 306
10991 479
10992 55
10993 90
10994 276
10995 45
10996 537
10997 176
10998 104
10999 400
11000 410
11001 106
11002 200
11003 350
11004 430
11005 204
11006 444
11007 35
11008 464
11009 327
11010 442
11011 327
11012 421
11013 220
11014 455
11015 119
11016 273
11017 55
11018 73
11019 309
11020 508
11021 157
11022 462
11023 513
11024 29
11025 452
11026 379
11027 147
11028 353
11029 99
11030 185
11031 41
11032 78
11033 220
11034 429
11035 151
11036 139
11037 331
11038 323
11039 289
11040 172
11041 251
11042 540
11043 183
11044 275
11045 359
11046 269
11047 115
11048 232
11049 464
11050 178
11051 404
11052 289
11053 176
11054 29
11055 526
11056 471
11057 223
11058 217
11059 157
11060 416
11061 334
11062 78
11063 358
11064 543
11065 119
11066 426
11067 113
11068 251
11069 418
11070 414
11071 139
11072 260
11073 303
11074 552
11075 445
11076 392
11077 569
11078 353
11079 440
11080 444
11081 395
11082 300
11083 346
11084 359
11085 466
11086 209
11087 582
11088 404
11089 359
11090 178
11091 206
11092 275
11093 342
11094 238
11095 362
11096 55
11097 271
11098 145
11099 433
11100 379
11101 331
11102 21
11103 397
11104 106
11105 73
11106 223
11107 261
11108 349
11109 318
11110 237
11111 399
11112 415
11113 145
11114 485
11115 426
11116 136
11117 448
11118 318
11119 94
11120 305
11121 365
11122 525
11123 282
11124 94
11125 323
11126 541
11127 229
11128 140
11129 321
11130 365
11131 407
11132 368
11133 425
11134 364
11135 41
11136 395
11137 223
11138 474
11139 303
11140 318
11141 448
11142 161
11143 274
11144 584
11145 307
11146 375
11147 444
11148 178
11149 379
11150 411
11151 21
11152 137
11153 21
11154 105
11155 405
11156 309
11157 395
11158 442
11159 137
11160 578
11161 41
11162 46
11163 57
11164 448
11165 289
11166 359
11167 334
11168 207
11169 120
11170 303
11171 430
11172 178
11173 161
11174 225
11175 139
11176 280
11177 282
11178 466
11179 172
11180 161
11181 262
11182 425
11183 466
11184 542
11185 97
11186 2
11187 311
11188 248
11189 165
11190 390
11191 286
11192 485
11193 21
11194 268
11195 334
11196 198
11197 485
11198 464
11199 287
11200 540
11201 237
11202 426
11203 344
11204 480
11205 337
11206 200
11207 37
11208 155
11209 430
11210 307
11211 67
11212 49
11213 119
11214 128
11215 397
11216 21
11217 402
11218 480
11219 78
11220 425
11221 353
11222 343
11223 137
11224 353
11225 105
11226 217
11227 282
11228 264
11229 239
11230 172
11231 136
11232 480
11233 379
11234 269
11235 205
11236 135
11237 479
11238 145
11239 228
11240 83
11241 73
11242 94
11243 404
11244 172
11245 332
11246 356
11247 543
11248 105
11249 349
11250 543
11251 281
11252 269
11253 318
11254 245
11255 164
11256 106
11257 206
11258 68
11259 346
11260 188
11261 270
11262 323
11263 215
11264 551
11265 146
11266 391
11267 421
11268 145
11269 323
11270 3
11271 136
11272 95
11273 278
11274 330
11275 455
11276 188
11277 278
11278 557
11279 531
11280 205
11281 135
11282 73
11283 106
11284 177
11285 379
11286 480
11287 147
11288 45
11289 362
11290 480
11291 83
11292 204
11293 147
11294 251
11295 527
11296 274
11297 424
11298 289
11299 319
11300 315
11301 466
11302 151
11303 82
11304 265
11305 139
11306 330
11307 53
11308 348
11309 11
11310 189
11311 316
11312 206
11313 238
11314 169
11315 163
11316 143
11317 343
11318 494
11319 379
11320 139
11321 275
11322 527
11323 415
11324 323
11325 106
11326 58
11327 161
11328 348
11329 58
11330 346
11331 487
11332 373
11333 19
11334 379
11335 430
11336 2
11337 480
11338 217
11339 454
11340 178
11341 307
11342 318
11343 58
11344 83
11345 206
11346 223
11347 335
11348 406
11349 506
11350 420
11351 466
11352 208
11353 206
11354 560
11355 269
11356 39
11357 517
11358 1
11359 426
11360 474
11361 78
11362 9
11363 307
11364 275
11365 377
11366 302
11367 451
11368 449
11369 379
11370 205
11371 278
11372 55
11373 479
11374 225
11375 316
11376 213
11377 178
11378 207
11379 178
11380 395
11381 365
11382 161
11383 146
11384 221
11385 367
11386 137
11387 3
11388 279
11389 258
11390 513
11391 361
11392 337
11393 136
11394 178
11395 352
11396 172
11397 9
11398 402
11399 205
11400 294
11401 171
11402 289
11403 220
11404 251
11405 80
11406 37
11407 330
11408 73
11409 174
11410 173
11411 300
11412 480
11413 415
11414 224
11415 391
11416 459
11417 411
11418 425
11419 585
11420 32
11421 63
11422 389
11423 12
11424 136
11425 166
11426 83
11427 41
11428 425
11429 517
11430 57
11431 402
11432 342
11433 334
11434 518
11435 379
11436 237
11437 521
11438 377
11439 480
11440 175
11441 157
11442 319
11443 405
11444 508
11445 119
11446 279
11447 291
11448 367
11449 346
11450 376
11451 474
11452 155
11453 269
11454 31
11455 151
11456 420
11457 443
11458 496
11459 21
11460 249
11461 548
11462 171
11463 57
11464 151
11465 282
11466 426
11467 155
11468 269
11469 2
11470 367
11471 506
11472 448
11473 466
11474 451
11475 330
11476 251
11477 169
11478 178
11479 600
11480 167
11481 48
11482 395
11483 169
11484 57
11485 107
11486 189
11487 2
11488 506
11489 546
11490 146
11491 554
11492 392
11493 342
11494 180
11495 350
11496 275
11497 550
11498 373
11499 2
11500 466
11501 152
11502 225
11503 20
11504 603
11505 494
11506 216
11507 466
11508 291
11509 236
11510 169
11511 146
11512 136
11513 30
11514 106
11515 282
11516 333
11517 25
11518 169
11519 505
11520 164
11521 153
11522 5
11523 395
11524 41
11525 242
11526 169
11527 531
11528 157
11529 122
11530 151
11531 27
11532 25
11533 566
11534 506
11535 414
11536 94
11537 181
11538 426
11539 406
11540 171
11541 337
11542 518
11543 462
11544 313
11545 275
11546 200
11547 146
11548 319
11549 136
11550 139
11551 307
11552 474
11553 145
11554 282
11555 157
11556 441
11557 571
11558 286
11559 508
11560 278
11561 106
11562 139
11563 411
11564 84
11565 460
11566 362
11567 105
11568 175
11569 286
11570 480
11571 146
11572 249
11573 449
11574 237
11575 508
11576 275
11577 41
11578 148
11579 116
11580 251
11581 73
11582 571
11583 359
11584 199
11585 151
11586 83
11587 37
11588 323
11589 397
11590 518
11591 240
11592 438
11593 444
11594 109
11595 163
11596 27
11597 527
11598 348
11599 125
11600 145
11601 331
11602 74
11603 178
11604 200
11605 146
11606 348
11607 115
11608 562
11609 485
11610 106
11611 494
11612 391
11613 55
11614 58
11615 228
11616 279
11617 44
11618 241
11619 31
11620 106
11621 166
11622 282
11623 512
11624 240
11625 78
11626 385
11627 237
11628 55
11629 318
11630 94
11631 407
11632 254
11633 157
11634 269
11635 166
11636 393
11637 91
11638 230
11639 518
11640 395
11641 404
11642 337
11643 206
11644 81
11645 249
11646 365
11647 395
11648 278
11649 433
11650 122
11651 278
11652 136
11653 500
11654 306
11655 139
11656 278
11657 426
11658 480
11659 19
11660 99
11661 199
11662 330
11663 94
11664 334
11665 397
11666 78
11667 337
11668 494
11669 184
11670 425
11671 333
11672 126
11673 5
11674 322
11675 3
11676 433
11677 39
11678 333
11679 218
11680 456
11681 146
11682 242
11683 133
11684 38
11685 420
11686 368
11687 178
11688 411
11689 426
11690 205
11691 345
11692 16
11693 15
11694 32
11695 237
11696 284
11697 467
11698 146
11699 480
11700 561
11701 196
11702 84
11703 74
11704 381
11705 73
11706 498
11707 30
11708 196
11709 378
11710 278
11711 152
11712 145
11713 146
11714 573
11715 381
11716 245
11717 395
11718 227
11719 105
11720 395
11721 337
11722 338
11723 356
11724 220
11725 326
11726 437
11727 19
11728 220
11729 427
11730 63
11731 43
11732 73
11733 379
11734 220
11735 100
11736 275
11737 356
11738 490
11739 94
11740 51
11741 230
11742 494
11743 249
11744 203
11745 205
11746 279
11747 54
11748 297
11749 157
11750 330
11751 169
11752 157
11753 395
11754 151
11755 105
11756 98
11757 466
11758 307
11759 51
11760 220
11761 249
11762 526
11763 164
11764 442
11765 462
11766 337
11767 139
11768 279
11769 31
11770 604
11771 488
11772 308
11773 157
11774 204
11775 269
11776 570
11777 395
11778 461
11779 137
11780 287
11781 22
11782 56
11783 41
11784 260
11785 249
11786 437
11787 440
11788 41
11789 240
11790 73
11791 130
11792 601
11793 62
11794 39
11795 265
11796 22
11797 575
11798 281
11799 174
11800 330
11801 414
11802 330
11803 464
11804 258
11805 243
11806 519
11807 45
11808 381
11809 61
11810 105
11811 282
11812 337
11813 94
11814 17
11815 105
11816 365
11817 313
11818 167
11819 133
11820 251
11821 466
11822 41
11823 78
11824 295
11825 379
11826 480
11827 330
11828 279
11829 155
11830 330
11831 480
11832 363
11833 538
11834 194
11835 391
11836 58
11837 206
11838 599
11839 351
11840 73
11841 215
11842 440
11843 155
11844 356
11845 203
11846 365
11847 41
11848 506
11849 327
11850 137
11851 194
11852 513
11853 164
11854 251
11855 62
11856 220
11857 237
11858 391
11859 146
11860 183
11861 15
11862 395
11863 274
11864 51
11865 518
11866 473
11867 474
11868 200
11869 98
11870 484
11871 480
11872 13
11873 430
11874 384
11875 246
11876 261
11877 480
11878 56
11879 78
11880 201
11881 52
11882 393
11883 265
11884 481
11885 337
11886 166
11887 115
11888 152
11889 515
11890 424
11891 577
11892 560
11893 17
11894 41
11895 254
11896 227
11897 189
11898 504
11899 397
11900 206
11901 278
11902 41
11903 52
11904 11
11905 230
11906 99
11907 205
11908 45
11909 152
11910 414
11911 227
11912 468
11913 501
11914 216
11915 355
11916 275
11917 114
11918 190
11919 196
11920 400
11921 56
11922 48
11923 466
11924 94
11925 171
11926 184
11927 169
11928 425
11929 90
11930 400
11931 337
11932 231
11933 278
11934 237
11935 564
11936 166
11937 251
11938 563
11939 313
11940 346
11941 162
11942 78
11943 354
11944 73
11945 163
11946 183
11947 600
11948 227
11949 433
11950 67
11951 164
11952 363
11953 378
11954 179
11955 90
11956 212
11957 506
11958 378
11959 480
11960 333
11961 31
11962 334
11963 414
11964 157
11965 278
11966 190
11967 590
11968 464
11969 569
11970 67
11971 404
11972 411
11973 78
11974 446
11975 249
11976 337
11977 334
11978 55
11979 402
11980 367
11981 58
11982 466
11983 249
11984 40
11985 7
11986 275
11987 136
11988 137
11989 380
11990 200
11991 493
11992 280
11993 390
11994 154
11995 249
11996 381
11997 233
11998 199
11999 13
12000 330
12001 241
12002 515
12003 385
12004 464
12005 67
12006 194
12007 429
12008 429
12009 105
12010 577
12011 79
12012 379
12013 237
12014 52
12015 206
12016 183
12017 330
12018 553
12019 139
12020 164
12021 187
12022 356
12023 51
12024 207
12025 163
12026 430
12027 312
12028 278
12029 11
12030 365
12031 232
12032 333
12033 106
12034 469
12035 56
12036 455
12037 234
12038 227
12039 425
12040 400
12041 121
12042 29
12043 79
12044 44
12045 330
12046 106
12047 31
12048 161
12049 106
12050 18
12051 604
12052 319
12053 107
12054 209
12055 330
12056 98
12057 155
12058 198
12059 152
12060 533
12061 501
12062 185
12063 205
12064 100
12065 62
12066 279
12067 230
12068 167
12069 470
12070 404
12071 376
12072 225
12073 10
12074 185
12075 206
12076 159
12077 413
12078 501
12079 146
12080 183
12081 167
12082 455
12083 205
12084 493
12085 474
12086 234
12087 40
12088 379
12089 430
12090 270
12091 313
12092 508
12093 432
12094 467
12095 286
12096 194
12097 370
12098 495
12099 164
12100 45
12101 78
12102 169
12103 200
12104 3
12105 319
12106 13
12107 434
12108 206
12109 560
12110 337
12111 84
12112 334
12113 404
12114 130
12115 429
12116 353
12117 362
12118 468
12119 342
12120 440
12121 431
12122 365
12123 56
12124 474
12125 275
12126 397
12127 109
12128 205
12129 2
12130 77
12131 391
12132 269
