0 0
1 1
2 2
3 3
4 4
5 5
6 6
7 7
8 8
9 9
10 10
11 3
12 11
13 12
14 13
15 14
16 15
17 16
18 17
19 18
20 19
21 20
22 21
23 22
24 23
25 24
26 25
27 26
28 27
29 28
30 29
31 30
32 31
33 32
34 33
35 34
36 35
37 23
38 36
39 37
40 38
41 39
42 40
43 41
44 42
45 43
46 44
47 23
48 45
49 46
50 47
51 48
52 16
53 49
54 50
55 51
56 52
57 53
58 54
59 55
60 29
61 56
62 57
63 58
64 59
65 60
66 61
67 26
68 62
69 25
70 22
71 9
72 62
73 63
74 64
75 46
76 25
77 65
78 66
79 67
80 68
81 69
82 70
83 71
84 72
85 47
86 73
87 74
88 7
89 0
90 21
91 72
92 75
93 76
94 77
95 14
96 21
97 78
98 79
99 62
100 80
101 81
102 9
103 12
104 82
105 83
106 84
107 32
108 85
109 86
110 87
111 88
112 89
113 36
114 90
115 91
116 92
117 93
118 94
119 95
120 96
121 97
122 98
123 30
124 99
125 100
126 101
127 5
128 102
129 1
130 81
131 31
132 103
133 104
134 105
135 106
136 107
137 41
138 108
139 109
140 110
141 111
142 112
143 113
144 60
145 114
146 115
147 7
148 116
149 117
150 50
151 118
152 119
153 29
154 7
155 9
156 120
157 1
158 121
159 122
160 123
161 82
162 34
163 82
164 86
165 21
166 124
167 125
168 115
169 126
170 37
171 127
172 128
173 129
174 130
175 131
176 132
177 116
178 127
179 57
180 133
181 134
182 135
183 39
184 136
185 133
186 137
187 138
188 139
189 140
190 141
191 142
192 143
193 144
194 145
195 146
196 21
197 147
198 140
199 96
200 93
201 148
202 73
203 109
204 45
205 41
206 149
207 40
208 85
209 62
210 150
211 119
212 151
213 102
214 152
215 153
216 47
217 154
218 155
219 156
220 157
221 158
222 84
223 159
224 160
225 23
226 161
227 89
228 152
229 143
230 162
231 135
232 8
233 37
234 163
235 164
236 43
237 165
238 166
239 167
240 83
241 143
242 21
243 93
244 0
245 104
246 168
247 169
248 40
249 104
250 170
251 46
252 102
253 86
254 104
255 25
256 48
257 88
258 171
259 8
260 96
261 97
262 137
263 108
264 172
265 84
266 9
267 173
268 25
269 133
270 45
271 164
272 174
273 31
274 175
275 143
276 176
277 177
278 178
279 173
280 179
281 20
282 180
283 95
284 181
285 9
286 182
287 1
288 159
289 170
290 24
291 183
292 184
293 185
294 55
295 141
296 67
297 186
298 134
299 13
300 58
301 40
302 131
303 92
304 61
305 187
306 173
307 15
308 155
309 188
310 77
311 133
312 45
313 73
314 189
315 190
316 176
317 191
318 192
319 193
320 171
321 129
322 54
323 194
324 34
325 195
326 196
327 197
328 198
329 97
330 25
331 12
332 69
333 166
334 89
335 199
336 14
337 118
338 139
339 200
340 58
341 38
342 201
343 36
344 139
345 202
346 158
347 203
348 68
349 69
350 9
351 173
352 45
353 2
354 204
355 205
356 12
357 206
358 159
359 24
360 22
361 26
362 44
363 78
364 120
365 207
366 208
367 209
368 173
369 107
370 17
371 25
372 210
373 40
374 116
375 22
376 136
377 150
378 211
379 173
380 122
381 212
382 192
383 108
384 2
385 213
386 7
387 214
388 53
389 215
390 14
391 216
392 72
393 104
394 25
395 119
396 217
397 196
398 218
399 219
400 220
401 36
402 221
403 80
404 222
405 50
406 195
407 123
408 21
409 14
410 102
411 120
412 148
413 223
414 33
415 224
416 186
417 191
418 225
419 83
420 164
421 226
422 81
423 227
424 217
425 105
426 26
427 228
428 218
429 163
430 82
431 229
432 140
433 230
434 231
435 144
436 82
437 176
438 104
439 135
440 213
441 124
442 143
443 232
444 233
445 234
446 45
447 235
448 60
449 104
450 12
451 20
452 212
453 236
454 151
455 50
456 237
457 173
458 144
459 238
460 157
461 220
462 45
463 61
464 45
465 91
466 9
467 205
468 239
469 222
470 184
471 240
472 116
473 122
474 91
475 14
476 191
477 230
478 241
479 131
480 208
481 242
482 176
483 173
484 243
485 172
486 244
487 107
488 229
489 166
490 148
491 107
492 245
493 246
494 240
495 222
496 223
497 0
498 247
499 9
500 53
501 120
502 117
503 227
504 159
505 248
506 249
507 7
508 139
509 236
510 110
511 160
512 125
513 176
514 7
515 20
516 210
517 74
518 250
519 204
520 104
521 21
522 251
523 17
524 207
525 252
526 190
527 106
528 213
529 67
530 66
531 253
532 254
533 22
534 107
535 255
536 188
537 256
538 150
539 44
540 257
541 11
542 28
543 163
544 80
545 96
546 25
547 76
548 12
549 54
550 139
551 258
552 176
553 108
554 259
555 260
556 246
557 260
558 220
559 10
560 129
561 261
562 223
563 249
564 39
565 228
566 98
567 128
568 262
569 193
570 6
571 119
572 154
573 263
574 264
575 265
576 241
577 77
578 266
579 146
580 198
581 114
582 199
583 59
584 264
585 232
586 145
587 155
588 45
589 117
590 267
591 71
592 176
593 44
594 210
595 140
596 96
597 45
598 252
599 109
600 268
601 116
602 150
603 222
604 174
605 197
606 114
607 230
608 34
609 121
610 237
611 69
612 25
613 147
614 167
615 269
616 244
617 12
618 270
619 162
620 262
621 115
622 220
623 186
624 29
625 24
626 139
627 104
628 243
629 208
630 34
631 263
632 11
633 155
634 75
635 251
636 207
637 22
638 117
639 102
640 214
641 200
642 271
643 159
644 45
645 117
646 54
647 25
648 32
649 83
650 130
651 148
652 272
653 273
654 132
655 139
656 45
657 94
658 45
659 125
660 274
661 118
662 54
663 69
664 153
665 80
666 47
667 36
668 46
669 139
670 37
671 83
672 271
673 275
674 136
675 79
676 9
677 54
678 142
679 276
680 216
681 269
682 179
683 3
684 74
685 277
686 116
687 116
688 211
689 139
690 9
691 278
692 31
693 232
694 18
695 97
696 180
697 32
698 155
699 279
700 280
701 25
702 150
703 281
704 143
705 126
706 38
707 267
708 97
709 14
710 226
711 99
712 21
713 120
714 26
715 236
716 282
717 25
718 283
719 79
720 46
721 106
722 96
723 30
724 128
725 3
726 23
727 284
728 243
729 141
730 100
731 285
732 220
733 249
734 9
735 222
736 229
737 286
738 38
739 287
740 263
741 275
742 112
743 194
744 44
745 168
746 288
747 78
748 21
749 175
750 50
751 22
752 289
753 208
754 194
755 162
756 67
757 133
758 262
759 225
760 35
761 119
762 97
763 158
764 30
765 171
766 69
767 12
768 156
769 54
770 54
771 252
772 170
773 162
774 261
775 290
776 85
777 169
778 82
779 27
780 164
781 12
782 50
783 54
784 192
785 0
786 100
787 131
788 171
789 21
790 222
791 189
792 291
793 12
794 292
795 159
796 48
797 193
798 47
799 257
800 67
801 173
802 100
803 293
804 265
805 77
806 35
807 288
808 274
809 285
810 77
811 54
812 189
813 109
814 63
815 243
816 136
817 26
818 136
819 81
820 136
821 256
822 242
823 50
824 104
825 139
826 130
827 2
828 64
829 51
830 247
831 77
832 118
833 25
834 118
835 54
836 44
837 294
838 290
839 8
840 66
841 155
842 26
843 89
844 287
845 32
846 45
847 23
848 237
849 176
850 277
851 295
852 267
853 144
854 63
855 139
856 68
857 156
858 234
859 159
860 296
861 146
862 297
863 199
864 155
865 191
866 241
867 140
868 31
869 14
870 74
871 255
872 108
873 265
874 236
875 247
876 234
877 298
878 267
879 167
880 150
881 200
882 299
883 247
884 12
885 74
886 74
887 51
888 99
889 89
890 224
891 111
892 45
893 66
894 182
895 81
896 244
897 255
898 197
899 48
900 195
901 50
902 133
903 105
904 62
905 30
906 128
907 185
908 22
909 53
910 193
911 128
912 136
913 139
914 143
915 135
916 0
917 300
918 194
919 301
920 144
921 22
922 182
923 2
924 119
925 14
926 30
927 195
928 176
929 45
930 284
931 249
932 136
933 118
934 196
935 12
936 295
937 62
938 62
939 67
940 87
941 74
942 247
943 43
944 259
945 92
946 132
947 151
948 299
949 54
950 144
951 261
952 263
953 38
954 255
955 35
956 24
957 287
958 89
959 125
960 254
961 272
962 130
963 16
964 26
965 238
966 104
967 20
968 187
969 100
970 136
971 138
972 223
973 81
974 11
975 220
976 223
977 302
978 144
979 115
980 36
981 291
982 222
983 209
984 157
985 22
986 303
987 39
988 37
989 126
990 122
991 226
992 148
993 159
994 96
995 138
996 33
997 281
998 169
999 81
1000 173
1001 60
1002 95
1003 215
1004 54
1005 271
1006 172
1007 202
1008 39
1009 304
1010 89
1011 59
1012 305
1013 298
1014 275
1015 173
1016 197
1017 36
1018 131
1019 260
1020 306
1021 307
1022 26
1023 15
1024 296
1025 29
1026 308
1027 85
1028 241
1029 309
1030 208
1031 54
1032 229
1033 54
1034 219
1035 275
1036 98
1037 48
1038 224
1039 2
1040 106
1041 104
1042 45
1043 281
1044 297
1045 297
1046 18
1047 71
1048 162
1049 71
1050 112
1051 21
1052 229
1053 169
1054 310
1055 18
1056 249
1057 123
1058 134
1059 308
1060 204
1061 104
1062 50
1063 173
1064 149
1065 26
1066 269
1067 7
1068 131
1069 38
1070 157
1071 116
1072 221
1073 311
1074 203
1075 182
1076 161
1077 290
1078 195
1079 305
1080 255
1081 47
1082 312
1083 192
1084 120
1085 203
1086 313
1087 9
1088 275
1089 262
1090 291
1091 2
1092 298
1093 314
1094 238
1095 315
1096 143
1097 82
1098 316
1099 67
1100 67
1101 111
1102 122
1103 202
1104 282
1105 317
1106 81
1107 52
1108 26
1109 9
1110 318
1111 298
1112 148
1113 301
1114 210
1115 242
1116 298
1117 311
1118 225
1119 226
1120 141
1121 111
1122 142
1123 194
1124 210
1125 245
1126 247
1127 116
1128 260
1129 0
1130 141
1131 313
1132 222
1133 72
1134 139
1135 267
1136 302
1137 319
1138 60
1139 297
1140 82
1141 135
1142 160
1143 320
1144 17
1145 285
1146 306
1147 26
1148 72
1149 79
1150 84
1151 238
1152 19
1153 104
1154 254
1155 232
1156 69
1157 17
1158 159
1159 151
1160 168
1161 104
1162 41
1163 80
1164 235
1165 310
1166 243
1167 321
1168 60
1169 114
1170 151
1171 312
1172 11
1173 16
1174 45
1175 271
1176 284
1177 159
1178 275
1179 301
1180 301
1181 322
1182 26
1183 223
1184 18
1185 121
1186 255
1187 38
1188 51
1189 173
1190 97
1191 273
1192 22
1193 77
1194 104
1195 211
1196 202
1197 265
1198 242
1199 323
1200 93
1201 54
1202 253
1203 155
1204 120
1205 140
1206 66
1207 259
1208 26
1209 229
1210 23
1211 52
1212 236
1213 9
1214 311
1215 282
1216 202
1217 52
1218 120
1219 297
1220 155
1221 292
1222 313
1223 324
1224 3
1225 314
1226 142
1227 30
1228 133
1229 158
1230 321
1231 148
1232 312
1233 325
1234 229
1235 157
1236 68
1237 259
1238 267
1239 12
1240 68
1241 275
1242 186
1243 96
1244 154
1245 57
1246 326
1247 182
1248 122
1249 280
1250 311
1251 50
1252 135
1253 95
1254 125
1255 108
1256 214
1257 243
1258 83
1259 327
1260 102
1261 15
1262 119
1263 243
1264 47
1265 138
1266 176
1267 25
1268 266
1269 26
1270 121
1271 97
1272 86
1273 275
1274 42
1275 326
1276 92
1277 311
1278 328
1279 297
1280 202
1281 118
1282 82
1283 260
1284 8
1285 55
1286 122
1287 26
1288 57
1289 25
1290 281
1291 149
1292 52
1293 238
1294 225
1295 116
1296 110
1297 83
1298 318
1299 131
1300 329
1301 87
1302 85
1303 2
1304 108
1305 309
1306 40
1307 182
1308 12
1309 22
1310 53
1311 20
1312 229
1313 194
1314 73
1315 104
1316 255
1317 12
1318 68
1319 74
1320 54
1321 151
1322 200
1323 269
1324 118
1325 45
1326 330
1327 24
1328 179
1329 157
1330 331
1331 279
1332 142
1333 43
1334 200
1335 171
1336 143
1337 282
1338 173
1339 306
1340 234
1341 214
1342 298
1343 162
1344 270
1345 128
1346 118
1347 214
1348 132
1349 186
1350 196
1351 44
1352 2
1353 99
1354 68
1355 147
1356 43
1357 332
1358 35
1359 239
1360 104
1361 104
1362 12
1363 154
1364 297
1365 260
1366 138
1367 45
1368 94
1369 45
1370 221
1371 130
1372 54
1373 326
1374 140
1375 222
1376 82
1377 221
1378 301
1379 25
1380 242
1381 305
1382 151
1383 26
1384 9
1385 298
1386 138
1387 180
1388 297
1389 290
1390 183
1391 254
1392 40
1393 118
1394 63
1395 155
1396 54
1397 301
1398 54
1399 12
1400 157
1401 155
1402 331
1403 35
1404 49
1405 162
1406 168
1407 318
1408 12
1409 130
1410 116
1411 300
1412 225
1413 294
1414 139
1415 109
1416 158
1417 280
1418 159
1419 216
1420 68
1421 129
1422 218
1423 120
1424 305
1425 35
1426 95
1427 154
1428 120
1429 117
1430 9
1431 136
1432 83
1433 243
1434 159
1435 290
1436 116
1437 136
1438 44
1439 120
1440 271
1441 13
1442 207
1443 242
1444 214
1445 260
1446 237
1447 139
1448 198
1449 26
1450 290
1451 215
1452 137
1453 83
1454 12
1455 66
1456 302
1457 125
1458 44
1459 281
1460 186
1461 132
1462 45
1463 333
1464 267
1465 222
1466 67
1467 158
1468 291
1469 36
1470 283
1471 168
1472 236
1473 96
1474 117
1475 313
1476 274
1477 183
1478 196
1479 275
1480 92
1481 146
1482 22
1483 254
1484 118
1485 12
1486 285
1487 310
1488 158
1489 311
1490 14
1491 290
1492 178
1493 212
1494 94
1495 21
1496 242
1497 241
1498 334
1499 59
1500 25
1501 68
1502 290
1503 126
1504 41
1505 10
1506 9
1507 312
1508 122
1509 169
1510 223
1511 21
1512 43
1513 83
1514 135
1515 99
1516 118
1517 156
1518 155
1519 120
1520 45
1521 185
1522 12
1523 307
1524 238
1525 83
1526 41
1527 41
1528 21
1529 131
1530 64
1531 180
1532 94
1533 143
1534 207
1535 229
1536 285
1537 327
1538 23
1539 254
1540 140
1541 9
1542 288
1543 194
1544 166
1545 238
1546 224
1547 162
1548 174
1549 41
1550 7
1551 88
1552 9
1553 320
1554 82
1555 7
1556 22
1557 191
1558 120
1559 167
1560 83
1561 269
1562 157
1563 45
1564 308
1565 242
1566 190
1567 26
1568 67
1569 260
1570 176
1571 100
1572 176
1573 249
1574 104
1575 216
1576 149
1577 26
1578 238
1579 181
1580 73
1581 293
1582 26
1583 35
1584 122
1585 135
1586 335
1587 174
1588 69
1589 292
1590 30
1591 207
1592 63
1593 217
1594 189
1595 37
1596 106
1597 9
1598 109
1599 290
1600 231
1601 143
1602 173
1603 178
1604 326
1605 305
1606 89
1607 284
1608 82
1609 238
1610 107
1611 12
1612 12
1613 140
1614 263
1615 107
1616 142
1617 82
1618 153
1619 243
1620 233
1621 109
1622 277
1623 242
1624 28
1625 30
1626 26
1627 13
1628 14
1629 50
1630 22
1631 80
1632 83
1633 207
1634 307
1635 320
1636 18
1637 249
1638 236
1639 278
1640 100
1641 35
1642 291
1643 238
1644 238
1645 326
1646 80
1647 206
1648 326
1649 207
1650 7
1651 247
1652 251
1653 185
1654 60
1655 88
1656 26
1657 59
1658 222
1659 323
1660 73
1661 77
1662 80
1663 251
1664 155
1665 138
1666 110
1667 26
1668 89
1669 139
1670 9
1671 101
1672 326
1673 21
1674 180
1675 184
1676 119
1677 195
1678 288
1679 25
1680 210
1681 209
1682 150
1683 281
1684 241
1685 169
1686 19
1687 217
1688 199
1689 133
1690 233
1691 263
1692 142
1693 26
1694 320
1695 121
1696 82
1697 254
1698 68
1699 133
1700 174
1701 304
1702 94
1703 192
1704 53
1705 19
1706 301
1707 220
1708 173
1709 44
1710 132
1711 0
1712 276
1713 179
1714 2
1715 159
1716 95
1717 2
1718 143
1719 45
1720 46
1721 265
1722 130
1723 235
1724 292
1725 82
1726 216
1727 136
1728 267
1729 122
1730 24
1731 110
1732 18
1733 80
1734 162
1735 131
1736 292
1737 278
1738 45
1739 31
1740 85
1741 229
1742 160
1743 332
1744 194
1745 30
1746 24
1747 220
1748 257
1749 205
1750 247
1751 54
1752 67
1753 43
1754 179
1755 313
1756 259
1757 138
1758 118
1759 116
1760 220
1761 95
1762 38
1763 185
1764 74
1765 98
1766 21
1767 241
1768 278
1769 231
1770 45
1771 67
1772 191
1773 12
1774 293
1775 12
1776 228
1777 334
1778 216
1779 336
1780 54
1781 123
1782 108
1783 212
1784 67
1785 175
1786 138
1787 77
1788 246
1789 163
1790 9
1791 170
1792 263
1793 9
1794 21
1795 48
1796 94
1797 91
1798 10
1799 120
1800 60
1801 52
1802 230
1803 100
1804 104
1805 43
1806 255
1807 194
1808 90
1809 95
1810 135
1811 71
1812 95
1813 259
1814 165
1815 164
1816 9
1817 72
1818 249
1819 102
1820 337
1821 273
1822 301
1823 296
1824 233
1825 164
1826 10
1827 170
1828 63
1829 26
1830 59
1831 116
1832 308
1833 82
1834 10
1835 122
1836 277
1837 173
1838 168
1839 333
1840 82
1841 307
1842 106
1843 285
1844 56
1845 176
1846 159
1847 23
1848 281
1849 146
1850 229
1851 291
1852 14
1853 206
1854 10
1855 18
1856 130
1857 284
1858 241
1859 331
1860 14
1861 294
1862 276
1863 267
1864 282
1865 22
1866 156
1867 168
1868 25
1869 8
1870 270
1871 25
1872 183
1873 220
1874 175
1875 160
1876 163
1877 45
1878 338
1879 62
1880 79
1881 104
1882 144
1883 263
1884 263
1885 140
1886 275
1887 26
1888 79
1889 104
1890 34
1891 79
1892 54
1893 96
1894 172
1895 208
1896 25
1897 122
1898 117
1899 52
1900 278
1901 291
1902 172
1903 139
1904 25
1905 12
1906 101
1907 284
1908 291
1909 34
1910 275
1911 291
1912 180
1913 137
1914 26
1915 65
1916 214
1917 72
1918 77
1919 153
1920 216
1921 45
1922 230
1923 20
1924 162
1925 168
1926 1
1927 118
1928 159
1929 21
1930 128
1931 148
1932 41
1933 244
1934 21
1935 62
1936 45
1937 267
1938 72
1939 106
1940 14
1941 150
1942 54
1943 116
1944 232
1945 168
1946 312
1947 107
1948 187
1949 253
1950 247
1951 32
1952 12
1953 67
1954 50
1955 130
1956 259
1957 83
1958 261
1959 339
1960 308
1961 191
1962 155
1963 82
1964 116
1965 136
1966 191
1967 163
1968 325
1969 65
1970 85
1971 1
1972 110
1973 112
1974 334
1975 74
1976 147
1977 20
1978 135
1979 277
1980 187
1981 1
1982 37
1983 160
1984 148
1985 184
1986 222
1987 94
1988 284
1989 293
1990 216
1991 297
1992 131
1993 91
1994 45
1995 128
1996 80
1997 139
1998 284
1999 299
2000 20
2001 59
2002 68
2003 311
2004 89
2005 143
2006 126
2007 155
2008 26
2009 171
2010 147
2011 297
2012 311
2013 232
2014 143
2015 106
2016 136
2017 230
2018 191
2019 52
2020 120
2021 297
2022 12
2023 59
2024 45
2025 239
2026 261
2027 222
2028 164
2029 217
2030 89
2031 41
2032 172
2033 68
2034 72
2035 126
2036 173
2037 175
2038 308
2039 12
2040 210
2041 243
2042 238
2043 44
2044 18
2045 77
2046 162
2047 160
2048 44
2049 289
2050 267
2051 247
2052 214
2053 318
2054 89
2055 85
2056 26
2057 135
2058 334
2059 8
2060 77
2061 281
2062 186
2063 138
2064 230
2065 189
2066 104
2067 291
2068 335
2069 94
2070 225
2071 25
2072 230
2073 247
2074 292
2075 101
2076 340
2077 173
2078 71
2079 265
2080 238
2081 118
2082 40
2083 186
2084 199
2085 153
2086 78
2087 53
2088 89
2089 150
2090 31
2091 104
2092 151
2093 2
2094 241
2095 45
2096 19
2097 238
2098 206
2099 143
2100 135
2101 106
2102 176
2103 40
2104 211
2105 72
2106 25
2107 89
2108 127
2109 332
2110 211
2111 205
2112 47
2113 131
2114 238
2115 161
2116 183
2117 318
2118 36
2119 149
2120 26
2121 271
2122 226
2123 161
2124 72
2125 45
2126 47
2127 45
2128 12
2129 327
2130 216
2131 284
2132 151
2133 36
2134 303
2135 287
2136 150
2137 321
2138 14
2139 154
2140 131
2141 53
2142 164
2143 72
2144 259
2145 120
2146 62
2147 155
2148 145
2149 33
2150 179
2151 240
2152 166
2153 175
2154 122
2155 154
2156 111
2157 239
2158 161
2159 200
2160 31
2161 20
2162 189
2163 191
2164 311
2165 210
2166 50
2167 84
2168 73
2169 140
2170 218
2171 85
2172 53
2173 63
2174 334
2175 12
2176 46
2177 5
2178 89
2179 93
2180 44
2181 144
2182 300
2183 341
2184 189
2185 230
2186 31
2187 60
2188 144
2189 173
2190 77
2191 60
2192 6
2193 174
2194 149
2195 192
2196 1
2197 205
2198 23
2199 45
2200 50
2201 101
2202 46
2203 340
2204 271
2205 159
2206 265
2207 291
2208 246
2209 321
2210 20
2211 22
2212 247
2213 255
2214 267
2215 51
2216 106
2217 54
2218 322
2219 7
2220 130
2221 110
2222 53
2223 155
2224 247
2225 184
2226 39
2227 69
2228 7
2229 299
2230 61
2231 261
2232 77
2233 40
2234 335
2235 72
2236 159
2237 293
2238 154
2239 170
2240 184
2241 132
2242 331
2243 167
2244 9
2245 154
2246 311
2247 108
2248 128
2249 271
2250 192
2251 74
2252 12
2253 153
2254 108
2255 162
2256 279
2257 72
2258 45
2259 40
2260 211
2261 291
2262 229
2263 155
2264 97
2265 171
2266 261
2267 120
2268 220
2269 259
2270 308
2271 116
2272 80
2273 249
2274 136
2275 202
2276 73
2277 50
2278 71
2279 155
2280 202
2281 21
2282 189
2283 332
2284 279
2285 149
2286 321
2287 104
2288 62
2289 67
2290 22
2291 328
2292 287
2293 212
2294 3
2295 96
2296 96
2297 236
2298 161
2299 12
2300 62
2301 191
2302 334
2303 0
2304 69
2305 301
2306 291
2307 23
2308 311
2309 220
2310 311
2311 261
2312 269
2313 72
2314 109
2315 89
2316 274
2317 72
2318 168
2319 172
2320 120
2321 189
2322 180
2323 163
2324 63
2325 222
2326 78
2327 87
2328 24
2329 155
2330 14
2331 74
2332 138
2333 323
2334 43
2335 154
2336 135
2337 325
2338 338
2339 220
2340 7
2341 269
2342 159
2343 111
2344 155
2345 223
2346 21
2347 197
2348 260
2349 73
2350 26
2351 336
2352 155
2353 342
2354 216
2355 9
2356 236
2357 117
2358 231
2359 202
2360 31
2361 256
2362 314
2363 50
2364 180
2365 220
2366 233
2367 233
2368 290
2369 71
2370 223
2371 216
2372 155
2373 233
2374 44
2375 178
2376 162
2377 62
2378 12
2379 200
2380 32
2381 260
2382 328
2383 45
2384 25
2385 89
2386 165
2387 94
2388 100
2389 109
2390 302
2391 148
2392 31
2393 203
2394 68
2395 201
2396 45
2397 146
2398 222
2399 335
2400 82
2401 9
2402 331
2403 12
2404 68
2405 220
2406 216
2407 47
2408 45
2409 17
2410 333
2411 30
2412 172
2413 312
2414 62
2415 62
2416 26
2417 238
2418 189
2419 230
2420 42
2421 304
2422 66
2423 192
2424 70
2425 150
2426 284
2427 303
2428 69
2429 328
2430 198
2431 54
2432 120
2433 143
2434 72
2435 279
2436 68
2437 195
2438 222
2439 242
2440 117
2441 173
2442 130
2443 126
2444 107
2445 142
2446 78
2447 139
2448 282
2449 299
2450 32
2451 331
2452 123
2453 96
2454 114
2455 32
2456 222
2457 263
2458 97
2459 69
2460 261
2461 89
2462 36
2463 159
2464 1
2465 265
2466 207
2467 340
2468 82
2469 146
2470 180
2471 86
2472 23
2473 166
2474 154
2475 216
2476 159
2477 175
2478 146
2479 77
2480 260
2481 120
2482 66
2483 277
2484 61
2485 132
2486 258
2487 146
2488 229
2489 249
2490 222
2491 13
2492 79
2493 163
2494 220
2495 307
2496 8
2497 248
2498 154
2499 100
2500 4
2501 111
2502 25
2503 199
2504 242
2505 247
2506 45
2507 225
2508 159
2509 249
2510 143
2511 277
2512 61
2513 12
2514 108
2515 220
2516 48
2517 316
2518 25
2519 104
2520 18
2521 267
2522 315
2523 44
2524 62
2525 42
2526 96
2527 97
2528 126
2529 30
2530 119
2531 155
2532 66
2533 215
2534 13
2535 131
2536 85
2537 66
2538 143
2539 189
2540 217
2541 191
2542 12
2543 62
2544 230
2545 242
2546 69
2547 173
2548 308
2549 30
2550 158
2551 292
2552 131
2553 176
2554 251
2555 221
2556 72
2557 8
2558 133
2559 106
2560 292
2561 50
2562 122
2563 13
2564 330
2565 255
2566 43
2567 168
2568 69
2569 274
2570 42
2571 343
2572 30
2573 77
2574 151
2575 242
2576 159
2577 104
2578 272
2579 116
2580 99
2581 3
2582 247
2583 227
2584 47
2585 9
2586 154
2587 50
2588 287
2589 287
2590 73
2591 44
2592 31
2593 143
2594 218
2595 155
2596 243
2597 246
2598 63
2599 21
2600 155
2601 43
2602 190
2603 182
2604 58
2605 316
2606 124
2607 50
2608 106
2609 278
2610 85
2611 211
2612 36
2613 60
2614 26
2615 298
2616 71
2617 234
2618 17
2619 227
2620 26
2621 37
2622 105
2623 9
2624 181
2625 82
2626 26
2627 252
2628 9
2629 150
2630 12
2631 21
2632 62
2633 48
2634 10
2635 166
2636 282
2637 26
2638 302
2639 159
2640 11
2641 139
2642 61
2643 21
2644 105
2645 122
2646 157
2647 184
2648 260
2649 131
2650 275
2651 183
2652 271
2653 269
2654 142
2655 168
2656 287
2657 267
2658 216
2659 314
2660 230
2661 87
2662 193
2663 274
2664 268
2665 45
2666 158
2667 263
2668 166
2669 335
2670 295
2671 193
2672 9
2673 21
2674 163
2675 83
2676 12
2677 32
2678 25
2679 89
2680 308
2681 258
2682 9
2683 21
2684 153
2685 293
2686 26
2687 261
2688 52
2689 26
2690 207
2691 151
2692 227
2693 332
2694 2
2695 263
2696 263
2697 281
2698 179
2699 48
2700 142
2701 331
2702 293
2703 247
2704 54
2705 23
2706 253
2707 114
2708 283
2709 53
2710 269
2711 171
2712 53
2713 300
2714 261
2715 128
2716 193
2717 230
2718 291
2719 217
2720 221
2721 31
2722 72
2723 97
2724 96
2725 150
2726 22
2727 197
2728 233
2729 261
2730 162
2731 147
2732 95
2733 41
2734 149
2735 269
2736 269
2737 229
2738 18
2739 95
2740 43
2741 298
2742 168
2743 226
2744 66
2745 321
2746 156
2747 97
2748 52
2749 42
2750 155
2751 68
2752 72
2753 113
2754 151
2755 42
2756 255
2757 159
2758 131
2759 293
2760 18
2761 77
2762 162
2763 255
2764 12
2765 79
2766 292
2767 137
2768 238
2769 27
2770 153
2771 137
2772 185
2773 162
2774 52
2775 26
2776 93
2777 195
2778 81
2779 44
2780 86
2781 197
2782 144
2783 101
2784 131
2785 46
2786 183
2787 7
2788 243
2789 26
2790 205
2791 133
2792 313
2793 69
2794 81
2795 96
2796 2
2797 22
2798 26
2799 273
2800 192
2801 229
2802 36
2803 92
2804 141
2805 115
2806 287
2807 244
2808 74
2809 60
2810 147
2811 59
2812 45
2813 89
2814 284
2815 292
2816 185
2817 153
2818 74
2819 141
2820 294
2821 189
2822 64
2823 136
2824 189
2825 293
2826 8
2827 319
2828 243
2829 12
2830 20
2831 113
2832 84
2833 137
2834 51
2835 77
2836 144
2837 222
2838 20
2839 276
2840 148
2841 243
2842 156
2843 261
2844 267
2845 275
2846 95
2847 167
2848 269
2849 287
2850 189
2851 26
2852 21
2853 247
2854 130
2855 155
2856 77
2857 306
2858 20
2859 193
2860 301
2861 311
2862 54
2863 205
2864 104
2865 81
2866 242
2867 62
2868 172
2869 292
2870 226
2871 261
2872 21
2873 190
2874 62
2875 136
2876 45
2877 63
2878 72
2879 243
2880 93
2881 114
2882 167
2883 27
2884 328
2885 229
2886 224
2887 180
2888 37
2889 80
2890 21
2891 38
2892 178
2893 131
2894 115
2895 273
2896 273
2897 229
2898 191
2899 303
2900 306
2901 52
2902 32
2903 186
2904 227
2905 12
2906 227
2907 104
2908 256
2909 164
2910 107
2911 99
2912 282
2913 274
2914 38
2915 82
2916 294
2917 150
2918 77
2919 14
2920 34
2921 188
2922 143
2923 132
2924 326
2925 20
2926 149
2927 192
2928 288
2929 37
2930 81
2931 25
2932 104
2933 26
2934 173
2935 259
2936 85
2937 176
2938 52
2939 300
2940 32
2941 100
2942 131
2943 236
2944 159
2945 185
2946 267
2947 135
2948 88
2949 271
2950 203
2951 211
2952 66
2953 104
2954 210
2955 222
2956 101
2957 139
2958 210
2959 274
2960 343
2961 255
2962 237
2963 81
2964 324
2965 119
2966 271
2967 261
2968 95
2969 210
2970 225
2971 199
2972 52
2973 89
2974 293
2975 198
2976 131
2977 168
2978 12
2979 20
2980 44
2981 186
2982 97
2983 33
2984 96
2985 104
2986 220
2987 244
2988 89
2989 211
2990 35
2991 341
2992 85
2993 275
2994 62
2995 112
2996 26
2997 160
2998 123
2999 314
3000 267
3001 197
3002 32
3003 243
3004 303
3005 173
3006 94
3007 97
3008 158
3009 151
3010 105
3011 69
3012 172
3013 13
3014 184
3015 247
3016 223
3017 19
3018 106
3019 247
3020 217
3021 143
3022 45
3023 130
3024 38
3025 77
3026 242
3027 220
3028 287
3029 233
3030 99
3031 180
3032 242
3033 6
3034 216
3035 94
3036 54
3037 101
3038 173
3039 96
3040 175
3041 76
3042 41
3043 219
3044 260
3045 140
3046 26
3047 248
3048 120
3049 70
3050 320
3051 227
3052 1
3053 26
3054 218
3055 151
3056 213
3057 45
3058 293
3059 9
3060 62
3061 298
3062 182
3063 95
3064 116
3065 100
3066 45
3067 243
3068 131
3069 2
3070 136
3071 26
3072 303
3073 243
3074 77
3075 170
3076 231
3077 2
3078 26
3079 160
3080 255
3081 146
3082 160
3083 12
3084 252
3085 290
3086 50
3087 12
3088 119
3089 179
3090 247
3091 97
3092 301
3093 294
3094 112
3095 118
3096 26
3097 26
3098 54
3099 26
3100 318
3101 89
3102 18
3103 290
3104 242
3105 88
3106 263
3107 122
3108 16
3109 16
3110 101
3111 128
3112 110
3113 329
3114 3
3115 311
3116 242
3117 242
3118 109
3119 20
3120 107
3121 104
3122 73
3123 45
3124 123
3125 182
3126 223
3127 13
3128 32
3129 26
3130 275
3131 159
3132 89
3133 87
3134 137
3135 281
3136 146
3137 290
3138 21
3139 16
3140 292
3141 269
3142 174
3143 128
3144 247
3145 164
3146 55
3147 238
3148 159
3149 214
3150 178
3151 102
3152 284
3153 12
3154 148
3155 180
3156 97
3157 89
3158 143
3159 106
3160 177
3161 122
3162 116
3163 303
3164 20
3165 88
3166 312
3167 166
3168 109
3169 80
3170 37
3171 80
3172 108
3173 144
3174 290
3175 297
3176 141
3177 26
3178 95
3179 88
3180 54
3181 199
3182 12
3183 325
3184 82
3185 82
3186 242
3187 169
3188 151
3189 26
3190 59
3191 122
3192 14
3193 169
3194 77
3195 59
3196 220
3197 273
3198 108
3199 271
3200 106
3201 74
3202 211
3203 174
3204 153
3205 137
3206 238
3207 273
3208 25
3209 200
3210 138
3211 311
3212 255
3213 267
3214 43
3215 184
3216 198
3217 136
3218 168
3219 68
3220 281
3221 122
3222 179
3223 301
3224 174
3225 244
3226 223
3227 261
3228 244
3229 45
3230 30
3231 284
3232 118
3233 186
3234 21
3235 45
3236 184
3237 40
3238 159
3239 236
3240 298
3241 45
3242 14
3243 33
3244 182
3245 242
3246 68
3247 158
3248 298
3249 138
3250 312
3251 35
3252 25
3253 275
3254 316
3255 26
3256 298
3257 229
3258 217
3259 214
3260 306
3261 208
3262 235
3263 93
3264 308
3265 157
3266 121
3267 229
3268 55
3269 195
3270 159
3271 130
3272 309
3273 164
3274 26
3275 273
3276 203
3277 89
3278 110
3279 273
3280 39
3281 104
3282 269
3283 21
3284 118
3285 12
3286 216
3287 159
3288 242
3289 95
3290 97
3291 22
3292 214
3293 12
3294 296
3295 97
3296 194
3297 162
3298 202
3299 122
3300 77
3301 159
3302 340
3303 26
3304 215
3305 77
3306 272
3307 110
3308 47
3309 73
3310 110
3311 14
3312 200
3313 168
3314 62
3315 205
3316 273
3317 125
3318 229
3319 20
3320 26
3321 137
3322 22
3323 120
3324 22
3325 136
3326 30
3327 135
3328 43
3329 93
3330 42
3331 139
3332 154
3333 82
3334 40
3335 9
3336 41
3337 55
3338 22
3339 51
3340 300
3341 136
3342 35
3343 171
3344 104
3345 243
3346 227
3347 138
3348 101
3349 72
3350 210
3351 52
3352 19
3353 256
3354 229
3355 44
3356 225
3357 61
3358 314
3359 68
3360 73
3361 93
3362 43
3363 67
3364 50
3365 126
3366 136
3367 273
3368 42
3369 176
3370 136
3371 220
3372 275
3373 24
3374 206
3375 171
3376 262
3377 80
3378 90
3379 151
3380 96
3381 122
3382 26
3383 214
3384 90
3385 54
3386 236
3387 53
3388 160
3389 153
3390 159
3391 51
3392 305
3393 30
3394 255
3395 110
3396 26
3397 308
3398 21
3399 54
3400 77
3401 96
3402 7
3403 251
3404 81
3405 59
3406 199
3407 293
3408 247
3409 311
3410 250
3411 52
3412 135
3413 219
3414 230
3415 110
3416 95
3417 104
3418 143
3419 34
3420 54
3421 142
3422 45
3423 116
3424 287
3425 54
3426 44
3427 53
3428 104
3429 138
3430 138
3431 330
3432 288
3433 22
3434 159
3435 54
3436 118
3437 282
3438 180
3439 255
3440 54
3441 47
3442 144
3443 107
3444 274
3445 107
3446 168
3447 37
3448 28
3449 116
3450 45
3451 151
3452 43
3453 92
3454 229
3455 48
3456 222
3457 171
3458 116
3459 45
3460 107
3461 92
3462 282
3463 25
3464 18
3465 189
3466 24
3467 222
3468 267
3469 14
3470 291
3471 260
3472 172
3473 51
3474 186
3475 301
3476 265
3477 63
3478 32
3479 107
3480 120
3481 160
3482 120
3483 25
3484 216
3485 3
3486 274
3487 120
3488 119
3489 120
3490 334
3491 132
3492 305
3493 15
3494 132
3495 213
3496 267
3497 177
3498 256
3499 166
3500 326
3501 20
3502 123
3503 183
3504 344
3505 142
3506 153
3507 247
3508 159
3509 115
3510 86
3511 294
3512 7
3513 26
3514 67
3515 26
3516 179
3517 345
3518 291
3519 301
3520 143
3521 282
3522 21
3523 142
3524 15
3525 54
3526 312
3527 298
3528 174
3529 35
3530 207
3531 160
3532 326
3533 229
3534 14
3535 95
3536 30
3537 78
3538 247
3539 309
3540 171
3541 229
3542 21
3543 53
3544 68
3545 290
3546 340
3547 216
3548 229
3549 59
3550 123
3551 27
3552 261
3553 269
3554 194
3555 79
3556 218
3557 105
3558 290
3559 254
3560 321
3561 343
3562 95
3563 26
3564 116
3565 135
3566 203
3567 220
3568 222
3569 128
3570 326
3571 36
3572 113
3573 21
3574 131
3575 82
3576 301
3577 199
3578 54
3579 89
3580 9
3581 278
3582 17
3583 16
3584 227
3585 85
3586 45
3587 128
3588 138
3589 126
3590 169
3591 213
3592 35
3593 29
3594 216
3595 15
3596 8
3597 26
3598 278
3599 62
3600 123
3601 267
3602 238
3603 159
3604 28
3605 69
3606 5
3607 139
3608 254
3609 129
3610 229
3611 26
3612 277
3613 45
3614 143
3615 290
3616 108
3617 247
3618 285
3619 295
3620 38
3621 138
3622 271
3623 262
3624 79
3625 12
3626 43
3627 325
3628 73
3629 29
3630 8
3631 79
3632 54
3633 128
3634 224
3635 200
3636 120
3637 226
3638 242
3639 84
3640 160
3641 54
3642 14
3643 251
3644 207
3645 60
3646 31
3647 254
3648 31
3649 37
3650 118
3651 290
3652 25
3653 311
3654 252
3655 138
3656 202
3657 242
3658 174
3659 12
3660 180
3661 143
3662 115
3663 137
3664 11
3665 27
3666 233
3667 206
3668 80
3669 174
3670 261
3671 42
3672 44
3673 88
3674 272
3675 102
3676 38
3677 314
3678 281
3679 96
3680 273
3681 106
3682 31
3683 97
3684 66
3685 220
3686 334
3687 179
3688 173
3689 50
3690 89
3691 274
3692 153
3693 9
3694 274
3695 35
3696 230
3697 234
3698 97
3699 156
3700 161
3701 94
3702 282
3703 259
3704 302
3705 112
3706 216
3707 186
3708 290
3709 180
3710 26
3711 326
3712 111
3713 334
3714 9
3715 301
3716 259
3717 122
3718 26
3719 26
3720 102
3721 132
3722 45
3723 171
3724 286
3725 304
3726 286
3727 26
3728 142
3729 25
3730 156
3731 169
3732 97
3733 81
3734 126
3735 333
3736 233
3737 142
3738 197
3739 79
3740 80
3741 267
3742 43
3743 186
3744 183
3745 159
3746 191
3747 107
3748 47
3749 215
3750 67
3751 43
3752 238
3753 282
3754 301
3755 159
3756 11
3757 59
3758 238
3759 313
3760 67
3761 327
3762 170
3763 226
3764 77
3765 226
3766 162
3767 230
3768 229
3769 275
3770 62
3771 136
3772 260
3773 275
3774 107
3775 121
3776 146
3777 71
3778 325
3779 155
3780 275
3781 331
3782 156
3783 11
3784 33
3785 21
3786 96
3787 184
3788 30
3789 21
3790 343
3791 12
3792 22
3793 105
3794 107
3795 191
3796 122
3797 260
3798 175
3799 220
3800 191
3801 142
3802 198
3803 53
3804 74
3805 291
3806 301
3807 311
3808 12
3809 71
3810 294
3811 233
3812 144
3813 152
3814 54
3815 197
3816 31
3817 176
3818 88
3819 238
3820 105
3821 61
3822 59
3823 131
3824 255
3825 53
3826 12
3827 9
3828 308
3829 162
3830 131
3831 255
3832 105
3833 159
3834 132
3835 110
3836 97
3837 22
3838 100
3839 18
3840 238
3841 14
3842 26
3843 216
3844 255
3845 46
3846 59
3847 241
3848 222
3849 80
3850 62
3851 311
3852 9
3853 77
3854 52
3855 28
3856 67
3857 12
3858 143
3859 8
3860 227
3861 162
3862 62
3863 104
3864 136
3865 26
3866 52
3867 191
3868 334
3869 36
3870 69
3871 111
3872 298
3873 51
3874 77
3875 67
3876 127
3877 44
3878 190
3879 148
3880 236
3881 97
3882 7
3883 26
3884 271
3885 25
3886 298
3887 120
3888 111
3889 74
3890 12
3891 120
3892 24
3893 259
3894 220
3895 45
3896 26
3897 104
3898 143
3899 123
3900 334
3901 120
3902 53
3903 333
3904 80
3905 22
3906 318
3907 156
3908 243
3909 82
3910 192
3911 296
3912 18
3913 71
3914 343
3915 229
3916 197
3917 175
3918 59
3919 128
3920 45
3921 30
3922 72
3923 250
3924 326
3925 242
3926 12
3927 45
3928 239
3929 194
3930 261
3931 130
3932 96
3933 282
3934 293
3935 52
3936 191
3937 162
3938 26
3939 176
3940 174
3941 26
3942 53
3943 316
3944 297
3945 12
3946 209
3947 52
3948 191
3949 299
3950 146
3951 291
3952 267
3953 169
3954 205
3955 85
3956 82
3957 245
3958 2
3959 243
3960 136
3961 210
3962 168
3963 160
3964 243
3965 230
3966 49
3967 173
3968 34
3969 54
3970 93
3971 290
3972 135
3973 162
3974 21
3975 168
3976 305
3977 155
3978 328
3979 272
3980 80
3981 20
3982 31
3983 45
3984 45
3985 67
3986 180
3987 135
3988 94
3989 26
3990 50
3991 306
3992 175
3993 239
3994 21
3995 255
3996 139
3997 203
3998 243
3999 16
4000 200
4001 63
4002 170
4003 242
4004 271
4005 155
4006 206
4007 31
4008 132
4009 274
4010 130
4011 52
4012 343
4013 280
4014 107
4015 35
4016 52
4017 220
4018 122
4019 216
4020 8
4021 95
4022 211
4023 238
4024 79
4025 263
4026 222
4027 210
4028 291
4029 63
4030 116
4031 45
4032 176
4033 118
4034 95
4035 143
4036 27
4037 199
4038 159
4039 26
4040 45
4041 304
4042 311
4043 168
4044 9
4045 140
4046 176
4047 125
4048 85
4049 126
4050 101
4051 261
4052 62
4053 167
4054 163
4055 230
4056 53
4057 217
4058 247
4059 271
4060 210
4061 20
4062 234
4063 95
4064 123
4065 107
4066 299
4067 250
4068 59
4069 164
4070 294
4071 218
4072 198
4073 291
4074 41
4075 71
4076 301
4077 47
4078 233
4079 106
4080 43
4081 275
4082 136
4083 285
4084 107
4085 303
4086 191
4087 25
4088 326
4089 162
4090 67
4091 289
4092 130
4093 105
4094 72
4095 346
4096 128
4097 231
4098 221
4099 291
4100 25
4101 24
4102 320
4103 213
4104 138
4105 68
4106 12
4107 3
4108 223
4109 9
4110 37
4111 290
4112 72
4113 48
4114 187
4115 291
4116 306
4117 149
4118 232
4119 202
4120 143
4121 174
4122 275
4123 287
4124 308
4125 175
4126 226
4127 21
4128 178
4129 60
4130 155
4131 73
4132 96
4133 31
4134 312
4135 173
4136 300
4137 310
4138 217
4139 308
4140 47
4141 47
4142 293
4143 52
4144 119
4145 313
4146 3
4147 300
4148 158
4149 73
4150 79
4151 122
4152 100
4153 172
4154 129
4155 15
4156 26
4157 60
4158 61
4159 85
4160 291
4161 22
4162 199
4163 71
4164 139
4165 159
4166 95
4167 21
4168 31
4169 344
4170 291
4171 180
4172 146
4173 181
4174 162
4175 292
4176 71
4177 257
4178 249
4179 50
4180 104
4181 105
4182 73
4183 52
4184 159
4185 17
4186 93
4187 168
4188 265
4189 162
4190 50
4191 132
4192 7
4193 93
4194 182
4195 62
4196 116
4197 11
4198 26
4199 30
4200 337
4201 170
4202 77
4203 147
4204 9
4205 123
4206 9
4207 74
4208 12
4209 159
4210 308
4211 155
4212 12
4213 100
4214 45
4215 327
4216 9
4217 288
4218 133
4219 50
4220 328
4221 290
4222 9
4223 44
4224 259
4225 48
4226 103
4227 27
4228 287
4229 243
4230 286
4231 12
4232 95
4233 46
4234 121
4235 122
4236 36
4237 202
4238 97
4239 3
4240 243
4241 244
4242 100
4243 206
4244 346
4245 20
4246 278
4247 252
4248 166
4249 211
4250 271
4251 45
4252 17
4253 13
4254 7
4255 194
4256 37
4257 9
4258 222
4259 247
4260 79
4261 182
4262 142
4263 59
4264 21
4265 12
4266 105
4267 255
4268 39
4269 331
4270 136
4271 19
4272 284
4273 21
4274 135
4275 126
4276 45
4277 137
4278 191
4279 176
4280 31
4281 71
4282 244
4283 205
4284 96
4285 311
4286 259
4287 154
4288 140
4289 309
4290 120
4291 14
4292 137
4293 22
4294 249
4295 167
4296 287
4297 53
4298 169
4299 189
4300 130
4301 334
4302 136
4303 249
4304 83
4305 38
4306 184
4307 72
4308 9
4309 249
4310 168
4311 340
4312 186
4313 47
4314 291
4315 7
4316 136
4317 159
4318 20
4319 292
4320 341
4321 249
4322 135
4323 45
4324 261
4325 122
4326 306
4327 138
4328 166
4329 247
4330 74
4331 334
4332 130
4333 328
4334 38
4335 111
4336 243
4337 155
4338 331
4339 21
4340 17
4341 22
4342 22
4343 302
4344 142
4345 130
4346 112
4347 247
4348 194
4349 111
4350 16
4351 249
4352 289
4353 287
4354 79
4355 173
4356 249
4357 20
4358 21
4359 85
4360 191
4361 189
4362 259
4363 88
4364 53
4365 230
4366 261
4367 53
4368 12
4369 62
4370 319
4371 137
4372 106
4373 307
4374 198
4375 154
4376 335
4377 31
4378 5
4379 41
4380 94
4381 312
4382 303
4383 102
4384 104
4385 180
4386 307
4387 174
4388 229
4389 88
4390 154
4391 147
4392 325
4393 222
4394 62
4395 311
4396 191
4397 243
4398 157
4399 306
4400 13
4401 281
4402 106
4403 300
4404 299
4405 271
4406 15
4407 35
4408 144
4409 189
4410 162
4411 216
4412 26
4413 120
4414 81
4415 231
4416 191
4417 168
4418 15
4419 183
4420 260
4421 287
4422 13
4423 275
4424 173
4425 251
4426 278
4427 141
4428 104
4429 96
4430 36
4431 139
4432 61
4433 71
4434 149
4435 220
4436 192
4437 110
4438 129
4439 177
4440 72
4441 214
4442 50
4443 9
4444 80
4445 284
4446 273
4447 226
4448 233
4449 67
4450 312
4451 9
4452 118
4453 73
4454 293
4455 26
4456 25
4457 114
4458 237
4459 26
4460 159
4461 271
4462 23
4463 17
4464 144
4465 123
4466 9
4467 222
4468 73
4469 209
4470 261
4471 102
4472 96
4473 139
4474 189
4475 69
4476 318
4477 45
4478 83
4479 142
4480 216
4481 38
4482 40
4483 9
4484 153
4485 28
4486 135
4487 231
4488 1
4489 135
4490 186
4491 206
4492 106
4493 62
4494 176
4495 249
4496 21
4497 205
4498 171
4499 80
4500 189
4501 277
4502 97
4503 9
4504 226
4505 261
4506 104
4507 300
4508 292
4509 162
4510 64
4511 30
4512 70
4513 89
4514 85
4515 72
4516 247
4517 16
4518 117
4519 36
4520 132
4521 158
4522 119
4523 243
4524 323
4525 241
4526 31
4527 297
4528 18
4529 142
4530 183
4531 41
4532 122
4533 96
4534 26
4535 1
4536 92
4537 200
4538 262
4539 61
4540 132
4541 237
4542 143
4543 178
4544 83
4545 275
4546 105
4547 116
4548 155
4549 292
4550 176
4551 104
4552 136
4553 222
4554 22
4555 236
4556 77
4557 132
4558 54
4559 179
4560 21
4561 112
4562 9
4563 28
4564 106
4565 31
4566 251
4567 168
4568 173
4569 238
4570 242
4571 226
4572 9
4573 229
4574 9
4575 72
4576 219
4577 264
4578 88
4579 105
4580 82
4581 180
4582 222
4583 134
4584 200
4585 54
4586 173
4587 273
4588 223
4589 313
4590 149
4591 139
4592 71
4593 225
4594 199
4595 26
4596 12
4597 18
4598 322
4599 80
4600 155
4601 233
4602 50
4603 241
4604 303
4605 116
4606 96
4607 168
4608 69
4609 36
4610 181
4611 104
4612 287
4613 122
4614 45
4615 116
4616 122
4617 260
4618 72
4619 218
4620 312
4621 233
4622 90
4623 193
4624 307
4625 254
4626 69
4627 72
4628 80
4629 333
4630 130
4631 308
4632 113
4633 120
4634 140
4635 165
4636 176
4637 221
4638 173
4639 284
4640 251
4641 284
4642 48
4643 279
4644 139
4645 66
4646 9
4647 97
4648 116
4649 27
4650 23
4651 35
4652 309
4653 36
4654 275
4655 1
4656 96
4657 258
4658 137
4659 87
4660 163
4661 143
4662 237
4663 232
4664 25
4665 216
4666 159
4667 71
4668 12
4669 89
4670 264
4671 185
4672 243
4673 22
4674 63
4675 217
4676 297
4677 262
4678 143
4679 300
4680 53
4681 68
4682 82
4683 45
4684 39
4685 97
4686 324
4687 7
4688 9
4689 331
4690 227
4691 222
4692 284
4693 139
4694 27
4695 142
4696 218
4697 244
4698 30
4699 249
4700 298
4701 261
4702 238
4703 85
4704 267
4705 159
4706 206
4707 328
4708 80
4709 48
4710 242
4711 37
4712 104
4713 232
4714 247
4715 273
4716 16
4717 239
4718 124
4719 12
4720 282
4721 229
4722 216
4723 89
4724 180
4725 183
4726 49
4727 290
4728 69
4729 61
4730 299
4731 13
4732 162
4733 61
4734 25
4735 273
4736 242
4737 94
4738 298
4739 287
4740 52
4741 41
4742 216
4743 85
4744 327
4745 115
4746 287
4747 22
4748 146
4749 135
4750 189
4751 202
4752 201
4753 139
4754 242
4755 265
4756 286
4757 260
4758 137
4759 136
4760 313
4761 80
4762 212
4763 49
4764 77
4765 89
4766 131
4767 298
4768 313
4769 251
4770 26
4771 154
4772 346
4773 32
4774 130
4775 8
4776 14
4777 281
4778 59
4779 12
4780 12
4781 104
4782 140
4783 183
4784 247
4785 104
4786 25
4787 139
4788 146
4789 48
4790 242
4791 143
4792 173
4793 243
4794 85
4795 198
4796 210
4797 189
4798 118
4799 174
4800 233
4801 297
4802 297
4803 226
4804 96
4805 130
4806 96
4807 202
4808 298
4809 164
4810 132
4811 127
4812 212
4813 60
4814 42
4815 80
4816 305
4817 327
4818 44
4819 52
4820 66
4821 159
4822 116
4823 200
4824 45
4825 104
4826 96
4827 26
4828 149
4829 83
4830 216
4831 136
4832 271
4833 220
4834 96
4835 95
4836 287
4837 80
4838 9
4839 72
4840 175
4841 12
4842 85
4843 107
4844 297
4845 153
4846 85
4847 85
4848 287
4849 154
4850 302
4851 54
4852 144
4853 66
4854 54
4855 102
4856 156
4857 136
4858 47
4859 82
4860 184
4861 290
4862 20
4863 26
4864 92
4865 95
4866 132
4867 97
4868 74
4869 73
4870 287
4871 212
4872 305
4873 226
4874 239
4875 89
4876 290
4877 39
4878 273
4879 208
4880 343
4881 12
4882 168
4883 89
4884 116
4885 252
4886 242
4887 47
4888 297
4889 95
4890 28
4891 143
4892 292
4893 128
4894 107
4895 20
4896 238
4897 218
4898 298
4899 173
4900 82
4901 130
4902 93
4903 96
4904 229
4905 45
4906 101
4907 117
4908 25
4909 107
4910 40
4911 162
4912 179
4913 176
4914 216
4915 325
4916 9
4917 282
4918 26
4919 45
4920 111
4921 291
4922 106
4923 270
4924 156
4925 89
4926 242
4927 97
4928 169
4929 146
4930 71
4931 71
4932 238
4933 242
4934 291
4935 3
4936 114
4937 143
4938 21
4939 242
4940 252
4941 9
4942 131
4943 222
4944 107
4945 74
4946 148
4947 103
4948 151
4949 71
4950 54
4951 267
4952 220
4953 166
4954 25
4955 175
4956 294
4957 96
4958 261
4959 12
4960 148
4961 52
4962 82
4963 169
4964 7
4965 306
4966 260
4967 22
4968 131
4969 66
4970 306
4971 116
4972 129
4973 88
4974 97
4975 291
4976 261
4977 14
4978 77
4979 229
4980 82
4981 25
4982 89
4983 35
4984 52
4985 267
4986 26
4987 291
4988 275
4989 216
4990 172
4991 243
4992 28
4993 312
4994 199
4995 50
4996 287
4997 294
4998 173
4999 205
5000 287
5001 89
5002 234
5003 2
5004 25
5005 293
5006 9
5007 3
5008 129
5009 236
5010 313
5011 123
5012 48
5013 77
5014 1
5015 40
5016 54
5017 26
5018 274
5019 313
5020 275
5021 26
5022 9
5023 24
5024 175
5025 44
5026 101
5027 44
5028 89
5029 130
5030 80
5031 101
5032 82
5033 26
5034 162
5035 1
5036 155
5037 305
5038 211
5039 45
5040 26
5041 128
5042 336
5043 105
5044 271
5045 90
5046 105
5047 94
5048 97
5049 14
5050 260
5051 311
5052 179
5053 170
5054 94
5055 293
5056 173
5057 159
5058 229
5059 96
5060 138
5061 26
5062 54
5063 134
5064 38
5065 347
5066 273
5067 67
5068 273
5069 2
5070 298
5071 154
5072 229
5073 291
5074 312
5075 172
5076 26
5077 78
5078 30
5079 168
5080 271
5081 284
5082 301
5083 135
5084 182
5085 180
5086 143
5087 44
5088 67
5089 26
5090 12
5091 79
5092 275
5093 47
5094 318
5095 38
5096 116
5097 31
5098 275
5099 216
5100 312
5101 106
5102 133
5103 118
5104 148
5105 268
5106 132
5107 10
5108 172
5109 117
5110 112
5111 126
5112 162
5113 228
5114 197
5115 319
5116 267
5117 145
5118 322
5119 44
5120 97
5121 329
5122 159
5123 131
5124 255
5125 54
5126 313
5127 72
5128 25
5129 0
5130 278
5131 153
5132 121
5133 31
5134 21
5135 20
5136 72
5137 258
5138 311
5139 169
5140 289
5141 42
5142 7
5143 301
5144 256
5145 153
5146 1
5147 79
5148 180
5149 14
5150 273
5151 26
5152 311
5153 203
5154 150
5155 104
5156 122
5157 179
5158 162
5159 7
5160 148
5161 275
5162 285
5163 17
5164 143
5165 66
5166 160
5167 284
5168 14
5169 118
5170 26
5171 69
5172 74
5173 124
5174 102
5175 54
5176 255
5177 82
5178 101
5179 241
5180 257
5181 12
5182 26
5183 62
5184 318
5185 197
5186 184
5187 20
5188 22
5189 101
5190 282
5191 299
5192 71
5193 25
5194 90
5195 260
5196 107
5197 122
5198 207
5199 71
5200 326
5201 26
5202 173
5203 297
5204 83
5205 92
5206 330
5207 83
5208 26
5209 120
5210 148
5211 159
5212 45
5213 182
5214 61
5215 12
5216 206
5217 77
5218 49
5219 42
5220 77
5221 180
5222 40
5223 123
5224 259
5225 241
5226 220
5227 47
5228 131
5229 333
5230 67
5231 275
5232 122
5233 189
5234 229
5235 138
5236 25
5237 153
5238 179
5239 122
5240 290
5241 45
5242 259
5243 151
5244 49
5245 242
5246 81
5247 129
5248 298
5249 136
5250 89
5251 313
5252 92
5253 159
5254 129
5255 64
5256 166
5257 110
5258 110
5259 189
5260 14
5261 191
5262 220
5263 84
5264 279
5265 200
5266 141
5267 251
5268 260
5269 151
5270 287
5271 297
5272 66
5273 222
5274 242
5275 298
5276 281
5277 26
5278 140
5279 287
5280 184
5281 290
5282 242
5283 16
5284 309
5285 41
5286 22
5287 131
5288 21
5289 64
5290 279
5291 158
5292 191
5293 193
5294 26
5295 95
5296 59
5297 59
5298 30
5299 105
5300 305
5301 58
5302 191
5303 260
5304 200
5305 297
5306 334
5307 14
5308 30
5309 45
5310 180
5311 301
5312 82
5313 192
5314 54
5315 211
5316 279
5317 287
5318 249
5319 166
5320 47
5321 83
5322 269
5323 106
5324 331
5325 178
5326 71
5327 159
5328 186
5329 80
5330 242
5331 129
5332 294
5333 239
5334 180
5335 309
5336 333
5337 47
5338 116
5339 43
5340 130
5341 297
5342 12
5343 83
5344 120
5345 21
5346 131
5347 158
5348 298
5349 201
5350 282
5351 213
5352 157
5353 97
5354 249
5355 229
5356 294
5357 224
5358 247
5359 202
5360 45
5361 59
5362 21
5363 334
5364 83
5365 232
5366 290
5367 191
5368 138
5369 168
5370 18
5371 22
5372 26
5373 197
5374 236
5375 44
5376 26
5377 176
5378 9
5379 192
5380 119
5381 62
5382 52
5383 83
5384 295
5385 326
5386 301
5387 122
5388 179
5389 79
5390 331
5391 239
5392 122
5393 293
5394 311
5395 98
5396 30
5397 202
5398 158
5399 176
5400 334
5401 26
5402 136
5403 122
5404 78
5405 47
5406 176
5407 218
5408 301
5409 256
5410 120
5411 61
5412 180
5413 101
5414 267
5415 241
5416 108
5417 26
5418 340
5419 166
5420 68
5421 0
5422 166
5423 94
5424 171
5425 273
5426 147
5427 169
5428 52
5429 262
5430 123
5431 296
5432 122
5433 281
5434 135
5435 290
5436 26
5437 175
5438 302
5439 334
5440 176
5441 260
5442 35
5443 26
5444 61
5445 107
5446 138
5447 135
5448 173
5449 238
5450 32
5451 216
5452 159
5453 135
5454 30
5455 79
5456 333
5457 61
5458 138
5459 254
5460 275
5461 107
5462 180
5463 45
5464 247
5465 294
5466 318
5467 116
5468 122
5469 342
5470 249
5471 68
5472 247
5473 99
5474 33
5475 139
5476 318
5477 151
5478 139
5479 275
5480 173
5481 94
5482 26
5483 90
5484 143
5485 229
5486 204
5487 247
5488 235
5489 340
5490 231
5491 326
5492 30
5493 26
5494 136
5495 2
5496 173
5497 331
5498 166
5499 238
5500 140
5501 1
5502 287
5503 255
5504 158
5505 233
5506 223
5507 288
5508 202
5509 45
5510 222
5511 80
5512 138
5513 21
5514 244
5515 99
5516 104
5517 334
5518 172
5519 256
5520 104
5521 45
5522 179
5523 255
5524 178
5525 265
5526 62
5527 83
5528 292
5529 222
5530 254
5531 138
5532 303
5533 334
5534 116
5535 238
5536 101
5537 61
5538 260
5539 82
5540 48
5541 26
5542 54
5543 62
5544 342
5545 331
5546 118
5547 191
5548 264
5549 304
5550 159
5551 107
5552 216
5553 229
5554 66
5555 132
5556 334
5557 159
5558 73
5559 41
5560 40
5561 9
5562 318
5563 153
5564 52
5565 127
5566 151
5567 101
5568 26
5569 26
5570 189
5571 242
5572 192
5573 110
5574 275
5575 219
5576 336
5577 36
5578 35
5579 36
5580 334
5581 294
5582 274
5583 110
5584 31
5585 37
5586 281
5587 135
5588 198
5589 179
5590 204
5591 305
5592 131
5593 12
5594 203
5595 282
5596 275
5597 126
5598 261
5599 334
5600 116
5601 45
5602 277
5603 16
5604 308
5605 334
5606 292
5607 229
5608 68
5609 278
5610 208
5611 142
5612 47
5613 155
5614 214
5615 186
5616 318
5617 35
5618 68
5619 26
5620 200
5621 275
5622 279
5623 35
5624 222
5625 14
5626 120
5627 334
5628 159
5629 273
5630 40
5631 56
5632 262
5633 95
5634 300
5635 62
5636 191
5637 247
5638 267
5639 153
5640 35
5641 347
5642 250
5643 221
5644 118
5645 3
5646 77
5647 163
5648 19
5649 261
5650 143
5651 59
5652 146
5653 159
5654 45
5655 30
5656 50
5657 162
5658 25
5659 224
5660 63
5661 159
5662 62
5663 33
5664 118
5665 334
5666 116
5667 254
5668 143
5669 110
5670 14
5671 233
5672 45
5673 323
5674 44
5675 320
5676 31
5677 195
5678 15
5679 152
5680 21
5681 11
5682 135
5683 123
5684 271
5685 300
5686 47
5687 36
5688 1
5689 326
5690 220
5691 54
5692 89
5693 154
5694 294
5695 26
5696 79
5697 300
5698 331
5699 47
5700 332
5701 267
5702 233
5703 9
5704 138
5705 26
5706 44
5707 263
5708 230
5709 227
5710 230
5711 155
5712 285
5713 140
5714 298
5715 89
5716 94
5717 7
5718 169
5719 233
5720 170
5721 120
5722 208
5723 180
5724 190
5725 93
5726 117
5727 334
5728 80
5729 182
5730 49
5731 32
5732 47
5733 136
5734 221
5735 49
5736 267
5737 159
5738 123
5739 241
5740 104
5741 242
5742 112
5743 251
5744 298
5745 311
5746 62
5747 155
5748 12
5749 301
5750 163
5751 298
5752 44
5753 72
5754 92
5755 142
5756 26
5757 85
5758 83
5759 12
5760 128
5761 88
5762 120
5763 170
5764 53
5765 311
5766 321
5767 88
5768 85
5769 107
5770 326
5771 74
5772 150
5773 141
5774 277
5775 12
5776 292
5777 321
5778 97
5779 180
5780 301
5781 12
5782 9
5783 180
5784 61
5785 142
5786 129
5787 189
5788 298
5789 54
5790 286
5791 151
5792 24
5793 180
5794 319
5795 9
5796 142
5797 80
5798 38
5799 128
5800 12
5801 143
5802 121
5803 3
5804 44
5805 319
5806 326
5807 81
5808 50
5809 16
5810 293
5811 107
5812 47
5813 9
5814 62
5815 52
5816 59
5817 95
5818 216
5819 197
5820 261
5821 44
5822 263
5823 22
5824 292
5825 155
5826 22
5827 261
5828 25
5829 99
5830 36
5831 142
5832 226
5833 319
5834 331
5835 45
5836 107
5837 26
5838 165
5839 150
5840 177
5841 204
5842 134
5843 62
5844 164
5845 26
5846 176
5847 47
5848 54
5849 92
5850 72
5851 31
5852 53
5853 261
5854 226
5855 143
5856 139
5857 334
5858 24
5859 341
5860 135
5861 309
5862 237
5863 159
5864 12
5865 26
5866 136
5867 182
5868 21
5869 54
5870 159
5871 31
5872 36
5873 274
5874 315
5875 80
5876 93
5877 267
5878 178
5879 89
5880 116
5881 110
5882 266
5883 127
5884 21
5885 130
5886 1
5887 175
5888 335
5889 309
5890 22
5891 256
5892 141
5893 275
5894 100
5895 36
5896 136
5897 307
5898 61
5899 77
5900 261
5901 133
5902 226
5903 89
5904 122
5905 326
5906 197
5907 198
5908 192
5909 336
5910 100
5911 104
5912 233
5913 291
5914 8
5915 261
5916 37
5917 62
5918 11
5919 292
5920 32
5921 286
5922 77
5923 271
5924 131
5925 13
5926 26
5927 277
5928 26
5929 105
5930 128
5931 53
5932 118
5933 239
5934 136
5935 126
5936 47
5937 39
5938 21
5939 95
5940 335
5941 30
5942 196
5943 285
5944 101
5945 54
5946 82
5947 130
5948 43
5949 167
5950 111
5951 95
5952 243
5953 131
5954 230
5955 216
5956 22
5957 36
5958 216
5959 326
5960 35
5961 233
5962 60
5963 136
5964 296
5965 139
5966 79
5967 97
5968 50
5969 44
5970 136
5971 0
5972 22
5973 176
5974 95
5975 136
5976 160
5977 120
5978 105
5979 161
5980 162
5981 25
5982 255
5983 106
5984 26
5985 67
5986 122
5987 275
5988 290
5989 21
5990 292
5991 123
5992 164
5993 62
5994 238
5995 247
5996 27
5997 148
5998 74
5999 299
6000 50
6001 21
6002 45
6003 79
6004 312
6005 247
6006 26
6007 104
6008 95
6009 198
6010 80
6011 189
6012 155
6013 182
6014 168
6015 96
6016 14
6017 128
6018 26
6019 52
6020 36
6021 68
6022 297
6023 142
6024 110
6025 176
6026 212
6027 162
6028 26
6029 105
6030 129
6031 173
6032 62
6033 138
6034 18
6035 248
6036 80
6037 235
6038 44
6039 9
6040 58
6041 228
6042 30
6043 12
6044 293
6045 97
6046 80
6047 45
6048 123
6049 68
6050 120
6051 7
6052 63
6053 160
6054 210
6055 313
6056 82
6057 261
6058 71
6059 176
6060 143
6061 302
6062 159
6063 326
6064 126
6065 197
6066 242
6067 83
6068 311
6069 273
6070 26
6071 238
6072 214
6073 95
6074 195
6075 56
6076 30
6077 142
6078 239
6079 10
6080 319
6081 184
6082 169
6083 18
6084 292
6085 120
6086 205
6087 53
6088 342
6089 241
6090 12
6091 168
6092 40
6093 184
6094 312
6095 267
6096 136
6097 62
6098 287
6099 20
6100 291
6101 122
6102 139
6103 66
6104 26
6105 241
6106 303
6107 297
6108 301
6109 319
6110 301
6111 172
6112 290
6113 191
6114 239
6115 333
6116 293
6117 15
6118 52
6119 215
6120 80
6121 305
6122 52
6123 284
6124 151
6125 168
6126 133
6127 332
6128 44
6129 26
6130 61
6131 177
6132 143
6133 133
6134 148
6135 43
6136 39
6137 100
6138 200
6139 151
6140 86
6141 173
6142 20
6143 126
6144 25
6145 72
6146 275
6147 158
6148 175
6149 226
6150 205
6151 216
6152 302
6153 170
6154 42
6155 9
6156 95
6157 24
6158 257
6159 183
6160 18
6161 271
6162 106
6163 282
6164 83
6165 26
6166 104
6167 205
6168 230
6169 211
6170 263
6171 222
6172 162
6173 211
6174 247
6175 294
6176 80
6177 311
6178 36
6179 286
6180 310
6181 302
6182 261
6183 96
6184 12
6185 12
6186 315
6187 52
6188 71
6189 290
6190 312
6191 50
6192 164
6193 36
6194 71
6195 62
6196 138
6197 12
6198 80
6199 300
6200 80
6201 12
6202 271
6203 211
6204 259
6205 63
6206 133
6207 226
6208 82
6209 21
6210 334
6211 59
6212 301
6213 122
6214 180
6215 38
6216 340
6217 200
6218 249
6219 298
6220 256
6221 26
6222 104
6223 283
6224 284
6225 133
6226 230
6227 6
6228 263
6229 63
6230 74
6231 287
6232 286
6233 22
6234 135
6235 277
6236 172
6237 318
6238 223
6239 149
6240 271
6241 137
6242 255
6243 275
6244 105
6245 340
6246 67
6247 77
6248 144
6249 245
6250 159
6251 43
6252 154
6253 105
6254 121
6255 303
6256 25
6257 271
6258 186
6259 130
6260 333
6261 158
6262 161
6263 25
6264 80
6265 199
6266 71
6267 271
6268 9
6269 217
6270 186
6271 36
6272 230
6273 166
6274 12
6275 1
6276 226
6277 120
6278 45
6279 67
6280 191
6281 206
6282 47
6283 71
6284 154
6285 68
6286 103
6287 155
6288 61
6289 43
6290 207
6291 27
6292 241
6293 133
6294 159
6295 7
6296 82
6297 83
6298 303
6299 22
6300 32
6301 218
6302 43
6303 167
6304 128
6305 120
6306 38
6307 14
6308 154
6309 107
6310 111
6311 17
6312 205
6313 32
6314 125
6315 7
6316 150
6317 154
6318 36
6319 16
6320 123
6321 158
6322 22
6323 311
6324 150
6325 45
6326 97
6327 14
6328 30
6329 129
6330 269
6331 193
6332 153
6333 0
6334 336
6335 59
6336 269
6337 288
6338 255
6339 206
6340 21
6341 198
6342 47
6343 45
6344 241
6345 96
6346 81
6347 300
6348 342
6349 188
6350 69
6351 184
6352 317
6353 291
6354 328
6355 269
6356 7
6357 26
6358 106
6359 114
6360 105
6361 133
6362 238
6363 288
6364 27
6365 35
6366 104
6367 293
6368 30
6369 166
6370 142
6371 147
6372 328
6373 106
6374 161
6375 203
6376 149
6377 84
6378 13
6379 340
6380 46
6381 243
6382 284
6383 233
6384 127
6385 82
6386 211
6387 171
6388 69
6389 31
6390 36
6391 113
6392 97
6393 164
6394 37
6395 141
6396 249
6397 282
6398 292
6399 139
6400 91
6401 12
6402 288
6403 121
6404 216
6405 176
6406 233
6407 96
6408 336
6409 178
6410 269
6411 141
6412 45
6413 195
6414 17
6415 47
6416 190
6417 237
6418 275
6419 142
6420 9
6421 253
6422 72
6423 64
6424 36
6425 31
6426 18
6427 0
6428 263
6429 106
6430 32
6431 159
6432 10
6433 39
6434 49
6435 147
6436 70
6437 249
6438 260
6439 17
6440 292
6441 247
6442 81
6443 132
6444 12
6445 182
6446 142
6447 7
6448 199
6449 9
6450 13
6451 335
6452 277
6453 196
6454 189
6455 183
6456 211
6457 18
6458 127
6459 25
6460 33
6461 30
6462 62
6463 303
6464 269
6465 243
6466 45
6467 26
6468 231
6469 147
6470 242
6471 21
6472 146
6473 178
6474 200
6475 18
6476 27
6477 46
6478 288
6479 35
6480 194
6481 165
6482 31
6483 45
6484 12
6485 103
6486 275
6487 79
6488 271
6489 146
6490 36
6491 340
6492 81
6493 72
6494 36
6495 342
6496 277
6497 208
6498 214
6499 221
6500 154
6501 96
6502 291
6503 201
6504 149
6505 173
6506 12
6507 25
6508 173
6509 26
6510 176
6511 99
6512 54
6513 211
6514 286
6515 73
6516 28
6517 237
6518 45
6519 293
6520 268
6521 123
6522 346
6523 142
6524 46
6525 276
6526 260
6527 66
6528 30
6529 292
6530 287
6531 9
6532 27
6533 17
6534 222
6535 226
6536 205
6537 96
6538 79
6539 226
6540 165
6541 21
6542 332
6543 238
6544 331
6545 261
6546 113
6547 61
6548 189
6549 22
6550 83
6551 2
6552 205
6553 9
6554 9
6555 61
6556 277
6557 340
6558 43
6559 187
6560 14
6561 173
6562 307
6563 72
6564 132
6565 228
6566 229
6567 66
6568 146
6569 220
6570 242
6571 57
6572 226
6573 337
6574 168
6575 26
6576 125
6577 148
6578 231
6579 87
6580 223
6581 13
6582 176
6583 196
6584 206
6585 9
6586 311
6587 191
6588 87
6589 297
6590 12
6591 275
6592 104
6593 284
6594 118
6595 18
6596 284
6597 104
6598 69
6599 106
6600 313
6601 304
6602 40
6603 18
6604 300
6605 222
6606 158
6607 61
6608 297
6609 277
6610 183
6611 222
6612 297
6613 239
6614 183
6615 247
6616 226
6617 59
6618 54
6619 73
6620 26
6621 237
6622 216
6623 69
6624 97
6625 51
6626 184
6627 275
6628 26
6629 12
6630 128
6631 56
6632 96
6633 31
6634 131
6635 320
6636 312
6637 290
6638 275
6639 36
6640 116
6641 66
6642 12
6643 87
6644 275
6645 193
6646 254
6647 33
6648 26
6649 180
6650 275
6651 238
6652 159
6653 237
6654 200
6655 298
6656 83
6657 140
6658 233
6659 89
6660 206
6661 47
6662 59
6663 59
6664 259
6665 176
6666 11
6667 133
6668 241
6669 26
6670 330
6671 195
6672 335
6673 14
6674 243
6675 331
6676 156
6677 233
6678 246
6679 104
6680 262
6681 179
6682 142
6683 166
6684 80
6685 186
6686 247
6687 225
6688 239
6689 88
6690 12
6691 340
6692 98
6693 233
6694 168
6695 233
6696 143
6697 237
6698 260
6699 105
6700 334
6701 179
6702 61
6703 62
6704 160
6705 142
6706 168
6707 71
6708 54
6709 142
6710 183
6711 9
6712 74
6713 261
6714 96
6715 311
6716 31
6717 179
6718 147
6719 125
6720 294
6721 293
6722 48
6723 202
6724 136
6725 12
6726 249
6727 287
6728 72
6729 99
6730 66
6731 77
6732 52
6733 96
6734 142
6735 243
6736 197
6737 51
6738 96
6739 137
6740 89
6741 55
6742 210
6743 104
6744 37
6745 85
6746 21
6747 82
6748 92
6749 143
6750 274
6751 313
6752 50
6753 192
6754 89
6755 244
6756 282
6757 22
6758 276
6759 69
6760 192
6761 214
6762 229
6763 158
6764 64
6765 151
6766 2
6767 247
6768 116
6769 220
6770 45
6771 260
6772 25
6773 267
6774 19
6775 12
6776 325
6777 53
6778 150
6779 308
6780 12
6781 298
6782 251
6783 54
6784 269
6785 95
6786 216
6787 284
6788 9
6789 93
6790 104
6791 116
6792 154
6793 60
6794 206
6795 106
6796 21
6797 150
6798 1
6799 132
6800 136
6801 229
6802 229
6803 132
6804 282
6805 51
6806 39
6807 85
6808 94
6809 128
6810 159
6811 147
6812 281
6813 203
6814 155
6815 89
6816 150
6817 242
6818 139
6819 120
6820 136
6821 185
6822 224
6823 18
6824 5
6825 77
6826 175
6827 9
6828 82
6829 142
6830 95
6831 271
6832 237
6833 95
6834 26
6835 200
6836 145
6837 233
6838 290
6839 59
6840 247
6841 137
6842 249
6843 30
6844 91
6845 235
6846 200
6847 54
6848 159
6849 298
6850 300
6851 53
6852 143
6853 46
6854 106
6855 154
6856 206
6857 275
6858 271
6859 217
6860 96
6861 247
6862 156
6863 21
6864 3
6865 66
6866 128
6867 77
6868 269
6869 239
6870 167
6871 117
6872 282
6873 154
6874 135
6875 39
6876 212
6877 146
6878 47
6879 121
6880 189
6881 45
6882 95
6883 67
6884 166
6885 277
6886 319
6887 299
6888 50
6889 83
6890 22
6891 16
6892 274
6893 82
6894 265
6895 324
6896 105
6897 72
6898 168
6899 143
6900 117
6901 68
6902 184
6903 327
6904 197
6905 78
6906 142
6907 2
6908 162
6909 90
6910 155
6911 134
6912 73
6913 86
6914 95
6915 202
6916 83
6917 294
6918 189
6919 66
6920 93
6921 110
6922 146
6923 54
6924 203
6925 244
6926 99
6927 84
6928 127
6929 105
6930 242
6931 117
6932 324
6933 290
6934 116
6935 7
6936 269
6937 106
6938 162
6939 168
6940 68
6941 169
6942 182
6943 21
6944 195
6945 146
6946 280
6947 287
6948 74
6949 247
6950 74
6951 175
6952 141
6953 290
6954 256
6955 45
6956 96
6957 195
6958 287
6959 176
6960 11
6961 159
6962 128
6963 182
6964 169
6965 309
6966 48
6967 160
6968 28
6969 159
6970 227
6971 325
6972 200
6973 313
6974 77
6975 69
6976 38
6977 293
6978 71
6979 292
6980 146
6981 242
6982 333
6983 77
6984 282
6985 9
6986 52
6987 200
6988 7
6989 26
6990 302
6991 24
6992 186
6993 140
6994 66
6995 26
6996 54
6997 62
6998 325
6999 239
7000 101
7001 297
7002 96
7003 54
7004 183
7005 247
7006 20
7007 45
7008 69
7009 144
7010 54
7011 255
7012 279
7013 96
7014 282
7015 96
7016 148
7017 136
7018 216
7019 23
7020 313
7021 123
7022 297
7023 6
7024 95
7025 107
7026 195
7027 150
7028 222
7029 59
7030 66
7031 101
7032 175
7033 255
7034 90
7035 214
7036 308
7037 287
7038 298
7039 268
7040 216
7041 299
7042 284
7043 133
7044 85
7045 50
7046 275
7047 131
7048 143
7049 155
7050 159
7051 120
7052 116
7053 25
7054 261
7055 238
7056 67
7057 284
7058 62
7059 235
7060 238
7061 207
7062 104
7063 40
7064 25
7065 253
7066 298
7067 33
7068 182
7069 254
7070 216
7071 77
7072 63
7073 326
7074 207
7075 281
7076 82
7077 22
7078 220
7079 274
7080 113
7081 216
7082 229
7083 96
7084 8
7085 41
7086 100
7087 290
7088 311
7089 135
7090 189
7091 297
7092 80
7093 287
7094 213
7095 82
7096 334
7097 45
7098 124
7099 292
7100 211
7101 1
7102 9
7103 112
7104 123
7105 12
7106 229
7107 255
7108 179
7109 159
7110 229
7111 291
7112 117
7113 175
7114 312
7115 66
7116 79
7117 281
7118 297
7119 77
7120 232
7121 220
7122 54
7123 74
7124 16
7125 275
7126 116
7127 290
7128 95
7129 281
7130 159
7131 167
7132 151
7133 125
7134 255
7135 26
7136 294
7137 168
7138 271
7139 129
7140 34
7141 278
7142 136
7143 255
7144 294
7145 294
7146 68
7147 54
7148 118
7149 52
7150 242
7151 123
7152 204
7153 26
7154 223
7155 159
7156 22
7157 26
7158 151
7159 107
7160 120
7161 298
7162 41
7163 336
7164 180
7165 229
7166 94
7167 66
7168 159
7169 130
7170 190
7171 98
7172 126
7173 52
7174 158
7175 238
7176 45
7177 100
7178 323
7179 123
7180 8
7181 287
7182 219
7183 222
7184 330
7185 54
7186 116
7187 26
7188 122
7189 161
7190 174
7191 289
7192 80
7193 260
7194 216
7195 50
7196 60
7197 131
7198 159
7199 216
7200 290
7201 180
7202 167
7203 298
7204 299
7205 147
7206 273
7207 326
7208 194
7209 68
7210 317
7211 275
7212 79
7213 66
7214 166
7215 75
7216 82
7217 274
7218 290
7219 26
7220 242
7221 271
7222 25
7223 153
7224 104
7225 123
7226 67
7227 12
7228 255
7229 35
7230 61
7231 191
7232 3
7233 69
7234 97
7235 254
7236 340
7237 51
7238 68
7239 242
7240 326
7241 242
7242 197
7243 195
7244 224
7245 200
7246 104
7247 133
7248 9
7249 291
7250 169
7251 260
7252 94
7253 21
7254 82
7255 116
7256 123
7257 83
7258 255
7259 77
7260 94
7261 26
7262 73
7263 172
7264 18
7265 180
7266 267
7267 348
7268 104
7269 298
7270 26
7271 38
7272 315
7273 82
7274 252
7275 345
7276 106
7277 318
7278 229
7279 331
7280 192
7281 294
7282 243
7283 80
7284 12
7285 137
7286 59
7287 146
7288 334
7289 101
7290 53
7291 120
7292 136
7293 244
7294 281
7295 229
7296 312
7297 309
7298 80
7299 44
7300 282
7301 308
7302 9
7303 135
7304 241
7305 104
7306 301
7307 162
7308 275
7309 276
7310 321
7311 242
7312 218
7313 29
7314 97
7315 22
7316 158
7317 221
7318 281
7319 242
7320 297
7321 26
7322 116
7323 287
7324 54
7325 195
7326 280
7327 158
7328 136
7329 197
7330 143
7331 171
7332 21
7333 174
7334 80
7335 280
7336 26
7337 197
7338 348
7339 211
7340 141
7341 189
7342 171
7343 26
7344 328
7345 26
7346 116
7347 26
7348 195
7349 191
7350 131
7351 157
7352 26
7353 59
7354 50
7355 37
7356 45
7357 158
7358 311
7359 275
7360 140
7361 26
7362 96
7363 298
7364 301
7365 26
7366 271
7367 26
7368 84
7369 77
7370 17
7371 194
7372 12
7373 216
7374 95
7375 157
7376 54
7377 23
7378 45
7379 275
7380 290
7381 180
7382 301
7383 233
7384 89
7385 54
7386 287
7387 166
7388 279
7389 334
7390 104
7391 311
7392 213
7393 67
7394 310
7395 326
7396 67
7397 21
7398 191
7399 129
7400 89
7401 334
7402 281
7403 128
7404 17
7405 144
7406 83
7407 247
7408 324
7409 67
7410 38
7411 94
7412 168
7413 325
7414 311
7415 90
7416 12
7417 20
7418 179
7419 213
7420 53
7421 326
7422 214
7423 254
7424 179
7425 312
7426 29
7427 343
7428 47
7429 223
7430 216
7431 158
7432 100
7433 46
7434 86
7435 118
7436 112
7437 232
7438 144
7439 116
7440 25
7441 159
7442 121
7443 53
7444 22
7445 26
7446 43
7447 174
7448 191
7449 30
7450 9
7451 86
7452 259
7453 131
7454 82
7455 136
7456 83
7457 326
7458 63
7459 99
7460 104
7461 119
7462 298
7463 169
7464 318
7465 25
7466 80
7467 51
7468 135
7469 12
7470 82
7471 96
7472 178
7473 290
7474 238
7475 107
7476 138
7477 30
7478 82
7479 237
7480 123
7481 220
7482 273
7483 68
7484 26
7485 294
7486 259
7487 26
7488 138
7489 65
7490 89
7491 17
7492 24
7493 318
7494 107
7495 53
7496 90
7497 281
7498 136
7499 216
7500 260
7501 180
7502 242
7503 152
7504 111
7505 120
7506 294
7507 231
7508 231
7509 301
7510 294
7511 44
7512 290
7513 67
7514 110
7515 2
7516 71
7517 61
7518 180
7519 100
7520 316
7521 73
7522 119
7523 334
7524 155
7525 155
7526 331
7527 35
7528 128
7529 172
7530 43
7531 17
7532 83
7533 119
7534 333
7535 20
7536 45
7537 30
7538 151
7539 32
7540 62
7541 191
7542 77
7543 230
7544 26
7545 303
7546 214
7547 159
7548 255
7549 30
7550 14
7551 216
7552 44
7553 238
7554 120
7555 13
7556 292
7557 273
7558 45
7559 281
7560 147
7561 298
7562 146
7563 176
7564 30
7565 348
7566 191
7567 9
7568 26
7569 273
7570 12
7571 57
7572 216
7573 12
7574 31
7575 340
7576 221
7577 141
7578 24
7579 123
7580 81
7581 43
7582 300
7583 115
7584 148
7585 260
7586 334
7587 174
7588 44
7589 143
7590 52
7591 294
7592 138
7593 295
7594 89
7595 274
7596 268
7597 110
7598 182
7599 117
7600 193
7601 112
7602 178
7603 97
7604 101
7605 96
7606 169
7607 31
7608 243
7609 110
7610 135
7611 269
7612 331
7613 46
7614 69
7615 173
7616 18
7617 210
7618 180
7619 253
7620 247
7621 249
7622 269
7623 243
7624 94
7625 230
7626 318
7627 45
7628 120
7629 169
7630 4
7631 128
7632 128
7633 202
7634 301
7635 44
7636 36
7637 123
7638 95
7639 189
7640 94
7641 35
7642 26
7643 215
7644 210
7645 59
7646 249
7647 0
7648 54
7649 97
7650 297
7651 168
7652 220
7653 237
7654 69
7655 25
7656 284
7657 324
7658 62
7659 334
7660 153
7661 275
7662 251
7663 74
7664 236
7665 319
7666 230
7667 119
7668 79
7669 170
7670 126
7671 21
7672 290
7673 116
7674 47
7675 81
7676 104
7677 277
7678 311
7679 281
7680 138
7681 159
7682 305
7683 144
7684 107
7685 8
7686 269
7687 35
7688 274
7689 173
7690 9
7691 328
7692 126
7693 254
7694 183
7695 26
7696 273
7697 79
7698 108
7699 85
7700 169
7701 203
7702 293
7703 167
7704 122
7705 136
7706 26
7707 343
7708 297
7709 244
7710 155
7711 220
7712 349
7713 12
7714 159
7715 184
7716 292
7717 274
7718 17
7719 1
7720 59
7721 263
7722 204
7723 275
7724 157
7725 47
7726 130
7727 238
7728 311
7729 225
7730 135
7731 120
7732 139
7733 96
7734 126
7735 222
7736 26
7737 172
7738 89
7739 334
7740 26
7741 32
7742 299
7743 132
7744 96
7745 275
7746 260
7747 67
7748 131
7749 275
7750 53
7751 79
7752 79
7753 77
7754 18
7755 326
7756 189
7757 30
7758 300
7759 43
7760 243
7761 301
7762 230
7763 97
7764 72
7765 284
7766 292
7767 96
7768 80
7769 304
7770 267
7771 308
7772 231
7773 41
7774 36
7775 222
7776 144
7777 62
7778 220
7779 5
7780 255
7781 210
7782 18
7783 42
7784 189
7785 60
7786 261
7787 214
7788 275
7789 285
7790 63
7791 41
7792 230
7793 159
7794 67
7795 176
7796 23
7797 238
7798 89
7799 180
7800 132
7801 294
7802 2
7803 176
7804 83
7805 66
7806 298
7807 26
7808 122
7809 241
7810 180
7811 30
7812 83
7813 298
7814 326
7815 267
7816 159
7817 26
7818 143
7819 222
7820 154
7821 45
7822 257
7823 326
7824 185
7825 23
7826 97
7827 230
7828 186
7829 30
7830 151
7831 31
7832 59
7833 11
7834 259
7835 189
7836 189
7837 72
7838 315
7839 116
7840 110
7841 60
7842 255
7843 79
7844 80
7845 136
7846 205
7847 191
7848 332
7849 238
7850 63
7851 120
7852 30
7853 68
7854 343
7855 12
7856 249
7857 120
7858 106
7859 290
7860 150
7861 334
7862 107
7863 30
7864 190
7865 238
7866 311
7867 339
7868 269
7869 240
7870 334
7871 293
7872 176
7873 73
7874 135
7875 60
7876 189
7877 136
7878 97
7879 300
7880 12
7881 104
7882 100
7883 114
7884 87
7885 123
7886 229
7887 274
7888 7
7889 48
7890 132
7891 271
7892 72
7893 138
7894 89
7895 219
7896 297
7897 269
7898 105
7899 97
7900 96
7901 297
7902 293
7903 241
7904 189
7905 169
7906 189
7907 12
7908 127
7909 263
7910 52
7911 255
7912 278
7913 96
7914 118
7915 8
7916 12
7917 145
7918 67
7919 133
7920 167
7921 139
7922 1
7923 35
7924 49
7925 165
7926 77
7927 26
7928 226
7929 12
7930 162
7931 71
7932 233
7933 216
7934 12
7935 18
7936 144
7937 238
7938 334
7939 136
7940 281
7941 27
7942 30
7943 50
7944 107
7945 89
7946 281
7947 189
7948 77
7949 348
7950 342
7951 116
7952 83
7953 288
7954 19
7955 275
7956 178
7957 171
7958 83
7959 191
7960 26
7961 45
7962 241
7963 263
7964 290
7965 318
7966 24
7967 122
7968 321
7969 124
7970 120
7971 80
7972 275
7973 244
7974 140
7975 12
7976 133
7977 60
7978 176
7979 155
7980 334
7981 168
7982 180
7983 197
7984 188
7985 81
7986 22
7987 136
7988 222
7989 17
7990 98
7991 230
7992 153
7993 95
7994 311
7995 270
7996 142
7997 148
7998 52
7999 34
8000 275
8001 2
8002 160
8003 234
8004 81
8005 94
8006 12
8007 30
8008 54
8009 291
8010 313
8011 30
8012 64
8013 257
8014 45
8015 243
8016 239
8017 89
8018 94
8019 161
8020 58
8021 290
8022 255
8023 222
8024 14
8025 303
8026 266
8027 275
8028 30
8029 7
8030 9
8031 169
8032 116
8033 145
8034 255
8035 209
8036 265
8037 292
8038 305
8039 160
8040 256
8041 220
8042 188
8043 94
8044 180
8045 26
8046 97
8047 12
8048 290
8049 269
8050 26
8051 12
8052 303
8053 297
8054 199
8055 50
8056 106
8057 297
8058 59
8059 199
8060 142
8061 266
8062 224
8063 190
8064 186
8065 110
8066 53
8067 242
8068 66
8069 192
8070 280
8071 308
8072 71
8073 229
8074 343
8075 44
8076 292
8077 95
8078 96
8079 77
8080 36
8081 195
8082 158
8083 46
8084 204
8085 43
8086 44
8087 282
8088 59
8089 130
8090 275
8091 44
8092 247
8093 214
8094 209
8095 62
8096 77
8097 104
8098 143
8099 290
8100 277
8101 131
8102 48
8103 97
8104 131
8105 227
8106 38
8107 67
8108 80
8109 205
8110 261
8111 284
8112 282
8113 44
8114 142
8115 239
8116 51
8117 26
8118 247
8119 147
8120 170
8121 14
8122 79
8123 303
8124 9
8125 20
8126 220
8127 14
8128 261
8129 220
8130 50
8131 155
8132 160
8133 190
8134 175
8135 172
8136 297
8137 26
8138 263
8139 21
8140 29
8141 158
8142 45
8143 232
8144 53
8145 77
8146 247
8147 172
8148 52
8149 212
8150 20
8151 232
8152 126
8153 314
8154 175
8155 77
8156 50
8157 271
8158 297
8159 26
8160 172
8161 243
8162 222
8163 222
8164 188
8165 312
8166 62
8167 213
8168 59
8169 150
8170 180
8171 276
8172 290
8173 96
8174 160
8175 74
8176 219
8177 45
8178 176
8179 191
8180 68
8181 130
8182 282
8183 182
8184 173
8185 284
8186 43
8187 16
8188 22
8189 68
8190 26
8191 62
8192 142
8193 199
8194 143
8195 53
8196 293
8197 95
8198 173
8199 158
8200 21
8201 107
8202 0
8203 170
8204 172
8205 7
8206 205
8207 101
8208 230
8209 48
8210 287
8211 115
8212 182
8213 22
8214 123
8215 198
8216 182
8217 238
8218 265
8219 158
8220 230
8221 311
8222 110
8223 168
8224 161
8225 140
8226 53
8227 51
8228 334
8229 47
8230 112
8231 241
8232 311
8233 200
8234 326
8235 235
8236 119
8237 306
8238 300
8239 126
8240 262
8241 150
8242 1
8243 9
8244 130
8245 130
8246 57
8247 189
8248 77
8249 206
8250 277
8251 184
8252 67
8253 102
8254 131
8255 104
8256 96
8257 80
8258 167
8259 9
8260 25
8261 129
8262 73
8263 53
8264 275
8265 43
8266 293
8267 175
8268 43
8269 243
8270 18
8271 261
8272 141
8273 73
8274 52
8275 50
8276 226
8277 18
8278 303
8279 168
8280 72
8281 76
8282 260
8283 237
8284 10
8285 9
8286 107
8287 174
8288 26
8289 144
8290 120
8291 235
8292 53
8293 311
8294 18
8295 261
8296 205
8297 170
8298 97
8299 129
8300 73
8301 85
8302 226
8303 94
8304 204
8305 22
8306 259
8307 69
8308 72
8309 46
8310 287
8311 36
8312 122
8313 40
8314 21
8315 330
8316 261
8317 330
8318 94
8319 262
8320 129
8321 104
8322 100
8323 191
8324 213
8325 203
8326 189
8327 171
8328 292
8329 96
8330 277
8331 104
8332 308
8333 61
8334 28
8335 193
8336 275
8337 313
8338 172
8339 27
8340 218
8341 261
8342 199
8343 27
8344 230
8345 207
8346 36
8347 41
8348 152
8349 311
8350 43
8351 300
8352 287
8353 5
8354 344
8355 27
8356 186
8357 241
8358 158
8359 216
8360 148
8361 61
8362 316
8363 308
8364 331
8365 159
8366 110
8367 168
8368 71
8369 279
8370 210
8371 50
8372 26
8373 311
8374 119
8375 269
8376 55
8377 62
8378 179
8379 17
8380 144
8381 347
8382 142
8383 221
8384 220
8385 25
8386 125
8387 267
8388 107
8389 182
8390 5
8391 284
8392 223
8393 160
8394 45
8395 272
8396 313
8397 184
8398 308
8399 15
8400 137
8401 303
8402 153
8403 189
8404 233
8405 309
8406 137
8407 157
8408 50
8409 256
8410 269
8411 284
8412 45
8413 81
8414 271
8415 106
8416 95
8417 243
8418 284
8419 106
8420 114
8421 271
8422 242
8423 38
8424 244
8425 82
8426 249
8427 96
8428 170
8429 47
8430 146
8431 220
8432 26
8433 275
8434 200
8435 263
8436 315
8437 291
8438 104
8439 106
8440 276
8441 154
8442 350
8443 69
8444 277
8445 79
8446 7
8447 196
8448 113
8449 12
8450 38
8451 277
8452 132
8453 291
8454 18
8455 59
8456 189
8457 96
8458 116
8459 237
8460 216
8461 135
8462 275
8463 71
8464 71
8465 50
8466 80
8467 271
8468 31
8469 36
8470 168
8471 229
8472 50
8473 38
8474 239
8475 95
8476 18
8477 137
8478 126
8479 12
8480 334
8481 136
8482 52
8483 25
8484 293
8485 158
8486 7
8487 254
8488 136
8489 97
8490 143
8491 130
8492 149
8493 185
8494 337
8495 89
8496 62
8497 72
8498 30
8499 255
8500 45
8501 116
8502 108
8503 291
8504 120
8505 201
8506 111
8507 176
8508 70
8509 173
8510 12
8511 293
8512 63
8513 340
8514 220
8515 128
8516 54
8517 200
8518 97
8519 229
8520 211
8521 71
8522 313
8523 271
8524 277
8525 214
8526 180
8527 154
8528 204
8529 53
8530 102
8531 26
8532 28
8533 269
8534 135
8535 235
8536 111
8537 287
8538 155
8539 269
8540 22
8541 313
8542 264
8543 22
8544 275
8545 273
8546 12
8547 317
8548 243
8549 109
8550 301
8551 45
8552 318
8553 97
8554 104
8555 273
8556 80
8557 182
8558 104
8559 243
8560 265
8561 125
8562 47
8563 120
8564 67
8565 49
8566 71
8567 271
8568 213
8569 267
8570 45
8571 14
8572 194
8573 12
8574 85
8575 271
8576 173
8577 184
8578 180
8579 288
8580 62
8581 173
8582 164
8583 26
8584 299
8585 144
8586 45
8587 260
8588 119
8589 39
8590 26
8591 17
8592 159
8593 69
8594 243
8595 261
8596 21
8597 182
8598 102
8599 229
8600 25
8601 136
8602 238
8603 55
8604 122
8605 318
8606 25
8607 322
8608 101
8609 171
8610 95
8611 61
8612 150
8613 189
8614 45
8615 220
8616 230
8617 21
8618 195
8619 303
8620 155
8621 90
8622 38
8623 126
8624 26
8625 222
8626 254
8627 39
8628 78
8629 226
8630 44
8631 116
8632 26
8633 134
8634 297
8635 45
8636 301
8637 47
8638 308
8639 237
8640 26
8641 242
8642 100
8643 31
8644 110
8645 220
8646 131
8647 186
8648 222
8649 35
8650 323
8651 223
8652 9
8653 96
8654 40
8655 222
8656 45
8657 259
8658 128
8659 292
8660 147
8661 200
8662 182
8663 217
8664 95
8665 130
8666 99
8667 216
8668 138
8669 136
8670 131
8671 303
8672 216
8673 183
8674 237
8675 155
8676 297
8677 258
8678 243
8679 83
8680 12
8681 213
8682 154
8683 227
8684 22
8685 130
8686 91
8687 21
8688 269
8689 328
8690 318
8691 148
8692 242
8693 292
8694 41
8695 159
8696 325
8697 267
8698 135
8699 150
8700 22
8701 0
8702 54
8703 82
8704 222
8705 26
8706 200
8707 32
8708 218
8709 137
8710 136
8711 263
8712 69
8713 98
8714 96
8715 7
8716 147
8717 284
8718 343
8719 195
8720 331
8721 168
8722 153
8723 273
8724 218
8725 171
8726 202
8727 319
8728 315
8729 79
8730 314
8731 222
8732 247
8733 241
8734 107
8735 157
8736 220
8737 235
8738 135
8739 333
8740 225
8741 189
8742 65
8743 137
8744 243
8745 128
8746 166
8747 104
8748 273
8749 80
8750 6
8751 173
8752 230
8753 179
8754 71
8755 226
8756 26
8757 319
8758 48
8759 12
8760 61
8761 106
8762 292
8763 276
8764 292
8765 194
8766 106
8767 254
8768 325
8769 97
8770 226
8771 9
8772 244
8773 159
8774 91
8775 25
8776 106
8777 104
8778 54
8779 59
8780 267
8781 120
8782 82
8783 281
8784 268
8785 99
8786 267
8787 265
8788 20
8789 254
8790 66
8791 241
8792 180
8793 222
8794 297
8795 157
8796 97
8797 154
8798 325
8799 330
8800 95
8801 144
8802 275
8803 273
8804 247
8805 197
8806 220
8807 54
8808 182
8809 320
8810 197
8811 22
8812 209
8813 273
8814 136
8815 216
8816 131
8817 132
8818 176
8819 331
8820 52
8821 233
8822 226
8823 136
8824 9
8825 54
8826 143
8827 66
8828 21
8829 243
8830 12
8831 77
8832 101
8833 263
8834 95
8835 32
8836 264
8837 242
8838 348
8839 100
8840 96
8841 281
8842 274
8843 281
8844 170
8845 226
8846 275
8847 18
8848 247
8849 226
8850 31
8851 45
8852 185
8853 115
8854 162
8855 325
8856 118
8857 32
8858 82
8859 197
8860 159
8861 204
8862 261
8863 26
8864 158
8865 213
8866 154
8867 67
8868 284
8869 236
8870 104
8871 149
8872 83
8873 21
8874 346
8875 147
8876 86
8877 220
8878 275
8879 73
8880 104
8881 192
8882 45
8883 143
8884 50
8885 117
8886 45
8887 82
8888 290
8889 229
8890 8
8891 66
8892 136
8893 9
8894 297
8895 100
8896 168
8897 169
8898 297
8899 276
8900 133
8901 119
8902 35
8903 93
8904 216
8905 77
8906 168
8907 26
8908 9
8909 11
8910 21
8911 216
8912 222
8913 216
8914 261
8915 11
8916 186
8917 296
8918 45
8919 238
8920 12
8921 136
8922 54
8923 18
8924 69
8925 17
8926 22
8927 337
8928 123
8929 222
8930 137
8931 204
8932 88
8933 160
8934 344
8935 45
8936 90
8937 74
8938 167
8939 80
8940 170
8941 309
8942 49
8943 25
8944 173
8945 273
8946 159
8947 167
8948 191
8949 223
8950 21
8951 162
8952 116
8953 196
8954 78
8955 139
8956 137
8957 26
8958 101
8959 312
8960 275
8961 158
8962 97
8963 183
8964 90
8965 98
8966 66
8967 68
8968 269
8969 107
8970 88
8971 238
8972 242
8973 98
8974 232
8975 8
8976 131
8977 62
8978 37
8979 325
8980 313
8981 267
8982 96
8983 79
8984 197
8985 117
8986 74
8987 26
8988 137
8989 104
8990 74
8991 26
8992 254
8993 162
8994 137
8995 155
8996 159
8997 128
8998 155
8999 151
9000 305
9001 131
9002 271
9003 46
9004 163
9005 326
9006 249
9007 174
9008 331
9009 158
9010 180
9011 30
9012 169
9013 50
9014 48
9015 144
9016 319
9017 254
9018 148
9019 290
9020 268
9021 26
9022 251
9023 55
9024 24
9025 25
9026 79
9027 290
9028 104
9029 4
9030 22
9031 19
9032 222
9033 89
9034 54
9035 52
9036 82
9037 45
9038 77
9039 79
9040 89
9041 97
9042 50
9043 77
9044 321
9045 151
9046 147
9047 81
9048 118
9049 286
9050 77
9051 192
9052 233
9053 9
9054 95
9055 128
9056 104
9057 254
9058 136
9059 234
9060 194
9061 262
9062 241
9063 233
9064 297
9065 79
9066 260
9067 182
9068 15
9069 228
9070 136
9071 45
9072 67
9073 293
9074 154
9075 237
9076 269
9077 143
9078 32
9079 45
9080 334
9081 49
9082 144
9083 242
9084 263
9085 105
9086 179
9087 301
9088 228
9089 224
9090 264
9091 71
9092 242
9093 182
9094 69
9095 229
9096 25
9097 191
9098 74
9099 298
9100 133
9101 254
9102 253
9103 302
9104 10
9105 199
9106 69
9107 102
9108 259
9109 44
9110 275
9111 25
9112 290
9113 188
9114 62
9115 44
9116 100
9117 229
9118 131
9119 271
9120 267
9121 242
9122 298
9123 265
9124 222
9125 152
9126 175
9127 243
9128 291
9129 44
9130 281
9131 273
9132 159
9133 220
9134 80
9135 138
9136 184
9137 262
9138 336
9139 281
9140 229
9141 54
9142 89
9143 122
9144 178
9145 281
9146 184
9147 108
9148 309
9149 144
9150 49
9151 82
9152 88
9153 147
9154 160
9155 255
9156 176
9157 26
9158 26
9159 9
9160 179
9161 259
9162 19
9163 255
9164 310
9165 114
9166 120
9167 105
9168 37
9169 169
9170 184
9171 271
9172 267
9173 89
9174 308
9175 44
9176 62
9177 242
9178 151
9179 62
9180 216
9181 45
9182 62
9183 97
9184 216
9185 334
9186 200
9187 265
9188 123
9189 318
9190 320
9191 127
9192 95
9193 136
9194 282
9195 232
9196 221
9197 22
9198 203
9199 96
9200 342
9201 271
9202 67
9203 122
9204 136
9205 95
9206 26
9207 311
9208 159
9209 206
9210 82
9211 125
9212 8
9213 222
9214 118
9215 189
9216 92
9217 42
9218 238
9219 107
9220 275
9221 152
9222 126
9223 54
9224 77
9225 325
9226 292
9227 223
9228 105
9229 11
9230 275
9231 239
9232 169
9233 186
9234 73
9235 107
9236 133
9237 107
9238 16
9239 126
9240 67
9241 69
9242 255
9243 184
9244 47
9245 107
9246 304
9247 308
9248 141
9249 79
9250 273
9251 62
9252 67
9253 275
9254 247
9255 242
9256 218
9257 184
9258 199
9259 27
9260 147
9261 94
9262 190
9263 126
9264 80
9265 77
9266 255
9267 179
9268 238
9269 294
9270 247
9271 138
9272 68
9273 275
9274 321
9275 274
9276 153
9277 303
9278 12
9279 26
9280 216
9281 326
9282 123
9283 148
9284 318
9285 71
9286 21
9287 334
9288 22
9289 227
9290 44
9291 94
9292 97
9293 22
9294 53
9295 265
9296 318
9297 36
9298 97
9299 104
9300 104
9301 54
9302 301
9303 101
9304 131
9305 44
9306 275
9307 80
9308 279
9309 311
9310 334
9311 120
9312 154
9313 191
9314 10
9315 82
9316 246
9317 21
9318 117
9319 22
9320 72
9321 80
9322 300
9323 297
9324 96
9325 264
9326 59
9327 114
9328 333
9329 224
9330 229
9331 302
9332 103
9333 44
9334 281
9335 26
9336 143
9337 120
9338 41
9339 12
9340 269
9341 114
9342 174
9343 126
9344 110
9345 263
9346 14
9347 125
9348 2
9349 83
9350 291
9351 199
9352 118
9353 225
9354 79
9355 290
9356 116
9357 247
9358 37
9359 281
9360 22
9361 18
9362 59
9363 79
9364 18
9365 61
9366 136
9367 12
9368 82
9369 260
9370 107
9371 222
9372 68
9373 96
9374 251
9375 131
9376 14
9377 216
9378 104
9379 68
9380 131
9381 184
9382 126
9383 246
9384 97
9385 282
9386 311
9387 136
9388 110
9389 189
9390 136
9391 135
9392 175
9393 123
9394 298
9395 210
9396 71
9397 159
9398 65
9399 308
9400 211
9401 54
9402 89
9403 229
9404 9
9405 209
9406 52
9407 274
9408 131
9409 13
9410 263
9411 216
9412 161
9413 94
9414 279
9415 30
9416 131
9417 297
9418 301
9419 44
9420 57
9421 143
9422 186
9423 250
9424 1
9425 98
9426 45
9427 262
9428 123
9429 161
9430 247
9431 342
9432 302
9433 30
9434 340
9435 255
9436 130
9437 20
9438 291
9439 52
9440 290
9441 319
9442 294
9443 255
9444 311
9445 26
9446 41
9447 95
9448 290
9449 143
9450 326
9451 275
9452 201
9453 269
9454 221
9455 249
9456 313
9457 12
9458 223
9459 52
9460 131
9461 68
9462 299
9463 123
9464 54
9465 79
9466 21
9467 25
9468 303
9469 123
9470 249
9471 273
9472 124
9473 141
9474 107
9475 259
9476 21
9477 7
9478 220
9479 206
9480 68
9481 334
9482 104
9483 21
9484 19
9485 15
9486 180
9487 44
9488 66
9489 69
9490 342
9491 126
9492 335
9493 105
9494 45
9495 67
9496 178
9497 212
9498 148
9499 154
9500 275
9501 176
9502 290
9503 81
9504 40
9505 52
9506 12
9507 80
9508 342
9509 69
9510 131
9511 259
9512 73
9513 159
9514 257
9515 223
9516 92
9517 159
9518 0
9519 241
9520 22
9521 226
9522 326
9523 15
9524 126
9525 43
9526 57
9527 241
9528 82
9529 126
9530 26
9531 186
9532 45
9533 120
9534 119
9535 285
9536 59
9537 94
9538 153
9539 301
9540 59
9541 290
9542 242
9543 130
9544 247
9545 136
9546 90
9547 95
9548 237
9549 183
9550 80
9551 131
9552 111
9553 130
9554 67
9555 80
9556 287
9557 131
9558 48
9559 67
9560 178
9561 62
9562 267
9563 17
9564 9
9565 96
9566 120
9567 105
9568 160
9569 9
9570 277
9571 7
9572 42
9573 222
9574 176
9575 191
9576 22
9577 26
9578 314
9579 251
9580 170
9581 350
9582 135
9583 275
9584 211
9585 77
9586 277
9587 220
9588 3
9589 116
9590 274
9591 328
9592 35
9593 186
9594 59
9595 197
9596 28
9597 68
9598 154
9599 147
9600 95
9601 126
9602 149
9603 295
9604 47
9605 26
9606 59
9607 241
9608 40
9609 192
9610 89
9611 260
9612 291
9613 89
9614 54
9615 222
9616 120
9617 15
9618 284
9619 277
9620 328
9621 166
9622 1
9623 318
9624 96
9625 229
9626 312
9627 249
9628 30
9629 313
9630 118
9631 144
9632 1
9633 3
9634 288
9635 107
9636 146
9637 91
9638 156
9639 271
9640 311
9641 307
9642 66
9643 182
9644 116
9645 199
9646 340
9647 151
9648 45
9649 236
9650 12
9651 199
9652 110
9653 52
9654 36
9655 260
9656 63
9657 67
9658 255
9659 230
9660 11
9661 97
9662 79
9663 123
9664 260
9665 166
9666 241
9667 21
9668 237
9669 191
9670 207
9671 251
9672 43
9673 95
9674 309
9675 277
9676 213
9677 25
9678 25
9679 242
9680 107
9681 294
9682 123
9683 148
9684 107
9685 208
9686 107
9687 131
9688 122
9689 328
9690 169
9691 12
9692 318
9693 242
9694 136
9695 241
9696 12
9697 52
9698 48
9699 223
9700 44
9701 135
9702 12
9703 45
9704 48
9705 55
9706 26
9707 22
9708 292
9709 189
9710 216
9711 216
9712 67
9713 55
9714 230
9715 319
9716 287
9717 292
9718 66
9719 62
9720 183
9721 306
9722 42
9723 85
9724 89
9725 26
9726 12
9727 333
9728 45
9729 54
9730 267
9731 200
9732 83
9733 169
9734 290
9735 116
9736 311
9737 278
9738 289
9739 91
9740 103
9741 76
9742 67
9743 306
9744 81
9745 216
9746 68
9747 191
9748 12
9749 136
9750 295
9751 26
9752 142
9753 67
9754 153
9755 131
9756 180
9757 28
9758 31
9759 144
9760 147
9761 171
9762 174
9763 12
9764 213
9765 26
9766 325
9767 103
9768 52
9769 159
9770 43
9771 25
9772 0
9773 137
9774 160
9775 301
9776 157
9777 220
9778 245
9779 135
9780 159
9781 152
9782 218
9783 104
9784 229
9785 229
9786 27
9787 45
9788 216
9789 155
9790 234
9791 261
9792 292
9793 218
9794 191
9795 311
9796 54
9797 30
9798 234
9799 252
9800 244
9801 19
9802 305
9803 285
9804 210
9805 313
9806 226
9807 44
9808 272
9809 222
9810 170
9811 300
9812 52
9813 281
9814 10
9815 72
9816 47
9817 126
9818 184
9819 26
9820 154
9821 47
9822 232
9823 63
9824 292
9825 242
9826 103
9827 295
9828 265
9829 93
9830 26
9831 282
9832 322
9833 79
9834 77
9835 100
9836 282
9837 138
9838 176
9839 31
9840 136
9841 327
9842 2
9843 44
9844 259
9845 263
9846 162
9847 264
9848 104
9849 305
9850 146
9851 26
9852 82
9853 44
9854 191
9855 334
9856 136
9857 174
9858 12
9859 313
9860 277
9861 63
9862 2
9863 351
9864 98
9865 277
9866 312
9867 2
9868 62
9869 44
9870 77
9871 136
9872 264
9873 12
9874 242
9875 36
9876 189
9877 255
9878 104
9879 222
9880 139
9881 142
9882 128
9883 319
9884 83
9885 173
9886 187
9887 290
9888 106
9889 9
9890 5
9891 291
9892 2
9893 204
9894 62
9895 209
9896 67
9897 12
9898 237
9899 239
9900 68
9901 120
9902 221
9903 135
9904 191
9905 122
9906 331
9907 143
9908 280
9909 251
9910 21
9911 6
9912 19
9913 193
9914 21
9915 162
9916 21
9917 151
9918 138
9919 277
9920 153
9921 287
9922 68
9923 26
9924 281
9925 294
9926 229
9927 85
9928 260
9929 232
9930 277
9931 16
9932 12
9933 314
9934 25
9935 95
9936 169
9937 68
9938 132
9939 142
9940 26
9941 89
9942 117
9943 206
9944 67
9945 143
9946 271
9947 52
9948 123
9949 52
9950 127
9951 62
9952 114
9953 12
9954 26
9955 238
9956 137
9957 47
9958 30
9959 191
9960 110
9961 78
9962 143
9963 150
9964 290
9965 255
9966 26
9967 74
9968 135
9969 97
9970 62
9971 344
9972 257
9973 249
9974 26
9975 119
9976 159
9977 26
9978 139
9979 72
9980 136
9981 341
9982 209
9983 164
9984 313
9985 233
9986 290
9987 110
9988 158
9989 298
9990 71
9991 34
9992 316
9993 32
9994 298
9995 133
9996 16
9997 284
9998 216
9999 107
10000 136
10001 176
10002 12
10003 95
10004 249
10005 66
10006 120
10007 82
10008 191
10009 137
10010 39
10011 117
10012 82
10013 96
10014 62
10015 43
10016 148
10017 176
10018 242
10019 208
10020 15
10021 136
10022 238
10023 283
10024 21
10025 82
10026 273
10027 95
10028 59
10029 82
10030 11
10031 10
10032 120
10033 30
10034 271
10035 87
10036 259
10037 138
10038 303
10039 318
10040 261
10041 191
10042 176
10043 129
10044 104
10045 268
10046 275
10047 36
10048 290
10049 179
10050 233
10051 118
10052 293
10053 220
10054 171
10055 26
10056 250
10057 52
10058 277
10059 164
10060 53
10061 67
10062 50
10063 31
10064 229
10065 26
10066 143
10067 53
10068 97
10069 135
10070 22
10071 28
10072 159
10073 96
10074 271
10075 71
10076 79
10077 284
10078 11
10079 135
10080 230
10081 27
10082 191
10083 247
10084 95
10085 172
10086 2
10087 12
10088 34
10089 132
10090 21
10091 95
10092 43
10093 31
10094 139
10095 153
10096 221
10097 30
10098 173
10099 238
10100 247
10101 26
10102 197
10103 1
10104 120
10105 290
10106 137
10107 77
10108 130
10109 104
10110 274
10111 297
10112 45
10113 311
10114 26
10115 242
10116 86
10117 259
10118 136
10119 182
10120 220
10121 133
10122 159
10123 144
10124 222
10125 226
10126 68
10127 32
10128 106
10129 195
10130 220
10131 333
10132 36
10133 74
10134 271
10135 19
10136 80
10137 259
10138 24
10139 77
10140 323
10141 303
10142 104
10143 243
10144 176
10145 40
10146 120
10147 200
10148 293
10149 53
10150 259
10151 299
10152 293
10153 299
10154 25
10155 247
10156 52
10157 243
10158 294
10159 26
10160 26
10161 321
10162 135
10163 267
10164 107
10165 80
10166 101
10167 97
10168 222
10169 312
10170 12
10171 211
10172 222
10173 71
10174 12
10175 23
10176 184
10177 47
10178 48
10179 126
10180 144
10181 147
10182 112
10183 267
10184 21
10185 12
10186 333
10187 74
10188 100
10189 97
10190 132
10191 259
10192 191
10193 266
10194 136
10195 72
10196 129
10197 130
10198 292
10199 25
10200 30
10201 95
10202 56
10203 63
10204 284
10205 159
10206 348
10207 180
10208 31
10209 147
10210 52
10211 204
10212 1
10213 26
10214 267
10215 180
10216 28
10217 72
10218 44
10219 95
10220 95
10221 176
10222 142
10223 264
10224 68
10225 50
10226 20
10227 36
10228 299
10229 163
10230 230
10231 72
10232 258
10233 105
10234 75
10235 160
10236 173
10237 73
10238 143
10239 97
10240 12
10241 143
10242 69
10243 21
10244 155
10245 293
10246 192
10247 45
10248 210
10249 122
10250 348
10251 130
10252 312
10253 236
10254 268
10255 209
10256 120
10257 31
10258 130
10259 159
10260 142
10261 9
10262 159
10263 167
10264 284
10265 72
10266 193
10267 193
10268 36
10269 275
10270 168
10271 25
10272 1
10273 168
10274 281
10275 74
10276 26
10277 17
10278 26
10279 200
10280 9
10281 28
10282 135
10283 111
10284 85
10285 9
10286 306
10287 350
10288 106
10289 312
10290 105
10291 142
10292 200
10293 205
10294 205
10295 155
10296 72
10297 120
10298 246
10299 81
10300 31
10301 35
10302 9
10303 313
10304 226
10305 36
10306 158
10307 116
10308 180
10309 71
10310 143
10311 126
10312 173
10313 194
10314 9
10315 225
10316 168
10317 184
10318 344
10319 261
10320 309
10321 312
10322 24
10323 109
10324 70
10325 120
10326 277
10327 85
10328 143
10329 299
10330 9
10331 169
10332 50
10333 147
10334 148
10335 236
10336 134
10337 334
10338 158
10339 18
10340 26
10341 26
10342 223
10343 201
10344 158
10345 1
10346 287
10347 108
10348 72
10349 239
10350 111
10351 26
10352 142
10353 54
10354 209
10355 55
10356 142
10357 182
10358 69
10359 206
10360 105
10361 235
10362 58
10363 210
10364 217
10365 83
10366 242
10367 203
10368 94
10369 31
10370 49
10371 285
10372 96
10373 323
10374 45
10375 69
10376 219
10377 12
10378 319
10379 179
10380 229
10381 292
10382 164
10383 200
10384 77
10385 229
10386 19
10387 95
10388 192
10389 225
10390 237
10391 176
10392 216
10393 239
10394 97
10395 216
10396 259
10397 147
10398 20
10399 21
10400 162
10401 83
10402 62
10403 9
10404 83
10405 276
10406 167
10407 312
10408 143
10409 159
10410 9
10411 106
10412 216
10413 50
10414 176
10415 152
10416 30
10417 131
10418 100
10419 131
10420 97
10421 96
10422 216
10423 173
10424 237
10425 71
10426 189
10427 182
10428 313
10429 48
10430 221
10431 1
10432 261
10433 54
10434 162
10435 284
10436 83
10437 159
10438 48
10439 203
10440 16
10441 330
10442 304
10443 7
10444 143
10445 247
10446 116
10447 233
10448 200
10449 205
10450 14
10451 200
10452 72
10453 135
10454 327
10455 74
10456 159
10457 256
10458 159
10459 36
10460 30
10461 0
10462 172
10463 137
10464 97
10465 243
10466 36
10467 194
10468 26
10469 243
10470 216
10471 200
10472 50
10473 229
10474 271
10475 179
10476 14
10477 45
10478 242
10479 194
10480 165
10481 22
10482 214
10483 213
10484 142
10485 263
10486 210
10487 69
10488 207
10489 26
10490 130
10491 106
10492 14
10493 328
10494 308
10495 9
10496 14
10497 118
10498 286
10499 147
10500 50
10501 14
10502 0
10503 277
10504 287
10505 155
10506 226
10507 82
10508 168
10509 271
10510 293
10511 45
10512 207
10513 336
10514 50
10515 331
10516 200
10517 210
10518 153
10519 158
10520 327
10521 62
10522 116
10523 231
10524 138
10525 22
10526 62
10527 142
10528 182
10529 226
10530 298
10531 97
10532 43
10533 42
10534 179
10535 218
10536 216
10537 36
10538 48
10539 203
10540 189
10541 319
10542 287
10543 82
10544 166
10545 100
10546 309
10547 106
10548 329
10549 7
10550 38
10551 70
10552 9
10553 179
10554 25
10555 62
10556 148
10557 220
10558 229
10559 106
10560 24
10561 214
10562 45
10563 35
10564 94
10565 142
10566 173
10567 284
10568 211
10569 55
10570 37
10571 44
10572 125
10573 328
10574 234
10575 121
10576 140
10577 137
10578 299
10579 306
10580 219
10581 31
10582 159
10583 82
10584 222
10585 130
10586 330
10587 73
10588 275
10589 36
10590 18
10591 154
10592 62
10593 284
10594 202
10595 196
10596 243
10597 271
10598 47
10599 45
10600 222
10601 269
10602 271
10603 44
10604 142
10605 220
10606 9
10607 225
10608 241
10609 97
10610 126
10611 273
10612 317
10613 185
10614 64
10615 116
10616 89
10617 311
10618 144
10619 309
10620 243
10621 69
10622 242
10623 146
10624 20
10625 271
10626 312
10627 81
10628 16
10629 293
10630 233
10631 214
10632 137
10633 53
10634 209
10635 116
10636 156
10637 316
10638 174
10639 176
10640 31
10641 231
10642 328
10643 242
10644 136
10645 275
10646 238
10647 74
10648 28
10649 191
10650 251
10651 208
10652 275
10653 308
10654 235
10655 14
10656 72
10657 300
10658 216
10659 255
10660 36
10661 106
10662 247
10663 236
10664 200
10665 135
10666 179
10667 97
10668 297
10669 48
10670 116
10671 203
10672 26
10673 131
10674 101
10675 41
10676 311
10677 62
10678 9
10679 26
10680 150
10681 72
10682 154
10683 12
10684 70
10685 3
10686 78
10687 277
10688 158
10689 323
10690 195
10691 319
10692 131
10693 216
10694 9
10695 101
10696 24
10697 21
10698 220
10699 24
10700 120
10701 305
10702 201
10703 26
10704 12
10705 192
10706 309
10707 139
10708 210
10709 242
10710 21
10711 305
10712 18
10713 45
10714 46
10715 23
10716 59
10717 227
10718 285
10719 80
10720 134
10721 26
10722 24
10723 219
10724 237
10725 343
10726 158
10727 9
10728 129
10729 72
10730 297
10731 255
10732 96
10733 259
10734 348
10735 1
10736 25
10737 10
10738 117
10739 203
10740 243
10741 21
10742 273
10743 85
10744 242
10745 155
10746 97
10747 220
10748 277
10749 45
10750 53
10751 47
10752 53
10753 62
10754 254
10755 104
10756 100
10757 126
10758 50
10759 334
10760 72
10761 12
10762 59
10763 205
10764 337
10765 199
10766 164
10767 101
10768 116
10769 254
10770 104
10771 242
10772 98
10773 11
10774 38
10775 226
10776 260
10777 260
10778 82
10779 74
10780 216
10781 194
10782 45
10783 155
10784 62
10785 216
10786 142
10787 50
10788 39
10789 305
10790 269
10791 255
10792 226
10793 47
10794 45
10795 59
10796 147
10797 147
10798 128
10799 346
10800 63
10801 1
10802 130
10803 11
10804 275
10805 282
10806 53
10807 77
10808 21
10809 45
10810 217
10811 142
10812 35
10813 155
10814 131
10815 27
10816 266
10817 115
10818 298
10819 151
10820 222
10821 110
10822 262
10823 259
10824 45
10825 151
10826 233
10827 106
10828 265
10829 101
10830 275
10831 209
10832 131
10833 83
10834 130
10835 69
10836 52
10837 77
10838 45
10839 104
10840 242
10841 242
10842 68
10843 222
10844 116
10845 222
10846 176
10847 220
10848 96
10849 120
10850 80
10851 328
10852 19
10853 142
10854 159
10855 237
10856 89
10857 9
10858 313
10859 275
10860 54
10861 68
10862 313
10863 53
10864 162
10865 178
10866 84
10867 143
10868 110
10869 345
10870 237
10871 282
10872 77
10873 104
10874 12
10875 151
10876 242
10877 52
10878 251
10879 177
10880 290
10881 182
10882 181
10883 12
10884 302
10885 233
10886 293
10887 117
10888 263
10889 131
10890 284
10891 71
10892 215
10893 220
10894 21
10895 201
10896 80
10897 261
10898 119
10899 251
10900 59
10901 151
10902 66
10903 281
10904 282
10905 171
10906 297
10907 249
10908 267
10909 52
10910 67
10911 162
10912 63
10913 275
10914 107
10915 159
10916 181
10917 77
10918 292
10919 281
10920 12
10921 36
10922 260
10923 227
10924 131
10925 116
10926 176
10927 126
10928 77
10929 212
10930 151
10931 116
10932 204
10933 154
10934 297
10935 146
10936 217
10937 158
10938 79
10939 194
10940 48
10941 240
10942 347
10943 143
10944 26
10945 343
10946 45
10947 192
10948 96
10949 158
10950 261
10951 320
10952 244
10953 89
10954 68
10955 80
10956 115
10957 165
10958 142
10959 26
10960 305
10961 18
10962 89
10963 140
10964 175
10965 53
10966 52
10967 162
10968 26
10969 12
10970 320
10971 305
10972 9
10973 290
10974 123
10975 242
10976 242
10977 188
10978 0
10979 309
10980 26
10981 238
10982 225
10983 32
10984 225
10985 318
10986 254
10987 96
10988 162
10989 94
10990 53
10991 54
10992 156
10993 143
10994 200
10995 330
10996 258
10997 80
10998 119
10999 136
11000 249
11001 79
11002 35
11003 1
11004 229
11005 305
11006 82
11007 294
11008 9
11009 74
11010 118
11011 141
11012 236
11013 256
11014 208
11015 342
11016 259
11017 97
11018 151
11019 21
11020 290
11021 59
11022 293
11023 45
11024 47
11025 104
11026 53
11027 293
11028 298
11029 334
11030 26
11031 182
11032 183
11033 220
11034 328
11035 22
11036 169
11037 238
11038 243
11039 42
11040 36
11041 102
11042 21
11043 53
11044 12
11045 144
11046 231
11047 26
11048 139
11049 206
11050 228
11051 54
11052 309
11053 89
11054 290
11055 82
11056 153
11057 172
11058 100
11059 224
11060 12
11061 137
11062 12
11063 38
11064 169
11065 270
11066 62
11067 260
11068 275
11069 62
11070 303
11071 12
11072 69
11073 170
11074 52
11075 273
11076 50
11077 45
11078 153
11079 39
11080 50
11081 73
11082 43
11083 261
11084 297
11085 12
11086 144
11087 52
11088 21
11089 131
11090 323
11091 236
11092 128
11093 175
11094 194
11095 239
11096 156
11097 54
11098 261
11099 333
11100 25
11101 101
11102 26
11103 216
11104 229
11105 81
11106 254
11107 119
11108 313
11109 229
11110 242
11111 137
11112 34
11113 233
11114 68
11115 136
11116 301
11117 255
11118 139
11119 338
11120 119
11121 9
11122 260
11123 131
11124 145
11125 28
11126 243
11127 107
11128 2
11129 298
11130 120
11131 282
11132 5
11133 160
11134 67
11135 193
11136 262
11137 220
11138 95
11139 275
11140 162
11141 61
11142 159
11143 173
11144 54
11145 230
11146 294
11147 62
11148 120
11149 45
11150 196
11151 71
11152 229
11153 322
11154 139
11155 321
11156 7
11157 198
11158 255
11159 79
11160 167
11161 95
11162 58
11163 64
11164 52
11165 284
11166 35
11167 247
11168 104
11169 297
11170 162
11171 45
11172 281
11173 298
11174 119
11175 26
11176 261
11177 12
11178 9
11179 334
11180 9
11181 21
11182 160
11183 277
11184 54
11185 315
11186 101
11187 285
11188 293
11189 20
11190 284
11191 162
11192 298
11193 45
11194 83
11195 151
11196 273
11197 28
11198 26
11199 54
11200 118
11201 211
11202 95
11203 267
11204 82
11205 26
11206 45
11207 273
11208 134
11209 85
11210 144
11211 184
11212 301
11213 156
11214 22
11215 216
11216 52
11217 217
11218 23
11219 54
11220 220
11221 126
11222 260
11223 136
11224 218
11225 233
11226 106
11227 208
11228 149
11229 16
11230 97
11231 20
11232 136
11233 104
11234 12
11235 54
11236 97
11237 229
11238 12
11239 52
11240 120
11241 67
11242 132
11243 15
11244 287
11245 158
11246 142
11247 77
11248 26
11249 229
11250 151
11251 303
11252 122
11253 89
11254 87
11255 89
11256 96
11257 26
11258 311
11259 9
11260 143
11261 99
11262 220
11263 179
11264 334
11265 1
11266 218
11267 67
11268 9
11269 169
11270 313
11271 251
11272 239
11273 45
11274 190
11275 66
11276 310
11277 227
11278 298
11279 287
11280 214
11281 8
11282 260
11283 346
11284 126
11285 202
11286 235
11287 162
11288 39
11289 304
11290 87
11291 208
11292 272
11293 73
11294 202
11295 186
11296 247
11297 311
11298 116
11299 71
11300 63
11301 267
11302 326
11303 79
11304 80
11305 44
11306 68
11307 73
11308 334
11309 218
11310 82
11311 159
11312 85
11313 156
11314 168
11315 16
11316 261
11317 220
11318 189
11319 162
11320 26
11321 45
11322 184
11323 74
11324 138
11325 110
11326 153
11327 26
11328 242
11329 160
11330 31
11331 95
11332 20
11333 144
11334 12
11335 138
11336 26
11337 247
11338 179
11339 334
11340 97
11341 229
11342 222
11343 239
11344 166
11345 259
11346 61
11347 162
11348 54
11349 238
11350 95
11351 184
11352 96
11353 242
11354 49
11355 297
11356 72
11357 243
11358 251
11359 173
11360 255
11361 12
11362 55
11363 243
11364 96
11365 123
11366 28
11367 279
11368 123
11369 104
11370 106
11371 120
11372 69
11373 28
11374 290
11375 267
11376 46
11377 102
11378 30
11379 48
11380 159
11381 122
11382 162
11383 286
11384 301
11385 242
11386 259
11387 82
11388 190
11389 242
11390 311
11391 44
11392 77
11393 21
11394 43
11395 110
11396 285
11397 135
11398 151
11399 79
11400 152
11401 326
11402 107
11403 69
11404 136
11405 25
11406 62
11407 108
11408 93
11409 349
11410 25
11411 30
11412 107
11413 107
11414 214
11415 161
11416 86
11417 110
11418 30
11419 59
11420 345
11421 66
11422 243
11423 45
11424 0
11425 174
11426 192
11427 247
11428 25
11429 247
11430 40
11431 334
11432 67
11433 158
11434 247
11435 104
11436 104
11437 112
11438 22
11439 21
11440 166
11441 303
11442 241
11443 26
11444 18
11445 96
11446 280
11447 284
11448 52
11449 20
11450 82
11451 95
11452 26
11453 2
11454 217
11455 22
11456 227
11457 59
11458 79
11459 103
11460 159
11461 254
11462 120
11463 207
11464 173
11465 7
11466 95
11467 247
11468 69
11469 255
11470 26
11471 154
11472 274
11473 299
11474 88
11475 300
11476 78
11477 255
11478 126
11479 52
11480 140
11481 222
11482 173
11483 95
11484 220
11485 273
11486 259
11487 298
11488 220
11489 12
11490 107
11491 62
11492 333
11493 135
11494 7
11495 169
11496 220
11497 59
11498 46
11499 94
11500 288
11501 315
11502 95
11503 9
11504 154
11505 15
11506 157
11507 79
11508 158
11509 66
11510 215
11511 274
11512 130
11513 95
11514 148
11515 202
11516 210
11517 69
11518 136
11519 300
11520 22
11521 154
11522 9
11523 136
11524 139
11525 242
11526 275
11527 298
11528 45
11529 16
11530 294
11531 309
11532 44
11533 54
11534 313
11535 44
11536 82
11537 122
11538 45
11539 255
11540 100
11541 9
11542 309
11543 166
11544 239
11545 104
11546 275
11547 126
11548 28
11549 294
11550 255
11551 209
11552 134
11553 135
11554 308
11555 159
11556 286
11557 137
11558 173
11559 232
11560 26
11561 255
11562 44
11563 26
11564 21
11565 136
11566 14
11567 26
11568 340
11569 26
11570 80
11571 255
11572 242
11573 187
11574 50
11575 12
11576 94
11577 39
11578 275
11579 87
11580 188
11581 211
11582 229
11583 79
11584 69
11585 68
11586 211
11587 324
11588 131
11589 273
11590 334
11591 122
11592 290
11593 216
11594 281
11595 52
11596 22
11597 180
11598 334
11599 24
11600 44
11601 12
11602 220
11603 279
11604 17
11605 275
11606 210
11607 262
11608 254
11609 242
11610 333
11611 285
11612 281
11613 52
11614 291
11615 351
11616 241
11617 46
11618 276
11619 107
11620 280
11621 44
11622 173
11623 259
11624 318
11625 207
11626 159
11627 260
11628 30
11629 277
11630 162
11631 180
11632 225
11633 159
11634 83
11635 44
11636 301
11637 326
11638 44
11639 222
11640 184
11641 249
11642 183
11643 271
11644 188
11645 169
11646 12
11647 9
11648 330
11649 12
11650 17
11651 119
11652 290
11653 54
11654 108
11655 26
11656 311
11657 297
11658 229
11659 21
11660 104
11661 219
11662 81
11663 218
11664 241
11665 81
11666 242
11667 21
11668 200
11669 33
11670 45
11671 251
11672 94
11673 107
11674 184
11675 180
11676 214
11677 62
11678 120
11679 10
11680 158
11681 255
11682 57
11683 290
11684 308
11685 95
11686 26
11687 88
11688 324
11689 62
11690 222
11691 12
11692 155
11693 68
11694 176
11695 116
11696 146
11697 294
11698 54
11699 38
11700 25
11701 298
11702 45
11703 50
11704 113
11705 277
11706 334
11707 97
11708 155
11709 277
11710 47
11711 82
11712 136
11713 104
11714 326
11715 174
11716 155
11717 26
11718 216
11719 342
11720 25
11721 294
11722 25
11723 275
11724 277
11725 219
11726 312
11727 229
11728 12
11729 269
11730 31
11731 236
11732 162
11733 334
11734 11
11735 22
11736 120
11737 293
11738 200
11739 82
11740 48
11741 79
11742 132
11743 22
11744 236
11745 222
11746 241
11747 25
11748 237
11749 48
11750 281
11751 343
11752 171
11753 311
11754 36
11755 96
11756 299
11757 66
11758 148
11759 25
11760 21
11761 278
11762 165
11763 193
11764 138
11765 209
11766 97
11767 28
11768 241
11769 62
11770 241
11771 268
11772 31
11773 259
11774 334
11775 54
11776 54
11777 179
11778 311
11779 133
11780 220
11781 96
11782 189
11783 281
11784 259
11785 122
11786 52
11787 290
11788 117
11789 176
11790 104
11791 20
11792 108
11793 261
11794 44
11795 92
11796 26
11797 300
11798 263
11799 25
11800 159
11801 75
11802 36
11803 50
11804 41
11805 79
11806 281
11807 143
11808 278
11809 227
11810 66
11811 39
11812 290
11813 229
11814 158
11815 80
11816 122
11817 96
11818 87
11819 326
11820 343
11821 79
11822 120
11823 281
11824 12
11825 173
11826 275
11827 68
11828 142
11829 242
11830 107
11831 301
11832 47
11833 331
11834 36
11835 107
11836 155
11837 120
11838 222
11839 21
11840 59
11841 257
11842 292
11843 179
11844 59
11845 85
11846 260
11847 62
11848 249
11849 241
11850 325
11851 25
11852 107
11853 226
11854 298
11855 50
11856 298
11857 199
11858 229
11859 145
11860 120
11861 63
11862 71
11863 189
11864 282
11865 271
11866 24
11867 11
11868 319
11869 3
11870 230
11871 44
11872 135
11873 96
11874 315
11875 279
11876 8
11877 237
11878 79
11879 110
11880 14
11881 222
11882 25
11883 101
11884 80
11885 52
11886 297
11887 311
11888 125
11889 326
11890 32
11891 228
11892 189
11893 292
11894 298
11895 247
11896 32
11897 275
11898 16
11899 104
11900 167
11901 301
11902 80
11903 95
11904 272
11905 83
11906 52
11907 222
11908 14
11909 53
11910 274
11911 105
11912 107
11913 26
11914 160
11915 155
11916 263
11917 220
11918 26
11919 265
11920 337
11921 261
11922 126
11923 82
11924 275
11925 45
11926 9
11927 93
11928 119
11929 101
11930 35
11931 26
11932 311
11933 318
11934 242
11935 307
11936 44
11937 59
11938 45
11939 193
11940 222
11941 9
11942 142
11943 38
11944 195
11945 155
11946 25
11947 10
11948 166
11949 22
11950 346
11951 9
11952 96
11953 52
11954 43
11955 293
11956 82
11957 49
11958 67
11959 194
11960 96
11961 309
11962 131
11963 21
11964 331
11965 229
11966 116
11967 26
11968 33
11969 131
11970 339
11971 192
11972 294
11973 292
11974 97
11975 281
11976 21
11977 302
11978 79
11979 49
11980 44
11981 269
11982 79
11983 183
11984 97
11985 107
11986 96
11987 192
11988 119
11989 30
11990 79
11991 19
11992 8
11993 301
11994 171
11995 318
11996 12
11997 301
11998 91
11999 25
12000 145
12001 164
12002 8
12003 57
12004 139
12005 47
12006 189
12007 36
12008 72
12009 109
12010 30
12011 207
12012 297
12013 144
12014 68
12015 105
12016 50
12017 68
12018 85
12019 261
12020 47
12021 19
12022 147
12023 94
12024 12
12025 178
12026 54
12027 9
12028 294
12029 295
12030 197
12031 144
12032 12
12033 126
12034 340
12035 136
12036 17
12037 35
12038 133
12039 170
12040 68
12041 95
12042 248
12043 242
12044 62
12045 136
12046 307
12047 30
12048 102
12049 115
12050 281
12051 222
12052 136
12053 252
12054 54
12055 7
12056 255
12057 293
12058 80
12059 136
12060 243
12061 42
12062 48
12063 306
12064 313
12065 101
12066 26
12067 210
12068 262
12069 15
12070 236
12071 53
12072 133
12073 343
12074 12
12075 240
12076 66
12077 326
12078 114
12079 44
12080 311
12081 26
12082 128
12083 205
12084 105
12085 193
12086 66
12087 56
12088 104
12089 255
12090 241
12091 95
12092 334
12093 144
12094 238
12095 32
12096 326
12097 106
12098 259
12099 37
12100 92
12101 135
12102 26
12103 275
12104 96
12105 77
12106 226
12107 94
12108 22
12109 193
12110 290
12111 216
12112 164
12113 26
12114 182
12115 12
12116 196
12117 247
12118 241
12119 255
12120 261
12121 36
12122 133
12123 238
12124 48
12125 67
12126 12
12127 68
12128 25
12129 247
12130 22
12131 116
12132 297
12133 43
12134 145
12135 95
12136 12
12137 59
12138 12
12139 261
12140 14
12141 20
12142 227
12143 257
12144 311
12145 20
12146 259
12147 72
12148 206
12149 136
12150 87
12151 277
12152 162
12153 12
12154 30
12155 247
12156 205
12157 100
12158 120
12159 25
12160 107
12161 18
12162 80
12163 53
12164 285
12165 172
12166 21
12167 144
12168 80
12169 223
12170 172
12171 47
12172 136
12173 53
12174 277
12175 104
12176 50
12177 297
12178 238
12179 120
12180 130
12181 293
12182 193
12183 26
12184 162
12185 222
12186 84
12187 150
12188 236
12189 204
12190 342
12191 28
12192 9
12193 155
12194 182
12195 52
12196 59
12197 329
12198 261
12199 220
12200 265
12201 245
12202 41
12203 26
12204 164
12205 50
12206 210
12207 52
12208 216
12209 274
12210 243
12211 204
12212 30
12213 290
12214 97
12215 238
12216 96
12217 290
12218 48
12219 25
12220 249
12221 21
12222 129
12223 292
12224 160
12225 222
12226 339
12227 112
12228 9
12229 173
12230 311
12231 211
12232 314
12233 194
12234 176
12235 275
12236 36
12237 303
12238 21
12239 80
12240 68
12241 222
12242 1
12243 18
12244 276
12245 220
12246 180
12247 271
12248 259
12249 26
12250 68
12251 234
12252 288
12253 12
12254 41
12255 136
12256 155
12257 243
12258 12
12259 155
12260 53
12261 71
12262 158
12263 173
12264 126
12265 104
12266 62
12267 139
12268 97
12269 85
12270 135
12271 154
12272 219
12273 222
12274 172
12275 31
12276 334
12277 325
12278 115
12279 180
12280 31
12281 247
12282 147
12283 77
12284 128
12285 31
12286 292
12287 297
12288 89
12289 69
12290 31
12291 310
12292 255
12293 303
12294 227
12295 272
12296 153
12297 292
12298 142
12299 168
12300 54
12301 9
12302 100
12303 266
12304 218
12305 277
12306 180
12307 12
12308 202
12309 237
12310 141
12311 21
12312 287
12313 182
12314 278
12315 71
12316 7
12317 284
12318 7
12319 166
12320 144
12321 275
12322 175
12323 63
12324 182
12325 255
12326 50
12327 291
12328 226
12329 18
12330 24
12331 143
12332 35
12333 213
12334 242
12335 262
12336 277
12337 101
12338 68
12339 155
12340 200
12341 105
12342 155
12343 44
12344 302
12345 271
12346 40
12347 130
12348 212
12349 32
12350 251
12351 104
12352 317
12353 96
12354 176
12355 200
12356 179
12357 200
12358 47
12359 287
12360 45
12361 61
12362 41
12363 264
12364 162
12365 31
