0 0
1 1
2 2
3 3
4 4
5 5
6 6
7 5
8 1
9 7
10 8
11 9
12 10
13 11
14 12
15 13
16 14
17 15
18 16
19 17
20 2
21 18
22 19
23 20
24 21
25 22
26 20
27 23
28 15
29 16
30 24
31 17
32 25
33 26
34 27
35 22
36 24
37 28
38 29
39 30
40 31
41 32
42 33
43 34
44 30
45 2
46 35
47 36
48 37
49 38
50 4
51 39
52 40
53 39
54 6
55 26
56 41
57 42
58 43
59 44
60 32
61 45
62 46
63 30
64 39
65 42
66 36
67 47
68 5
69 48
70 49
71 50
72 51
73 52
74 53
75 54
76 0
77 55
78 56
79 55
80 16
81 57
82 58
83 59
84 4
85 55
86 6
87 60
88 61
89 36
90 62
91 63
92 64
93 15
94 30
95 56
96 65
97 66
98 31
99 67
100 2
101 54
102 25
103 53
104 67
105 30
106 66
107 29
108 68
109 9
110 1
111 67
112 69
113 44
114 35
115 70
116 71
117 12
118 40
119 10
120 72
121 73
122 19
123 48
124 59
125 36
126 74
127 75
128 45
129 44
130 69
131 55
132 55
133 62
134 76
135 77
136 3
137 74
138 5
139 78
140 10
141 79
142 46
143 8
144 24
145 80
146 37
147 32
148 81
149 19
150 44
151 82
152 5
153 64
154 35
155 83
156 70
157 84
158 85
159 42
160 43
161 37
162 82
163 86
164 68
165 42
166 17
167 57
168 78
169 56
170 18
171 63
172 64
173 87
174 57
175 53
176 32
177 12
178 53
179 5
180 88
181 47
182 89
183 7
184 59
185 90
186 71
187 30
188 63
189 91
190 89
191 65
192 70
193 80
194 26
195 92
196 37
197 93
198 65
199 78
200 94
201 95
202 69
203 14
204 7
205 8
206 96
207 37
208 55
209 74
210 45
211 97
212 83
213 42
214 98
215 99
216 37
217 63
218 27
219 16
220 100
221 55
222 26
223 22
224 67
225 65
226 65
227 56
228 28
229 47
230 44
231 13
232 65
233 99
234 16
235 77
236 87
237 90
238 39
239 100
240 49
241 54
242 49
243 67
244 9
245 62
246 87
247 51
248 97
249 38
250 12
251 27
252 101
253 78
254 77
255 1
256 28
257 77
258 63
259 40
260 39
261 50
262 26
263 50
264 81
265 79
266 102
267 49
268 82
269 29
270 39
271 84
272 58
273 85
274 40
275 39
276 25
277 54
278 32
279 51
280 67
281 20
282 6
283 14
284 103
285 90
286 8
287 33
288 21
289 23
290 86
291 64
292 19
293 53
294 59
295 54
296 23
297 104
298 93
299 6
300 17
301 82
302 18
303 13
304 105
305 14
306 12
307 106
308 83
309 63
310 30
311 58
312 71
313 14
314 70
315 3
316 84
317 99
318 22
319 29
320 30
321 79
322 63
323 107
324 108
325 5
326 21
327 10
328 81
329 43
330 109
331 99
332 22
333 110
334 45
335 20
336 30
337 44
338 97
339 28
340 5
341 66
342 56
343 59
344 23
345 11
346 105
347 72
348 93
349 69
350 94
351 94
352 78
353 35
354 50
355 70
356 13
357 59
358 80
359 57
360 42
361 55
362 49
363 37
364 77
365 78
366 55
367 67
368 16
369 49
370 45
371 44
372 68
373 82
374 18
375 66
376 2
377 79
378 103
379 78
380 105
381 111
382 31
383 4
384 112
385 61
386 71
387 44
388 85
389 18
390 71
391 15
392 3
393 111
394 31
395 13
396 92
397 17
398 37
399 65
400 77
401 85
402 7
403 10
404 35
405 77
406 91
407 107
408 84
409 45
410 37
411 17
412 59
413 0
414 48
415 76
416 93
417 13
418 87
419 99
420 29
421 1
422 78
423 57
424 16
425 100
426 113
427 72
428 31
429 35
430 56
431 83
432 99
433 98
434 97
435 30
436 26
437 111
438 94
439 69
440 29
441 85
442 75
443 17
444 114
445 0
446 39
447 73
448 42
449 115
450 5
451 21
452 52
453 19
454 5
455 98
456 54
457 60
458 17
459 75
460 61
461 34
462 16
463 11
464 115
465 84
466 64
467 32
468 68
469 77
470 58
471 107
472 36
473 77
474 30
475 116
476 69
477 65
478 40
479 49
480 16
481 84
482 49
483 59
484 102
485 103
486 43
487 64
488 63
489 104
490 57
491 117
492 51
493 72
494 50
495 87
496 29
497 60
498 39
499 1
500 101
501 114
502 30
503 13
504 89
505 80
506 111
507 60
508 99
509 82
510 104
511 80
512 97
513 40
514 118
515 97
516 89
517 119
518 63
519 110
520 43
521 73
522 1
523 32
524 40
525 36
526 119
527 68
528 16
529 40
530 93
531 50
532 30
533 105
534 61
535 66
536 77
537 29
538 113
539 52
540 120
541 67
542 64
543 60
544 92
545 31
546 110
547 76
548 80
549 92
550 1
551 79
552 69
553 100
554 14
555 103
556 24
557 36
558 28
559 46
560 100
561 59
562 96
563 8
564 53
565 121
566 12
567 11
568 85
569 93
570 92
571 63
572 40
573 50
574 121
575 122
576 63
577 26
578 1
579 27
580 92
581 16
582 35
583 71
584 65
585 8
586 53
587 69
588 66
589 46
590 72
591 28
592 87
593 82
594 63
595 120
596 105
597 5
598 47
599 60
600 89
601 90
602 36
603 6
604 51
605 59
606 10
607 8
608 66
609 89
610 88
611 67
612 68
613 103
614 30
615 110
616 16
617 48
618 7
619 110
620 51
621 8
622 78
623 58
624 40
625 9
626 46
627 48
628 28
629 79
630 35
631 68
632 114
633 16
634 2
635 49
636 80
637 2
638 102
639 73
640 78
641 88
642 91
643 29
644 40
645 26
646 120
647 44
648 59
649 100
650 26
651 77
652 73
653 49
654 65
655 52
656 105
657 89
658 107
659 102
660 18
661 14
662 58
663 78
664 80
665 97
666 116
667 74
668 58
669 120
670 98
671 14
672 14
673 54
674 69
675 102
676 93
677 113
678 36
679 25
680 62
681 94
682 42
683 11
684 13
685 53
686 13
687 70
688 47
689 118
690 16
691 34
692 29
693 27
694 93
695 65
696 24
697 40
698 51
699 30
700 81
701 80
702 122
703 67
704 71
705 49
706 77
707 48
708 113
709 93
710 75
711 37
712 33
713 120
714 32
715 2
716 4
717 78
718 59
719 77
720 83
721 53
722 5
723 21
724 1
725 10
726 23
727 85
728 80
729 37
730 53
731 45
732 91
733 81
734 81
735 47
736 105
737 119
738 5
739 112
740 70
741 26
742 92
743 103
744 79
745 87
746 26
747 77
748 122
749 94
750 64
751 56
752 40
753 30
754 58
755 30
756 81
757 116
758 69
759 90
760 10
761 4
762 14
763 18
764 20
765 109
766 88
767 12
768 110
769 7
770 60
771 109
772 89
773 46
774 48
775 64
776 107
777 42
778 51
779 92
780 55
781 6
782 118
783 2
784 68
785 26
786 2
787 9
788 67
789 96
790 47
791 72
792 12
793 29
794 58
795 10
796 35
797 103
798 1
799 8
800 53
801 81
802 77
803 104
804 9
805 111
806 64
807 105
808 81
809 65
810 113
811 8
812 3
813 6
814 51
815 8
816 8
817 103
818 93
819 28
820 91
821 33
822 54
823 5
824 33
825 111
826 1
827 68
828 87
829 42
830 13
831 92
832 50
833 93
834 55
835 30
836 29
837 24
838 51
839 85
840 87
841 34
842 21
843 112
844 55
845 115
846 91
847 62
848 94
849 91
850 60
851 49
852 64
853 86
854 57
855 83
856 63
857 40
858 17
859 57
860 91
861 32
862 75
863 24
864 109
865 54
866 30
867 55
868 11
869 100
870 81
871 75
872 36
873 22
874 77
875 51
876 13
877 117
878 74
879 53
880 91
881 107
882 36
883 109
884 104
885 1
886 87
887 65
888 63
889 83
890 112
891 16
892 119
893 13
894 63
895 98
896 72
897 72
898 40
899 40
900 49
901 37
902 33
903 35
904 77
905 18
906 61
907 67
908 101
909 49
910 113
911 8
912 92
913 105
914 20
915 62
916 75
917 54
918 109
919 81
920 71
921 87
922 81
923 110
924 95
925 80
926 51
927 10
928 72
929 37
930 92
931 39
932 2
933 54
934 59
935 120
936 81
937 67
938 47
939 81
940 48
941 33
942 71
943 49
944 2
945 30
946 23
947 88
948 9
949 2
950 86
951 47
952 59
953 83
954 8
955 92
956 3
957 5
958 113
959 59
960 98
961 111
962 89
963 56
964 84
965 119
966 35
967 19
968 108
969 85
970 16
971 105
972 30
973 93
974 2
975 52
976 55
977 57
978 19
979 23
980 39
981 95
982 86
983 75
984 54
985 92
986 49
987 0
988 24
989 35
990 110
991 53
992 35
993 46
994 27
995 26
996 43
997 16
998 88
999 65
1000 77
1001 86
1002 49
1003 17
1004 68
1005 106
1006 103
1007 87
1008 109
1009 67
1010 36
1011 78
1012 109
1013 60
1014 30
1015 35
1016 3
1017 42
1018 69
1019 43
1020 16
1021 81
1022 1
1023 28
1024 63
1025 96
1026 95
1027 85
1028 17
1029 5
1030 51
1031 5
1032 59
1033 41
1034 16
1035 116
1036 40
1037 17
1038 3
1039 28
1040 109
1041 115
1042 1
1043 31
1044 73
1045 58
1046 110
1047 88
1048 8
1049 103
1050 88
1051 40
1052 39
1053 27
1054 57
1055 65
1056 103
1057 80
1058 94
1059 95
1060 49
1061 63
1062 42
1063 95
1064 49
1065 46
1066 65
1067 49
1068 24
1069 94
1070 50
1071 89
1072 95
1073 89
1074 15
1075 96
1076 22
1077 85
1078 85
1079 83
1080 44
1081 92
1082 85
1083 67
1084 31
1085 22
1086 99
1087 81
1088 42
1089 87
1090 81
1091 45
1092 72
1093 78
1094 54
1095 11
1096 88
1097 78
1098 112
1099 67
1100 91
1101 81
1102 5
1103 66
1104 60
1105 59
1106 57
1107 13
1108 63
1109 65
1110 44
1111 31
1112 112
1113 70
1114 58
1115 111
1116 8
1117 109
1118 60
1119 71
1120 22
1121 53
1122 99
1123 99
1124 35
1125 52
1126 75
1127 50
1128 2
1129 101
1130 45
1131 120
1132 24
1133 68
1134 15
1135 109
1136 47
1137 27
1138 89
1139 38
1140 39
1141 37
1142 98
1143 36
1144 87
1145 75
1146 40
1147 58
1148 31
1149 37
1150 11
1151 8
1152 73
1153 102
1154 43
1155 97
1156 118
1157 111
1158 93
1159 90
1160 112
1161 2
1162 106
1163 78
1164 32
1165 59
1166 112
1167 58
1168 67
1169 61
1170 79
1171 89
1172 28
1173 15
1174 61
1175 93
1176 73
1177 88
1178 5
1179 72
1180 40
1181 57
1182 46
1183 120
1184 56
1185 102
1186 104
1187 107
1188 112
1189 5
1190 40
1191 45
1192 86
1193 85
1194 1
1195 96
1196 74
1197 65
1198 51
1199 109
1200 122
1201 87
1202 114
1203 69
1204 26
1205 31
1206 66
1207 39
1208 110
1209 21
1210 5
1211 6
1212 111
1213 74
1214 8
1215 112
1216 2
1217 108
1218 114
1219 80
1220 73
1221 60
1222 66
1223 74
1224 58
1225 8
1226 33
1227 92
1228 51
1229 32
1230 24
1231 46
1232 90
1233 4
1234 121
1235 37
1236 17
1237 21
1238 46
1239 0
1240 5
1241 52
1242 5
1243 35
1244 53
1245 102
1246 112
1247 13
1248 45
1249 7
1250 116
1251 44
1252 104
1253 85
1254 86
1255 111
1256 44
1257 90
1258 23
1259 110
1260 82
1261 3
1262 58
1263 85
1264 0
1265 25
1266 26
1267 123
1268 49
1269 33
1270 66
1271 49
1272 7
1273 77
1274 53
1275 20
1276 38
1277 91
1278 40
1279 30
1280 85
1281 36
1282 50
1283 27
1284 80
1285 101
1286 47
1287 66
1288 13
1289 64
1290 12
1291 53
1292 14
1293 104
1294 16
1295 106
1296 58
1297 79
1298 105
1299 62
1300 107
1301 66
1302 83
1303 103
1304 88
1305 59
1306 21
1307 76
1308 17
1309 23
1310 57
1311 43
1312 104
1313 78
1314 1
1315 42
1316 63
1317 35
1318 86
1319 17
1320 122
1321 84
1322 7
1323 57
1324 23
1325 61
1326 72
1327 2
1328 34
1329 58
1330 95
1331 93
1332 39
1333 99
1334 26
1335 61
1336 4
1337 93
1338 99
1339 120
1340 30
1341 9
1342 42
1343 99
1344 30
1345 93
1346 102
1347 14
1348 67
1349 102
1350 69
1351 32
1352 65
1353 21
1354 31
1355 65
1356 119
1357 86
1358 63
1359 85
1360 3
1361 91
1362 16
1363 94
1364 69
1365 107
1366 100
1367 124
1368 49
1369 69
1370 45
1371 83
1372 32
1373 35
1374 59
1375 65
1376 64
1377 16
1378 98
1379 48
1380 5
1381 25
1382 75
1383 89
1384 0
1385 76
1386 37
1387 109
1388 74
1389 47
1390 86
1391 98
1392 1
1393 60
1394 12
1395 42
1396 67
1397 76
1398 115
1399 55
1400 59
1401 69
1402 9
1403 104
1404 50
1405 11
1406 94
1407 54
1408 101
1409 13
1410 24
1411 1
1412 69
1413 80
1414 102
1415 49
1416 62
1417 45
1418 8
1419 56
1420 72
1421 54
1422 26
1423 117
1424 92
1425 102
1426 56
1427 55
1428 56
1429 44
1430 32
1431 2
1432 20
1433 81
1434 102
1435 60
1436 37
1437 18
1438 76
1439 117
1440 24
1441 48
1442 4
1443 35
1444 91
1445 3
1446 119
1447 61
1448 88
1449 36
1450 49
1451 68
1452 71
1453 120
1454 36
1455 14
1456 34
1457 73
1458 1
1459 34
1460 45
1461 45
1462 72
1463 116
1464 48
1465 48
1466 65
1467 76
1468 27
1469 56
1470 5
1471 15
1472 42
1473 71
1474 27
1475 76
1476 88
1477 87
1478 50
1479 16
1480 58
1481 120
1482 62
1483 59
1484 53
1485 32
1486 86
1487 89
1488 57
1489 69
1490 31
1491 84
1492 98
1493 70
1494 82
1495 4
1496 83
1497 56
1498 14
1499 70
1500 105
1501 77
1502 45
1503 48
1504 68
1505 2
1506 84
1507 35
1508 39
1509 44
1510 88
1511 0
1512 2
1513 38
1514 52
1515 54
1516 10
1517 59
1518 84
1519 32
1520 39
1521 35
1522 80
1523 109
1524 10
1525 42
1526 85
1527 23
1528 1
1529 88
1530 102
1531 42
1532 71
1533 85
1534 104
1535 4
1536 8
1537 13
1538 113
1539 11
1540 67
1541 20
1542 46
1543 97
1544 87
1545 93
1546 86
1547 8
1548 40
1549 25
1550 22
1551 32
1552 103
1553 53
1554 108
1555 44
1556 40
1557 105
1558 68
1559 1
1560 104
1561 17
1562 33
1563 82
1564 59
1565 109
1566 65
1567 42
1568 45
1569 35
1570 27
1571 44
1572 58
1573 34
1574 52
1575 88
1576 82
1577 1
1578 61
1579 25
1580 97
1581 63
1582 56
1583 11
1584 65
1585 80
1586 18
1587 23
1588 56
1589 62
1590 82
1591 15
1592 54
1593 93
1594 48
1595 39
1596 70
1597 99
1598 118
1599 4
1600 55
1601 3
1602 56
1603 77
1604 53
1605 39
1606 52
1607 68
1608 14
1609 6
1610 91
1611 52
1612 27
1613 49
1614 116
1615 83
1616 62
1617 27
1618 91
1619 115
1620 14
1621 94
1622 21
1623 25
1624 60
1625 117
1626 2
1627 4
1628 64
1629 77
1630 89
1631 58
1632 100
1633 94
1634 48
1635 66
1636 39
1637 54
1638 79
1639 4
1640 105
1641 88
1642 70
1643 62
1644 50
1645 91
1646 61
1647 19
1648 2
1649 30
1650 67
1651 21
1652 62
1653 35
1654 1
1655 116
1656 63
1657 17
1658 85
1659 2
1660 117
1661 74
1662 101
1663 1
1664 49
1665 72
1666 57
1667 1
1668 73
1669 67
1670 105
1671 8
1672 73
1673 100
1674 81
1675 59
1676 55
1677 29
1678 36
1679 83
1680 47
1681 90
1682 37
1683 69
1684 87
1685 1
1686 97
1687 102
1688 34
1689 57
1690 56
1691 41
1692 55
1693 100
1694 91
1695 17
1696 86
1697 64
1698 43
1699 119
1700 60
1701 36
1702 59
1703 57
1704 21
1705 24
1706 2
1707 89
1708 55
1709 92
1710 52
1711 95
1712 92
1713 34
1714 4
1715 14
1716 76
1717 76
1718 39
1719 67
1720 35
1721 62
1722 92
1723 122
1724 30
1725 119
1726 31
1727 72
1728 89
1729 19
1730 90
1731 89
1732 13
1733 120
1734 52
1735 91
1736 70
1737 10
1738 27
1739 16
1740 32
1741 39
1742 8
1743 64
1744 67
1745 25
1746 36
1747 53
1748 38
1749 4
1750 15
1751 53
1752 80
1753 103
1754 94
1755 45
1756 106
1757 84
1758 41
1759 56
1760 45
1761 58
1762 10
1763 65
1764 116
1765 26
1766 48
1767 85
1768 85
1769 60
1770 101
1771 97
1772 56
1773 42
1774 3
1775 65
1776 27
1777 37
1778 28
1779 94
1780 20
1781 88
1782 125
1783 19
1784 51
1785 101
1786 48
1787 49
1788 98
1789 72
1790 17
1791 110
1792 59
1793 36
1794 30
1795 35
1796 92
1797 102
1798 67
1799 102
1800 13
1801 49
1802 92
1803 16
1804 62
1805 50
1806 29
1807 52
1808 16
1809 33
1810 89
1811 40
1812 48
1813 14
1814 29
1815 17
1816 56
1817 111
1818 13
1819 86
1820 54
1821 70
1822 13
1823 13
1824 43
1825 49
1826 39
1827 76
1828 85
1829 2
1830 31
1831 83
1832 0
1833 15
1834 2
1835 65
1836 121
1837 20
1838 26
1839 103
1840 40
1841 84
1842 64
1843 65
1844 58
1845 59
1846 17
1847 62
1848 85
1849 53
1850 35
1851 32
1852 54
1853 85
1854 53
1855 83
1856 106
1857 65
1858 75
1859 35
1860 45
1861 98
1862 99
1863 65
1864 89
1865 52
1866 59
1867 0
1868 58
1869 59
1870 103
1871 48
1872 5
1873 43
1874 119
1875 94
1876 22
1877 69
1878 93
1879 56
1880 15
1881 56
1882 30
1883 56
1884 43
1885 26
1886 49
1887 62
1888 35
1889 59
1890 20
1891 113
1892 37
1893 45
1894 66
1895 64
1896 105
1897 85
1898 16
1899 19
1900 25
1901 54
1902 4
1903 69
1904 77
1905 81
1906 32
1907 56
1908 67
1909 71
1910 122
1911 28
1912 105
1913 22
1914 98
1915 3
1916 14
1917 116
1918 122
1919 28
1920 29
1921 17
1922 103
1923 84
1924 66
1925 40
1926 109
1927 91
1928 103
1929 67
1930 116
1931 103
1932 27
1933 69
1934 39
1935 70
1936 50
1937 73
1938 95
1939 100
1940 77
1941 13
1942 44
1943 95
1944 65
1945 95
1946 1
1947 90
1948 120
1949 8
1950 108
1951 76
1952 107
1953 103
1954 77
1955 102
1956 86
1957 89
1958 79
1959 97
1960 77
1961 5
1962 83
1963 58
1964 24
1965 45
1966 75
1967 10
1968 101
1969 4
1970 58
1971 75
1972 39
1973 109
1974 74
1975 1
1976 55
1977 98
1978 73
1979 83
1980 16
1981 112
1982 77
1983 51
1984 7
1985 51
1986 85
1987 101
1988 27
1989 121
1990 29
1991 24
1992 39
1993 74
1994 11
1995 107
1996 83
1997 25
1998 42
1999 85
2000 35
2001 85
2002 67
2003 98
2004 78
2005 105
2006 84
2007 78
2008 89
2009 35
2010 103
2011 5
2012 27
2013 15
2014 57
2015 99
2016 126
2017 5
2018 100
2019 117
2020 28
2021 84
2022 26
2023 44
2024 101
2025 51
2026 89
2027 59
2028 18
2029 84
2030 20
2031 9
2032 64
2033 114
2034 100
2035 17
2036 32
2037 4
2038 75
2039 58
2040 98
2041 112
2042 9
2043 22
2044 94
2045 117
2046 2
2047 121
2048 117
2049 9
2050 39
2051 29
2052 18
2053 63
2054 54
2055 11
2056 94
2057 92
2058 71
2059 3
2060 64
2061 9
2062 87
2063 16
2064 77
2065 1
2066 46
2067 22
2068 9
2069 53
2070 90
2071 88
2072 33
2073 76
2074 70
2075 119
2076 56
2077 66
2078 49
2079 53
2080 112
2081 85
2082 81
2083 86
2084 55
2085 57
2086 86
2087 100
2088 119
2089 80
2090 12
2091 102
2092 117
2093 40
2094 75
2095 30
2096 16
2097 79
2098 7
2099 121
2100 78
2101 63
2102 63
2103 39
2104 60
2105 101
2106 121
2107 2
2108 72
2109 75
2110 16
2111 8
2112 9
2113 82
2114 24
2115 79
2116 24
2117 72
2118 48
2119 13
2120 56
2121 91
2122 109
2123 82
2124 83
2125 70
2126 117
2127 94
2128 117
2129 8
2130 19
2131 89
2132 37
2133 65
2134 49
2135 72
2136 106
2137 102
2138 34
2139 43
2140 31
2141 64
2142 20
2143 88
2144 16
2145 75
2146 12
2147 4
2148 42
2149 72
2150 29
2151 46
2152 93
2153 82
2154 97
2155 120
2156 68
2157 69
2158 43
2159 84
2160 2
2161 92
2162 110
2163 17
2164 72
2165 67
2166 69
2167 40
2168 122
2169 33
2170 13
2171 55
2172 40
2173 48
2174 54
2175 74
2176 104
2177 44
2178 67
2179 64
2180 75
2181 16
2182 54
2183 93
2184 105
2185 1
2186 15
2187 53
2188 81
2189 6
2190 14
2191 51
2192 77
2193 34
2194 110
2195 105
2196 88
2197 81
2198 32
2199 112
2200 24
2201 55
2202 17
2203 82
2204 1
2205 64
2206 71
2207 37
2208 96
2209 59
2210 43
2211 53
2212 85
2213 89
2214 30
2215 29
2216 3
2217 6
2218 72
2219 95
2220 15
2221 34
2222 5
2223 111
2224 70
2225 69
2226 42
2227 120
2228 20
2229 50
2230 17
2231 57
2232 89
2233 85
2234 12
2235 113
2236 40
2237 75
2238 64
2239 53
2240 59
2241 55
2242 62
2243 32
2244 12
2245 108
2246 100
2247 67
2248 85
2249 78
2250 45
2251 83
2252 91
2253 69
2254 88
2255 83
2256 95
2257 28
2258 87
2259 56
2260 39
2261 21
2262 80
2263 11
2264 62
2265 39
2266 50
2267 46
2268 39
2269 9
2270 27
2271 43
2272 82
2273 119
2274 27
2275 91
2276 13
2277 42
2278 41
2279 97
2280 5
2281 28
2282 76
2283 97
2284 78
2285 4
2286 45
2287 5
2288 55
2289 47
2290 40
2291 84
2292 82
2293 96
2294 117
2295 50
2296 68
2297 109
2298 32
2299 45
2300 77
2301 39
2302 1
2303 109
2304 69
2305 120
2306 21
2307 36
2308 16
2309 108
2310 22
2311 89
2312 29
2313 120
2314 82
2315 103
2316 10
2317 70
2318 43
2319 20
2320 89
2321 60
2322 43
2323 109
2324 60
2325 58
2326 40
2327 53
2328 15
2329 80
2330 51
2331 107
2332 76
2333 55
2334 103
2335 102
2336 20
2337 120
2338 65
2339 60
2340 65
2341 61
2342 19
2343 67
2344 58
2345 43
2346 111
2347 12
2348 24
2349 81
2350 57
2351 39
2352 57
2353 105
2354 30
2355 53
2356 52
2357 79
2358 56
2359 26
2360 94
2361 63
2362 44
2363 65
2364 66
2365 116
2366 47
2367 19
2368 119
2369 65
2370 60
2371 40
2372 120
2373 94
2374 63
2375 108
2376 56
2377 87
2378 77
2379 8
2380 33
2381 68
2382 77
2383 93
2384 36
2385 34
2386 112
2387 64
2388 68
2389 78
2390 79
2391 28
2392 68
2393 16
2394 28
2395 18
2396 10
2397 100
2398 11
2399 70
2400 69
2401 104
2402 17
2403 49
2404 109
2405 101
2406 29
2407 30
2408 49
2409 84
2410 63
2411 13
2412 110
2413 13
2414 82
2415 84
2416 93
2417 42
2418 9
2419 28
2420 112
2421 59
2422 57
2423 116
2424 63
2425 36
2426 17
2427 72
2428 19
2429 60
2430 54
2431 26
2432 109
2433 59
2434 13
2435 101
2436 16
2437 75
2438 21
2439 16
2440 85
2441 8
2442 103
2443 116
2444 43
2445 9
2446 92
2447 63
2448 37
2449 108
2450 111
2451 108
2452 59
2453 104
2454 28
2455 99
2456 109
2457 105
2458 61
2459 78
2460 17
2461 17
2462 89
2463 39
2464 93
2465 44
2466 25
2467 96
2468 60
2469 45
2470 10
2471 105
2472 94
2473 112
2474 103
2475 62
2476 47
2477 23
2478 33
2479 17
2480 118
2481 105
2482 89
2483 79
2484 3
2485 94
2486 50
2487 78
2488 7
2489 62
2490 17
2491 10
2492 3
2493 103
2494 63
2495 39
2496 51
2497 115
2498 115
2499 20
2500 16
2501 59
2502 85
2503 37
2504 110
2505 14
2506 66
2507 84
2508 111
2509 29
2510 59
2511 85
2512 8
2513 83
2514 5
2515 42
2516 6
2517 47
2518 5
2519 1
2520 87
2521 116
2522 94
2523 122
2524 14
2525 0
2526 7
2527 48
2528 64
2529 89
2530 89
2531 69
2532 75
2533 1
2534 55
2535 95
2536 116
2537 67
2538 0
2539 20
2540 76
2541 60
2542 94
2543 1
2544 115
2545 113
2546 72
2547 105
2548 111
2549 62
2550 64
2551 84
2552 35
2553 76
2554 45
2555 109
2556 73
2557 22
2558 63
2559 85
2560 18
2561 34
2562 22
2563 107
2564 115
2565 70
2566 98
2567 85
2568 31
2569 98
2570 103
2571 76
2572 54
2573 92
2574 2
2575 64
2576 97
2577 10
2578 7
2579 42
2580 92
2581 101
2582 85
2583 2
2584 103
2585 35
2586 86
2587 90
2588 85
2589 54
2590 84
2591 22
2592 59
2593 16
2594 76
2595 53
2596 25
2597 24
2598 52
2599 34
2600 23
2601 2
2602 30
2603 90
2604 6
2605 116
2606 57
2607 67
2608 59
2609 8
2610 46
2611 14
2612 118
2613 67
2614 63
2615 27
2616 39
2617 26
2618 69
2619 112
2620 27
2621 34
2622 14
2623 57
2624 78
2625 53
2626 94
2627 32
2628 81
2629 100
2630 61
2631 68
2632 118
2633 88
2634 94
2635 103
2636 18
2637 85
2638 80
2639 70
2640 95
2641 5
2642 4
2643 57
2644 71
2645 121
2646 12
2647 56
2648 16
2649 57
2650 103
2651 33
2652 60
2653 87
2654 30
2655 35
2656 50
2657 109
2658 2
2659 9
2660 67
2661 4
2662 111
2663 6
2664 46
2665 49
2666 23
2667 9
2668 72
2669 9
2670 100
2671 89
2672 41
2673 116
2674 40
2675 96
2676 4
2677 61
2678 35
2679 24
2680 122
2681 79
2682 73
2683 111
2684 40
2685 15
2686 108
2687 65
2688 69
2689 82
2690 35
2691 39
2692 66
2693 58
2694 63
2695 33
2696 40
2697 53
2698 83
2699 112
2700 96
2701 12
2702 1
2703 110
2704 8
2705 120
2706 103
2707 8
2708 11
2709 29
2710 51
2711 22
2712 57
2713 100
2714 78
2715 105
2716 64
2717 98
2718 91
2719 77
2720 64
2721 59
2722 66
2723 49
2724 58
2725 35
2726 14
2727 107
2728 14
2729 63
2730 39
2731 28
2732 16
2733 122
2734 100
2735 96
2736 69
2737 53
2738 36
2739 96
2740 57
2741 2
2742 53
2743 79
2744 5
2745 69
2746 35
2747 88
2748 84
2749 86
2750 45
2751 39
2752 24
2753 3
2754 70
2755 39
2756 83
2757 74
2758 53
2759 107
2760 121
2761 56
2762 2
2763 99
2764 116
2765 88
2766 72
2767 66
2768 66
2769 35
2770 11
2771 89
2772 84
2773 120
2774 9
2775 22
2776 109
2777 33
2778 66
2779 77
2780 72
2781 84
2782 13
2783 85
2784 111
2785 1
2786 72
2787 41
2788 57
2789 92
2790 58
2791 55
2792 64
2793 45
2794 76
2795 62
2796 33
2797 28
2798 19
2799 67
2800 72
2801 59
2802 28
2803 94
2804 56
2805 5
2806 80
2807 25
2808 56
2809 116
2810 35
2811 57
2812 21
2813 54
2814 20
2815 77
2816 47
2817 40
2818 50
2819 16
2820 80
2821 21
2822 97
2823 97
2824 119
2825 2
2826 9
2827 63
2828 92
2829 89
2830 13
2831 28
2832 19
2833 80
2834 68
2835 1
2836 83
2837 94
2838 67
2839 111
2840 104
2841 46
2842 76
2843 69
2844 101
2845 44
2846 16
2847 53
2848 30
2849 38
2850 14
2851 51
2852 95
2853 13
2854 42
2855 92
2856 20
2857 57
2858 104
2859 41
2860 16
2861 78
2862 32
2863 70
2864 86
2865 58
2866 97
2867 46
2868 68
2869 27
2870 25
2871 87
2872 76
2873 33
2874 84
2875 57
2876 85
2877 39
2878 61
2879 30
2880 84
2881 89
2882 127
2883 72
2884 54
2885 1
2886 39
2887 85
2888 88
2889 11
2890 61
2891 65
2892 73
2893 31
2894 104
2895 81
2896 72
2897 45
2898 53
2899 47
2900 40
2901 101
2902 77
2903 120
2904 83
2905 56
2906 35
2907 83
2908 51
2909 84
2910 69
2911 22
2912 59
2913 71
2914 58
2915 73
2916 21
2917 20
2918 53
2919 50
2920 113
2921 10
2922 49
2923 105
2924 50
2925 97
2926 14
2927 8
2928 37
2929 51
2930 48
2931 85
2932 121
2933 8
2934 21
2935 33
2936 77
2937 89
2938 69
2939 39
2940 59
2941 8
2942 42
2943 112
2944 84
2945 36
2946 56
2947 111
2948 47
2949 69
2950 36
2951 118
2952 49
2953 22
2954 32
2955 105
2956 82
2957 53
2958 53
2959 29
2960 59
2961 16
2962 108
2963 51
2964 110
2965 69
2966 108
2967 49
2968 101
2969 17
2970 84
2971 31
2972 34
2973 5
2974 4
2975 89
2976 56
2977 82
2978 43
2979 95
2980 47
2981 30
2982 63
2983 89
2984 31
2985 89
2986 111
2987 11
2988 26
2989 23
2990 108
2991 80
2992 17
2993 79
2994 7
2995 8
2996 63
2997 89
2998 26
2999 16
3000 109
3001 49
3002 19
3003 113
3004 81
3005 64
3006 119
3007 59
3008 57
3009 45
3010 66
3011 12
3012 70
3013 92
3014 90
3015 21
3016 56
3017 111
3018 22
3019 112
3020 15
3021 107
3022 72
3023 28
3024 26
3025 60
3026 14
3027 89
3028 46
3029 82
3030 115
3031 27
3032 45
3033 104
3034 1
3035 16
3036 29
3037 105
3038 120
3039 74
3040 26
3041 58
3042 30
3043 35
3044 28
3045 44
3046 17
3047 103
3048 35
3049 31
3050 59
3051 57
3052 28
3053 81
3054 116
3055 51
3056 10
3057 61
3058 62
3059 102
3060 30
3061 88
3062 5
3063 77
3064 59
3065 13
3066 78
3067 16
3068 25
3069 122
3070 58
3071 91
3072 34
3073 87
3074 109
3075 42
3076 36
3077 51
3078 31
3079 20
3080 100
3081 55
3082 103
3083 49
3084 117
3085 88
3086 49
3087 81
3088 77
3089 76
3090 87
3091 89
3092 37
3093 89
3094 30
3095 99
3096 5
3097 91
3098 50
3099 24
3100 61
3101 44
3102 90
3103 25
3104 92
3105 108
3106 27
3107 9
3108 34
3109 28
3110 120
3111 21
3112 2
3113 18
3114 66
3115 116
3116 49
3117 10
3118 49
3119 27
3120 72
3121 69
3122 24
3123 37
3124 86
3125 90
3126 110
3127 58
3128 67
3129 24
3130 55
3131 27
3132 43
3133 35
3134 39
3135 60
3136 108
3137 46
3138 14
3139 79
3140 42
3141 33
3142 63
3143 71
3144 53
3145 10
3146 93
3147 66
3148 72
3149 121
3150 98
3151 7
3152 17
3153 116
3154 34
3155 86
3156 23
3157 1
3158 72
3159 96
3160 35
3161 98
3162 51
3163 112
3164 110
3165 2
3166 59
3167 80
3168 1
3169 81
3170 101
3171 36
3172 76
3173 66
3174 69
3175 22
3176 104
3177 55
3178 62
3179 52
3180 49
3181 108
3182 10
3183 39
3184 79
3185 76
3186 54
3187 22
3188 82
3189 6
3190 105
3191 30
3192 4
3193 97
3194 35
3195 99
3196 39
3197 70
3198 54
3199 24
3200 39
3201 41
3202 59
3203 50
3204 17
3205 24
3206 58
3207 59
3208 40
3209 17
3210 74
3211 40
3212 110
3213 87
3214 108
3215 23
3216 95
3217 101
3218 52
3219 97
3220 18
3221 21
3222 12
3223 80
3224 1
3225 37
3226 18
3227 32
3228 67
3229 37
3230 122
3231 35
3232 40
3233 16
3234 69
3235 103
3236 54
3237 72
3238 97
3239 67
3240 42
3241 72
3242 58
3243 79
3244 117
3245 109
3246 56
3247 100
3248 38
3249 99
3250 82
3251 29
3252 106
3253 94
3254 93
3255 12
3256 63
3257 37
3258 5
3259 63
3260 80
3261 1
3262 80
3263 36
3264 110
3265 38
3266 42
3267 17
3268 97
3269 43
3270 24
3271 60
3272 71
3273 22
3274 55
3275 95
3276 101
3277 30
3278 81
3279 33
3280 88
3281 12
3282 24
3283 4
3284 51
3285 62
3286 115
3287 67
3288 11
3289 66
3290 59
3291 26
3292 72
3293 82
3294 117
3295 76
3296 15
3297 118
3298 21
3299 105
3300 71
3301 5
3302 86
3303 68
3304 120
3305 19
3306 7
3307 119
3308 22
3309 6
3310 56
3311 45
3312 15
3313 49
3314 87
3315 80
3316 33
3317 87
3318 17
3319 64
3320 88
3321 19
3322 118
3323 53
3324 128
3325 81
3326 89
3327 85
3328 89
3329 14
3330 69
3331 36
3332 14
3333 45
3334 85
3335 40
3336 8
3337 73
3338 14
3339 92
3340 101
3341 84
3342 94
3343 86
3344 30
3345 0
3346 105
3347 68
3348 107
3349 8
3350 103
3351 17
3352 77
3353 5
3354 35
3355 56
3356 99
3357 9
3358 53
3359 31
3360 53
3361 60
3362 16
3363 35
3364 104
3365 112
3366 75
3367 46
3368 16
3369 46
3370 33
3371 85
3372 1
3373 97
3374 46
3375 77
3376 106
3377 62
3378 4
3379 96
3380 83
3381 39
3382 86
3383 35
3384 16
3385 73
3386 28
3387 105
3388 44
3389 63
3390 28
3391 63
3392 77
3393 73
3394 8
3395 52
3396 51
3397 104
3398 113
3399 45
3400 26
3401 55
3402 10
3403 72
3404 7
3405 0
3406 103
3407 98
3408 1
3409 113
3410 104
3411 59
3412 57
3413 64
3414 1
3415 110
3416 119
3417 109
3418 24
3419 116
3420 104
3421 117
3422 36
3423 68
3424 54
3425 59
3426 82
3427 32
3428 108
3429 85
3430 77
3431 121
3432 70
3433 15
3434 49
3435 33
3436 105
3437 89
3438 52
3439 103
3440 37
3441 24
3442 66
3443 85
3444 41
3445 89
3446 45
3447 2
3448 79
3449 85
3450 29
3451 51
3452 100
3453 119
3454 7
3455 101
3456 104
3457 113
3458 104
3459 11
3460 114
3461 122
3462 101
3463 21
3464 10
3465 54
3466 22
3467 113
3468 62
3469 8
3470 88
3471 38
3472 39
3473 100
3474 46
3475 57
3476 80
3477 48
3478 47
3479 16
3480 13
3481 61
3482 84
3483 91
3484 96
3485 25
3486 83
3487 91
3488 11
3489 53
3490 29
3491 61
3492 89
3493 17
3494 82
3495 27
3496 72
3497 98
3498 56
3499 46
3500 13
3501 59
3502 33
3503 8
3504 82
3505 76
3506 104
3507 112
3508 11
3509 88
3510 101
3511 62
3512 59
3513 53
3514 34
3515 37
3516 31
3517 88
3518 27
3519 44
3520 17
3521 81
3522 55
3523 50
3524 28
3525 116
3526 47
3527 65
3528 36
3529 26
3530 79
3531 54
3532 95
3533 35
3534 69
3535 51
3536 78
3537 66
3538 76
3539 83
3540 45
3541 103
3542 49
3543 44
3544 8
3545 86
3546 47
3547 88
3548 90
3549 73
3550 72
3551 42
3552 75
3553 88
3554 11
3555 4
3556 47
3557 53
3558 28
3559 21
3560 15
3561 37
3562 7
3563 56
3564 47
3565 85
3566 41
3567 57
3568 92
3569 84
3570 51
3571 83
3572 72
3573 85
3574 105
3575 20
3576 42
3577 31
3578 29
3579 28
3580 1
3581 34
3582 108
3583 61
3584 103
3585 120
3586 86
3587 117
3588 115
3589 55
3590 56
3591 105
3592 14
3593 18
3594 21
3595 20
3596 107
3597 91
3598 103
3599 18
3600 75
3601 94
3602 15
3603 35
3604 90
3605 63
3606 116
3607 108
3608 96
3609 16
3610 83
3611 25
3612 8
3613 72
3614 109
3615 65
3616 6
3617 122
3618 33
3619 24
3620 64
3621 19
3622 11
3623 28
3624 46
3625 53
3626 34
3627 88
3628 16
3629 21
3630 91
3631 52
3632 102
3633 47
3634 69
3635 4
3636 59
3637 42
3638 62
3639 17
3640 111
3641 119
3642 58
3643 45
3644 4
3645 92
3646 112
3647 89
3648 79
3649 51
3650 60
3651 21
3652 49
3653 85
3654 101
3655 89
3656 110
3657 115
3658 120
3659 30
3660 42
3661 102
3662 104
3663 72
3664 77
3665 84
3666 56
3667 99
3668 69
3669 67
3670 102
3671 44
3672 85
3673 56
3674 65
3675 8
3676 20
3677 13
3678 27
3679 90
3680 71
3681 52
3682 102
3683 33
3684 41
3685 81
3686 100
3687 70
3688 111
3689 51
3690 81
3691 76
3692 21
3693 63
3694 103
3695 26
3696 107
3697 89
3698 53
3699 102
3700 121
3701 77
3702 1
3703 27
3704 62
3705 11
3706 49
3707 62
3708 1
3709 103
3710 13
3711 98
3712 110
3713 33
3714 75
3715 58
3716 14
3717 39
3718 19
3719 50
3720 54
3721 107
3722 40
3723 59
3724 56
3725 84
3726 23
3727 73
3728 37
3729 17
3730 48
3731 35
3732 72
3733 99
3734 50
3735 16
3736 76
3737 5
3738 107
3739 51
3740 89
3741 100
3742 113
3743 99
3744 63
3745 21
3746 67
3747 17
3748 37
3749 31
3750 87
3751 31
3752 9
3753 88
3754 129
3755 57
3756 59
3757 103
3758 101
3759 22
3760 105
3761 87
3762 40
3763 101
3764 24
3765 42
3766 76
3767 44
3768 37
3769 2
3770 92
3771 1
3772 103
3773 95
3774 56
3775 7
3776 34
3777 63
3778 84
3779 11
3780 23
3781 101
3782 100
3783 99
3784 60
3785 2
3786 53
3787 18
3788 94
3789 111
3790 58
3791 102
3792 49
3793 77
3794 112
3795 47
3796 42
3797 13
3798 71
3799 49
3800 65
3801 105
3802 6
3803 71
3804 16
3805 116
3806 101
3807 20
3808 0
3809 75
3810 52
3811 32
3812 81
3813 70
3814 22
3815 45
3816 24
3817 107
3818 57
3819 33
3820 25
3821 35
3822 66
3823 6
3824 59
3825 58
3826 120
3827 115
3828 103
3829 65
3830 47
3831 86
3832 8
3833 29
3834 1
3835 13
3836 75
3837 28
3838 60
3839 63
3840 43
3841 112
3842 22
3843 10
3844 10
3845 103
3846 62
3847 84
3848 58
3849 9
3850 14
3851 110
3852 33
3853 102
3854 33
3855 23
3856 89
3857 48
3858 57
3859 36
3860 8
3861 31
3862 13
3863 35
3864 1
3865 56
3866 85
3867 62
3868 67
3869 66
3870 62
3871 70
3872 103
3873 98
3874 23
3875 23
3876 104
3877 27
3878 85
3879 17
3880 49
3881 95
3882 122
3883 36
3884 79
3885 13
3886 77
3887 35
3888 69
3889 10
3890 73
3891 22
3892 44
3893 81
3894 53
3895 36
3896 32
3897 74
3898 18
3899 57
3900 47
3901 4
3902 30
3903 83
3904 1
3905 94
3906 53
3907 33
3908 112
3909 29
3910 17
3911 13
3912 2
3913 17
3914 100
3915 47
3916 3
3917 38
3918 72
3919 28
3920 1
3921 76
3922 47
3923 94
3924 92
3925 26
3926 31
3927 38
3928 91
3929 50
3930 104
3931 45
3932 59
3933 19
3934 45
3935 24
3936 29
3937 43
3938 45
3939 27
3940 35
3941 78
3942 84
3943 73
3944 13
3945 13
3946 103
3947 36
3948 79
3949 78
3950 61
3951 42
3952 99
3953 66
3954 86
3955 11
3956 14
3957 116
3958 66
3959 56
3960 47
3961 72
3962 56
3963 121
3964 13
3965 42
3966 52
3967 43
3968 47
3969 117
3970 81
3971 104
3972 26
3973 51
3974 15
3975 45
3976 35
3977 76
3978 20
3979 104
3980 105
3981 120
3982 10
3983 62
3984 4
3985 104
3986 77
3987 9
3988 29
3989 29
3990 43
3991 0
3992 101
3993 35
3994 112
3995 57
3996 21
3997 36
3998 42
3999 56
4000 35
4001 120
4002 110
4003 58
4004 54
4005 87
4006 59
4007 55
4008 8
4009 93
4010 50
4011 33
4012 92
4013 17
4014 43
4015 69
4016 35
4017 97
4018 19
4019 51
4020 59
4021 102
4022 6
4023 17
4024 74
4025 116
4026 85
4027 112
4028 14
4029 7
4030 119
4031 101
4032 3
4033 79
4034 92
4035 32
4036 75
4037 112
4038 26
4039 95
4040 48
4041 26
4042 100
4043 49
4044 13
4045 51
4046 32
4047 65
4048 45
4049 55
4050 83
4051 32
4052 40
4053 89
4054 101
4055 54
4056 56
4057 59
4058 22
4059 104
4060 107
4061 6
4062 71
4063 94
4064 71
4065 77
4066 2
4067 105
4068 23
4069 104
4070 15
4071 71
4072 26
4073 0
4074 59
4075 41
4076 93
4077 90
4078 39
4079 55
4080 30
4081 83
4082 120
4083 102
4084 115
4085 58
4086 62
4087 30
4088 20
4089 58
4090 13
4091 34
4092 66
4093 89
4094 78
4095 81
4096 43
4097 75
4098 95
4099 94
4100 51
4101 17
4102 50
4103 57
4104 52
4105 13
4106 107
4107 109
4108 71
4109 120
4110 72
4111 85
4112 2
4113 1
4114 32
4115 100
4116 102
4117 40
4118 40
4119 38
4120 44
4121 119
4122 110
4123 32
4124 42
4125 25
4126 98
4127 87
4128 63
4129 80
4130 27
4131 117
4132 60
4133 23
4134 38
4135 47
4136 39
4137 47
4138 34
4139 58
4140 113
4141 67
4142 14
4143 29
4144 62
4145 67
4146 62
4147 98
4148 48
4149 115
4150 77
4151 71
4152 35
4153 86
4154 75
4155 52
4156 49
4157 105
4158 44
4159 69
4160 1
4161 27
4162 74
4163 15
4164 86
4165 56
4166 38
4167 60
4168 80
4169 24
4170 14
4171 12
4172 113
4173 44
4174 17
4175 4
4176 16
4177 66
4178 16
4179 54
4180 52
4181 63
4182 122
4183 16
4184 85
4185 85
4186 92
4187 5
4188 112
4189 130
4190 8
4191 48
4192 33
4193 39
4194 1
4195 27
4196 85
4197 40
4198 92
4199 14
4200 32
4201 73
4202 14
4203 69
4204 27
4205 57
4206 92
4207 45
4208 13
4209 111
4210 100
4211 111
4212 44
4213 12
4214 64
4215 64
4216 104
4217 112
4218 67
4219 74
4220 86
4221 67
4222 103
4223 105
4224 46
4225 88
4226 110
4227 17
4228 77
4229 103
4230 87
4231 51
4232 50
4233 3
4234 63
4235 101
4236 37
4237 64
4238 23
4239 105
4240 17
4241 28
4242 92
4243 27
4244 44
4245 102
4246 13
4247 90
4248 19
4249 9
4250 107
4251 91
4252 62
4253 106
4254 79
4255 106
4256 41
4257 17
4258 65
4259 65
4260 87
4261 27
4262 43
4263 8
4264 40
4265 16
4266 10
4267 112
4268 112
4269 54
4270 100
4271 2
4272 16
4273 90
4274 119
4275 112
4276 64
4277 112
4278 32
4279 103
4280 58
4281 34
4282 59
4283 88
4284 60
4285 107
4286 23
4287 34
4288 57
4289 72
4290 114
4291 44
4292 85
4293 45
4294 93
4295 65
4296 48
4297 42
4298 107
4299 120
4300 60
4301 114
4302 23
4303 10
4304 36
4305 4
4306 6
4307 12
4308 38
4309 51
4310 99
4311 121
4312 62
4313 32
4314 110
4315 82
4316 119
4317 45
4318 92
4319 85
4320 103
4321 21
4322 16
4323 74
4324 17
4325 65
4326 31
4327 37
4328 104
4329 24
4330 66
4331 113
4332 17
4333 114
4334 70
4335 112
4336 4
4337 11
4338 30
4339 28
4340 37
4341 62
4342 17
4343 89
4344 85
4345 65
4346 107
4347 77
4348 20
4349 120
4350 99
4351 18
4352 43
4353 55
4354 89
4355 1
4356 32
4357 3
4358 70
4359 50
4360 4
4361 20
4362 117
4363 112
4364 37
4365 61
4366 64
4367 55
4368 31
4369 29
4370 102
4371 101
4372 51
4373 101
4374 3
4375 12
4376 94
4377 45
4378 108
4379 56
4380 47
4381 107
4382 86
4383 46
4384 14
4385 1
4386 17
4387 56
4388 70
4389 83
4390 8
4391 42
4392 88
4393 100
4394 39
4395 72
4396 56
4397 22
4398 74
4399 29
4400 37
4401 35
4402 73
4403 99
4404 12
4405 75
4406 104
4407 110
4408 12
4409 57
4410 58
4411 49
4412 68
4413 50
4414 63
4415 108
4416 45
4417 13
4418 87
4419 82
4420 48
4421 37
4422 20
4423 8
4424 110
4425 13
4426 35
4427 35
4428 59
4429 12
4430 99
4431 117
4432 11
4433 34
4434 19
4435 81
4436 110
4437 104
4438 44
4439 75
4440 93
4441 56
4442 54
4443 2
4444 16
4445 76
4446 78
4447 23
4448 5
4449 39
4450 85
4451 5
4452 110
4453 6
4454 100
4455 115
4456 81
4457 47
4458 89
4459 72
4460 31
4461 101
4462 77
4463 71
4464 78
4465 46
4466 11
4467 95
4468 66
4469 21
4470 15
4471 108
4472 105
4473 37
4474 20
4475 121
4476 88
4477 0
4478 66
4479 36
4480 20
4481 59
4482 109
4483 63
4484 10
4485 12
4486 89
4487 112
4488 58
4489 33
4490 73
4491 122
4492 32
4493 19
4494 86
4495 54
4496 5
4497 5
4498 11
4499 31
4500 53
4501 4
4502 22
4503 79
4504 46
4505 23
4506 75
4507 80
4508 48
4509 84
4510 109
4511 53
4512 1
4513 44
4514 59
4515 58
4516 27
4517 85
4518 76
4519 56
4520 57
4521 101
4522 33
4523 69
4524 6
4525 49
4526 84
4527 65
4528 31
4529 88
4530 16
4531 63
4532 5
4533 31
4534 80
4535 77
4536 90
4537 78
4538 31
4539 50
4540 47
4541 8
4542 17
4543 96
4544 20
4545 29
4546 82
4547 75
4548 73
4549 67
4550 77
4551 0
4552 80
4553 102
4554 4
4555 91
4556 119
4557 63
4558 76
4559 42
4560 48
4561 17
4562 35
4563 64
4564 120
4565 89
4566 7
4567 79
4568 66
4569 70
4570 90
4571 82
4572 107
4573 40
4574 24
4575 9
4576 81
4577 28
4578 26
4579 30
4580 0
4581 46
4582 14
4583 22
4584 38
4585 82
4586 63
4587 14
4588 87
4589 114
4590 29
4591 96
4592 17
4593 107
4594 13
4595 67
4596 80
4597 59
4598 10
4599 104
4600 62
4601 78
4602 53
4603 18
4604 120
4605 77
4606 28
4607 18
4608 9
4609 42
4610 105
4611 103
4612 22
4613 49
4614 80
4615 20
4616 11
4617 85
4618 0
4619 3
4620 83
4621 83
4622 77
4623 61
4624 115
4625 35
4626 32
4627 100
4628 96
4629 97
4630 45
4631 22
4632 68
4633 52
4634 112
4635 84
4636 40
4637 32
4638 71
4639 36
4640 5
4641 82
4642 109
4643 13
4644 57
4645 4
4646 49
4647 32
4648 60
4649 2
4650 12
4651 84
4652 56
4653 20
4654 50
4655 122
4656 59
4657 23
4658 54
4659 106
4660 47
4661 51
4662 16
4663 48
4664 89
4665 11
4666 16
4667 29
4668 5
4669 16
4670 115
4671 76
4672 11
4673 44
4674 57
4675 62
4676 101
4677 32
4678 119
4679 84
4680 60
4681 70
4682 74
4683 59
4684 24
4685 69
4686 56
4687 62
4688 31
4689 51
4690 8
4691 99
4692 67
4693 2
4694 87
4695 78
4696 113
4697 72
4698 116
4699 58
4700 63
4701 16
4702 50
4703 131
4704 81
4705 62
4706 17
4707 75
4708 0
4709 84
4710 35
4711 8
4712 74
4713 78
4714 36
4715 100
4716 49
4717 120
4718 18
4719 47
4720 120
4721 2
4722 86
4723 100
4724 116
4725 97
4726 10
4727 105
4728 85
4729 121
4730 97
4731 67
4732 80
4733 110
4734 63
4735 49
4736 59
4737 98
4738 98
4739 46
4740 89
4741 2
4742 16
4743 71
4744 19
4745 47
4746 14
4747 51
4748 58
4749 113
4750 9
4751 96
4752 23
4753 32
4754 86
4755 35
4756 113
4757 35
4758 53
4759 82
4760 117
4761 2
4762 97
4763 110
4764 39
4765 83
4766 49
4767 86
4768 74
4769 62
4770 13
4771 86
4772 102
4773 25
4774 14
4775 64
4776 58
4777 57
4778 56
4779 2
4780 103
4781 63
4782 103
4783 106
4784 69
4785 89
4786 65
4787 93
4788 77
4789 13
4790 7
4791 42
4792 55
4793 14
4794 77
4795 74
4796 99
4797 27
4798 26
4799 86
4800 10
4801 85
4802 65
4803 99
4804 54
4805 91
4806 73
4807 59
4808 4
4809 62
4810 83
4811 86
4812 100
4813 49
4814 20
4815 82
4816 56
4817 113
4818 132
4819 64
4820 43
4821 15
4822 88
4823 99
4824 45
4825 26
4826 35
4827 108
4828 42
4829 31
4830 103
4831 32
4832 52
4833 18
4834 113
4835 53
4836 1
4837 59
4838 11
4839 1
4840 70
4841 82
4842 2
4843 12
4844 40
4845 5
4846 20
4847 8
4848 23
4849 20
4850 16
4851 55
4852 1
4853 71
4854 1
4855 55
4856 68
4857 85
4858 15
4859 36
4860 53
4861 73
4862 42
4863 88
4864 66
4865 19
4866 14
4867 49
4868 27
4869 133
4870 17
4871 0
4872 89
4873 24
4874 1
4875 70
4876 105
4877 121
4878 100
4879 11
4880 94
4881 77
4882 102
4883 96
4884 20
4885 73
4886 63
4887 67
4888 21
4889 70
4890 17
4891 78
4892 103
4893 81
4894 83
4895 112
4896 112
4897 71
4898 1
4899 112
4900 82
4901 1
4902 35
4903 61
4904 26
4905 121
4906 80
4907 112
4908 60
4909 3
4910 134
4911 85
4912 42
4913 16
4914 3
4915 2
4916 118
4917 93
4918 15
4919 8
4920 85
4921 5
4922 98
4923 67
4924 29
4925 43
4926 51
4927 65
4928 92
4929 15
4930 54
4931 110
4932 1
4933 72
4934 65
4935 74
4936 62
4937 81
4938 29
4939 89
4940 51
4941 0
4942 44
4943 4
4944 42
4945 35
4946 87
4947 66
4948 5
4949 27
4950 65
4951 46
4952 104
4953 49
4954 77
4955 115
4956 79
4957 52
4958 54
4959 5
4960 93
4961 8
4962 99
4963 31
4964 48
4965 103
4966 104
4967 116
4968 82
4969 78
4970 53
4971 104
4972 54
4973 40
4974 95
4975 90
4976 37
4977 54
4978 63
4979 135
4980 63
4981 117
4982 1
4983 21
4984 40
4985 73
4986 120
4987 0
4988 56
4989 73
4990 27
4991 14
4992 77
4993 105
4994 35
4995 30
4996 35
4997 77
4998 85
4999 84
5000 103
5001 83
5002 53
5003 29
5004 59
5005 67
5006 85
5007 30
5008 88
5009 59
5010 59
5011 99
5012 104
5013 30
5014 82
5015 31
5016 85
5017 88
5018 59
5019 76
5020 35
5021 100
5022 92
5023 39
5024 85
5025 105
5026 15
5027 103
5028 82
5029 85
5030 12
5031 77
5032 103
5033 54
5034 109
5035 44
5036 35
5037 72
5038 2
5039 16
5040 11
5041 39
5042 97
5043 91
5044 22
5045 29
5046 12
5047 13
5048 57
5049 99
5050 57
5051 42
5052 52
5053 59
5054 82
5055 0
5056 1
5057 51
5058 1
5059 0
5060 58
5061 5
5062 78
5063 14
5064 92
5065 60
5066 44
5067 13
5068 9
5069 89
5070 122
5071 84
5072 2
5073 35
5074 35
5075 16
5076 26
5077 36
5078 91
5079 79
5080 40
5081 43
5082 91
5083 64
5084 59
5085 17
5086 102
5087 95
5088 14
5089 72
5090 12
5091 40
5092 79
5093 109
5094 48
5095 57
5096 77
5097 33
5098 103
5099 71
5100 66
5101 15
5102 78
5103 68
5104 63
5105 26
5106 51
5107 2
5108 75
5109 10
5110 84
5111 40
5112 78
5113 49
5114 16
5115 57
5116 11
5117 102
5118 86
5119 113
5120 105
5121 84
5122 5
5123 103
5124 42
5125 89
5126 31
5127 84
5128 83
5129 30
5130 52
5131 28
5132 56
5133 78
5134 54
5135 79
5136 33
5137 65
5138 61
5139 88
5140 98
5141 99
5142 120
5143 25
5144 14
5145 107
5146 36
5147 38
5148 51
5149 76
5150 70
5151 85
5152 35
5153 24
5154 62
5155 76
5156 22
5157 73
5158 82
5159 23
5160 30
5161 59
5162 52
5163 49
5164 113
5165 94
5166 21
5167 64
5168 43
5169 83
5170 89
5171 35
5172 102
5173 1
5174 59
5175 78
5176 75
5177 59
5178 85
5179 57
5180 18
5181 79
5182 77
5183 23
5184 83
5185 20
5186 107
5187 99
5188 42
5189 0
5190 85
5191 112
5192 32
5193 24
5194 86
5195 90
5196 15
5197 9
5198 29
5199 58
5200 37
5201 13
5202 7
5203 72
5204 56
5205 89
5206 56
5207 1
5208 81
5209 52
5210 83
5211 58
5212 112
5213 54
5214 118
5215 17
5216 89
5217 82
5218 2
5219 44
5220 77
5221 43
5222 56
5223 75
5224 92
5225 100
5226 75
5227 85
5228 121
5229 35
5230 105
5231 75
5232 46
5233 1
5234 105
5235 50
5236 24
5237 69
5238 33
5239 65
5240 60
5241 70
5242 66
5243 72
5244 71
5245 94
5246 48
5247 71
5248 71
5249 84
5250 55
5251 67
5252 37
5253 58
5254 94
5255 49
5256 24
5257 31
5258 72
5259 73
5260 79
5261 89
5262 60
5263 27
5264 117
5265 13
5266 9
5267 62
5268 24
5269 57
5270 59
5271 101
5272 38
5273 122
5274 16
5275 61
5276 29
5277 101
5278 37
5279 119
5280 85
5281 113
5282 62
5283 2
5284 103
5285 51
5286 108
5287 54
5288 89
5289 52
5290 110
5291 29
5292 76
5293 82
5294 107
5295 121
5296 101
5297 86
5298 77
5299 1
5300 39
5301 34
5302 76
5303 77
5304 13
5305 2
5306 72
5307 75
5308 42
5309 46
5310 10
5311 9
5312 104
5313 6
5314 51
5315 91
5316 56
5317 78
5318 33
5319 2
5320 93
5321 84
5322 7
5323 119
5324 38
5325 22
5326 57
5327 35
5328 46
5329 10
5330 24
5331 89
5332 53
5333 86
5334 66
5335 44
5336 83
5337 71
5338 101
5339 87
5340 59
5341 39
5342 68
5343 95
5344 74
5345 121
5346 107
5347 6
5348 54
5349 10
5350 97
5351 2
5352 115
5353 2
5354 1
5355 94
5356 66
5357 116
5358 115
5359 85
5360 67
5361 30
5362 4
5363 60
5364 59
5365 3
5366 2
5367 54
5368 88
5369 53
5370 3
5371 58
5372 8
5373 82
5374 99
5375 42
5376 1
5377 82
5378 61
5379 19
5380 45
5381 85
5382 73
5383 46
5384 107
5385 29
5386 75
5387 96
5388 113
5389 40
5390 74
5391 22
5392 53
5393 3
5394 53
5395 79
5396 66
5397 57
5398 50
5399 14
5400 17
5401 58
5402 15
5403 5
5404 101
5405 69
5406 85
5407 97
5408 69
5409 50
5410 97
5411 89
5412 68
5413 28
5414 116
5415 16
5416 84
5417 12
5418 42
5419 42
5420 44
5421 5
5422 70
5423 101
5424 92
5425 22
5426 13
5427 30
5428 44
5429 44
5430 98
5431 104
5432 18
5433 62
5434 50
5435 19
5436 100
5437 77
5438 1
5439 81
5440 120
5441 86
5442 115
5443 20
5444 117
5445 47
5446 4
5447 87
5448 115
5449 96
5450 16
5451 8
5452 93
5453 51
5454 75
5455 36
5456 116
5457 43
5458 39
5459 86
5460 69
5461 19
5462 16
5463 109
5464 81
5465 13
5466 70
5467 62
5468 14
5469 85
5470 77
5471 67
5472 28
5473 43
5474 72
5475 14
5476 102
5477 31
5478 69
5479 109
5480 45
5481 22
5482 5
5483 82
5484 12
5485 3
5486 121
5487 65
5488 115
5489 111
5490 23
5491 51
5492 38
5493 2
5494 43
5495 62
5496 82
5497 113
5498 16
5499 102
5500 8
5501 117
5502 111
5503 13
5504 40
5505 119
5506 82
5507 5
5508 57
5509 92
5510 21
5511 34
5512 112
5513 108
5514 99
5515 8
5516 59
5517 83
5518 98
5519 116
5520 21
5521 2
5522 76
5523 39
5524 22
5525 54
5526 101
5527 97
5528 85
5529 46
5530 122
5531 55
5532 37
5533 46
5534 1
5535 72
5536 17
5537 54
5538 81
5539 94
5540 0
5541 30
5542 77
5543 73
5544 120
5545 45
5546 61
5547 102
5548 31
5549 32
5550 120
5551 10
5552 87
5553 23
5554 31
5555 81
5556 22
5557 14
5558 100
5559 36
5560 101
5561 74
5562 122
5563 97
5564 22
5565 63
5566 35
5567 110
5568 118
5569 59
5570 22
5571 17
5572 42
5573 76
5574 93
5575 106
5576 34
5577 26
5578 13
5579 101
5580 119
5581 5
5582 27
5583 2
5584 103
5585 122
5586 24
5587 112
5588 39
5589 79
5590 74
5591 19
5592 79
5593 45
5594 96
5595 67
5596 122
5597 16
5598 24
5599 8
5600 49
5601 56
5602 45
5603 56
5604 8
5605 49
5606 42
5607 55
5608 83
5609 23
5610 99
5611 47
5612 79
5613 54
5614 112
5615 63
5616 59
5617 2
5618 33
5619 90
5620 93
5621 70
5622 40
5623 104
5624 1
5625 18
5626 47
5627 111
5628 34
5629 136
5630 21
5631 85
5632 73
5633 114
5634 77
5635 86
5636 117
5637 89
5638 16
5639 58
5640 46
5641 98
5642 17
5643 58
5644 49
5645 63
5646 63
5647 64
5648 39
5649 57
5650 56
5651 103
5652 103
5653 85
5654 69
5655 30
5656 55
5657 117
5658 48
5659 3
5660 45
5661 54
5662 63
5663 9
5664 80
5665 71
5666 1
5667 31
5668 45
5669 110
5670 58
5671 83
5672 108
5673 96
5674 56
5675 53
5676 75
5677 91
5678 34
5679 83
5680 66
5681 120
5682 99
5683 3
5684 67
5685 84
5686 87
5687 106
5688 113
5689 103
5690 113
5691 84
5692 75
5693 42
5694 113
5695 53
5696 107
5697 116
5698 118
5699 33
5700 98
5701 104
5702 2
5703 108
5704 13
5705 98
5706 53
5707 30
5708 5
5709 32
5710 68
5711 44
5712 5
5713 40
5714 62
5715 74
5716 38
5717 81
5718 120
5719 40
5720 35
5721 63
5722 30
5723 78
5724 137
5725 28
5726 5
5727 38
5728 72
5729 45
5730 2
5731 1
5732 98
5733 47
5734 96
5735 16
5736 64
5737 5
5738 45
5739 12
5740 85
5741 17
5742 69
5743 115
5744 46
5745 49
5746 83
5747 10
5748 60
5749 116
5750 55
5751 22
5752 69
5753 55
5754 37
5755 11
5756 49
5757 53
5758 117
5759 108
5760 36
5761 16
5762 110
5763 61
5764 33
5765 120
5766 32
5767 1
5768 67
5769 66
5770 38
5771 1
5772 57
5773 58
5774 16
5775 14
5776 63
5777 93
5778 88
5779 108
5780 74
5781 51
5782 100
5783 21
5784 24
5785 40
5786 9
5787 97
5788 35
5789 31
5790 105
5791 74
5792 39
5793 120
5794 64
5795 112
5796 34
5797 58
5798 55
5799 12
5800 2
5801 122
5802 2
5803 21
5804 40
5805 45
5806 2
5807 67
5808 53
5809 39
5810 79
5811 88
5812 65
5813 24
5814 83
5815 99
5816 35
5817 68
5818 30
5819 62
5820 38
5821 28
5822 42
5823 72
5824 8
5825 26
5826 85
5827 75
5828 2
5829 75
5830 11
5831 60
5832 54
5833 60
5834 90
5835 60
5836 53
5837 33
5838 42
5839 29
5840 65
5841 46
5842 97
5843 32
5844 64
5845 56
5846 101
5847 84
5848 103
5849 26
5850 28
5851 31
5852 93
5853 33
5854 48
5855 84
5856 49
5857 29
5858 55
5859 67
5860 28
5861 28
5862 36
5863 0
5864 88
5865 33
5866 13
5867 54
5868 85
5869 31
5870 81
5871 122
5872 15
5873 84
5874 85
5875 77
5876 72
5877 113
5878 54
5879 85
5880 101
5881 76
5882 32
5883 1
5884 60
5885 102
5886 2
5887 92
5888 85
5889 29
5890 6
5891 31
5892 107
5893 120
5894 46
5895 48
5896 49
5897 1
5898 55
5899 58
5900 4
5901 86
5902 33
5903 64
5904 78
5905 97
5906 83
5907 73
5908 25
5909 46
5910 24
5911 11
5912 69
5913 82
5914 7
5915 109
5916 82
5917 70
5918 81
5919 89
5920 99
5921 56
5922 68
5923 53
5924 92
5925 103
5926 116
5927 56
5928 111
5929 85
5930 40
5931 1
5932 15
5933 45
5934 69
5935 72
5936 19
5937 21
5938 61
5939 99
5940 8
5941 55
5942 50
5943 45
5944 101
5945 14
5946 83
5947 82
5948 106
5949 116
5950 40
5951 85
5952 2
5953 16
5954 66
5955 120
5956 84
5957 27
5958 56
5959 71
5960 6
5961 35
5962 53
5963 70
5964 57
5965 15
5966 17
5967 65
5968 44
5969 112
5970 115
5971 17
5972 60
5973 21
5974 8
5975 61
5976 117
5977 49
5978 42
5979 12
5980 101
5981 36
5982 52
5983 74
5984 58
5985 42
5986 61
5987 104
5988 71
5989 102
5990 59
5991 107
5992 65
5993 105
5994 28
5995 0
5996 112
5997 89
5998 17
5999 58
6000 67
6001 91
6002 63
6003 51
6004 75
6005 17
6006 81
6007 83
6008 89
6009 138
6010 55
6011 91
6012 93
6013 22
6014 57
6015 99
6016 103
6017 61
6018 111
6019 102
6020 120
6021 52
6022 2
6023 89
6024 84
6025 39
6026 87
6027 49
6028 40
6029 32
6030 45
6031 51
6032 16
6033 85
6034 104
6035 3
6036 107
6037 98
6038 62
6039 64
6040 21
6041 22
6042 65
6043 32
6044 139
6045 24
6046 17
6047 35
6048 104
6049 113
6050 42
6051 61
6052 1
6053 28
6054 42
6055 23
6056 85
6057 10
6058 59
6059 54
6060 21
6061 45
6062 99
6063 86
6064 99
6065 75
6066 107
6067 58
6068 77
6069 17
6070 91
6071 85
6072 17
6073 80
6074 101
6075 110
6076 19
6077 104
6078 30
6079 13
6080 21
6081 66
6082 15
6083 58
6084 69
6085 92
6086 11
6087 105
6088 115
6089 17
6090 48
6091 117
6092 16
6093 14
6094 77
6095 98
6096 89
6097 61
6098 3
6099 52
6100 5
6101 80
6102 77
6103 52
6104 40
6105 51
6106 104
6107 1
6108 120
6109 77
6110 49
6111 11
6112 30
6113 10
6114 80
6115 19
6116 52
6117 1
6118 94
6119 55
6120 103
6121 77
6122 8
6123 0
6124 11
6125 44
6126 106
6127 89
6128 77
6129 75
6130 89
6131 47
6132 55
6133 120
6134 76
6135 89
6136 37
6137 89
6138 63
6139 26
6140 8
6141 93
6142 45
6143 61
6144 113
6145 93
6146 2
6147 91
6148 17
6149 85
6150 115
6151 16
6152 15
6153 27
6154 30
6155 52
6156 29
6157 120
6158 86
6159 32
6160 86
6161 44
6162 13
6163 10
6164 51
6165 94
6166 109
6167 92
6168 112
6169 7
6170 13
6171 18
6172 109
6173 16
6174 38
6175 102
6176 30
6177 33
6178 34
6179 40
6180 45
6181 115
6182 81
6183 72
6184 20
6185 140
6186 36
6187 93
6188 35
6189 73
6190 59
6191 63
6192 25
6193 53
6194 49
6195 50
6196 79
6197 48
6198 37
6199 10
6200 109
6201 54
6202 62
6203 88
6204 28
6205 8
6206 83
6207 21
6208 16
6209 67
6210 65
6211 42
6212 76
6213 103
6214 1
6215 56
6216 76
6217 92
6218 30
6219 59
6220 77
6221 69
6222 104
6223 93
6224 19
6225 69
6226 51
6227 1
6228 1
6229 44
6230 51
6231 107
6232 40
6233 73
6234 86
6235 62
6236 82
6237 5
6238 42
6239 1
6240 48
6241 41
6242 77
6243 53
6244 34
6245 102
6246 62
6247 35
6248 38
6249 83
6250 119
6251 67
6252 65
6253 77
6254 102
6255 11
6256 10
6257 101
6258 3
6259 29
6260 70
6261 19
6262 4
6263 27
6264 32
6265 53
6266 55
6267 63
6268 13
6269 86
6270 92
6271 63
6272 94
6273 53
6274 82
6275 8
6276 29
6277 58
6278 69
6279 58
6280 102
6281 22
6282 12
6283 2
6284 64
6285 94
6286 62
6287 4
6288 13
6289 17
6290 71
6291 44
6292 13
6293 29
6294 82
6295 39
6296 52
6297 63
6298 17
6299 62
6300 77
6301 93
6302 105
6303 36
6304 52
6305 107
6306 6
6307 106
6308 94
6309 80
6310 31
6311 72
6312 16
6313 62
6314 61
6315 59
6316 102
6317 83
6318 74
6319 54
6320 73
6321 69
6322 104
6323 32
6324 27
6325 15
6326 43
6327 5
6328 3
6329 5
6330 99
6331 62
6332 49
6333 40
6334 27
6335 30
6336 75
6337 82
6338 89
6339 42
6340 67
6341 8
6342 2
6343 89
6344 4
6345 67
6346 22
6347 58
6348 24
6349 91
6350 105
6351 71
6352 25
6353 7
6354 53
6355 85
6356 1
6357 118
6358 106
6359 100
6360 22
6361 107
6362 74
6363 73
6364 41
6365 31
6366 68
6367 58
6368 35
6369 77
6370 89
6371 35
6372 63
6373 18
6374 20
6375 32
6376 54
6377 88
6378 94
6379 82
6380 62
6381 20
6382 100
6383 23
6384 46
6385 2
6386 51
6387 70
6388 75
6389 112
6390 43
6391 102
6392 94
6393 85
6394 63
6395 73
6396 51
6397 61
6398 110
6399 1
6400 94
6401 30
6402 28
6403 35
6404 46
6405 69
6406 110
6407 117
6408 2
6409 69
6410 83
6411 26
6412 83
6413 85
6414 85
6415 40
6416 32
6417 40
6418 58
6419 84
6420 102
6421 57
6422 92
6423 91
6424 85
6425 85
6426 23
6427 20
6428 74
6429 16
6430 120
6431 7
6432 49
6433 46
6434 3
6435 112
6436 57
6437 69
6438 103
6439 30
6440 107
6441 15
6442 86
6443 52
6444 77
6445 59
6446 51
6447 43
6448 16
6449 44
6450 21
6451 98
6452 26
6453 62
6454 107
6455 21
6456 62
6457 13
6458 69
6459 111
6460 56
6461 6
6462 14
6463 85
6464 104
6465 64
6466 10
6467 26
6468 57
6469 89
6470 89
6471 67
6472 118
6473 46
6474 62
6475 73
6476 61
6477 30
6478 53
6479 10
6480 53
6481 18
6482 84
6483 64
6484 39
6485 77
6486 65
6487 66
6488 35
6489 3
6490 27
6491 30
6492 82
6493 37
6494 102
6495 53
6496 14
6497 3
6498 12
6499 61
6500 85
6501 51
6502 73
6503 54
6504 65
6505 52
6506 92
6507 15
6508 19
6509 61
6510 29
6511 83
6512 27
6513 85
6514 56
6515 86
6516 49
6517 102
6518 12
6519 81
6520 76
6521 24
6522 59
6523 11
6524 73
6525 60
6526 116
6527 33
6528 59
6529 77
6530 81
6531 37
6532 107
6533 31
6534 84
6535 7
6536 100
6537 77
6538 40
6539 54
6540 17
6541 101
6542 115
6543 96
6544 43
6545 72
6546 17
6547 67
6548 5
6549 60
6550 59
6551 39
6552 29
6553 2
6554 59
6555 120
6556 23
6557 106
6558 1
6559 141
6560 85
6561 44
6562 40
6563 5
6564 8
6565 54
6566 106
6567 80
6568 54
6569 72
6570 47
6571 86
6572 16
6573 61
6574 107
6575 74
6576 70
6577 112
6578 102
6579 22
6580 28
6581 66
6582 110
6583 37
6584 84
6585 117
6586 16
6587 48
6588 86
6589 54
6590 98
6591 58
6592 82
6593 101
6594 81
6595 27
6596 5
6597 19
6598 80
6599 122
6600 63
6601 108
6602 77
6603 56
6604 86
6605 65
6606 85
6607 119
6608 22
6609 31
6610 2
6611 121
6612 1
6613 85
6614 64
6615 77
6616 99
6617 84
6618 40
6619 34
6620 119
6621 43
6622 116
6623 81
6624 103
6625 53
6626 100
6627 28
6628 85
6629 70
6630 69
6631 16
6632 34
6633 88
6634 114
6635 115
6636 1
6637 27
6638 119
6639 92
6640 18
6641 96
6642 30
6643 7
6644 120
6645 30
6646 78
6647 116
6648 35
6649 23
6650 104
6651 23
6652 39
6653 21
6654 30
6655 1
6656 78
6657 37
6658 66
6659 103
6660 85
6661 99
6662 38
6663 45
6664 95
6665 75
6666 89
6667 83
6668 71
6669 22
6670 69
6671 24
6672 60
6673 10
6674 87
6675 72
6676 18
6677 80
6678 91
6679 100
6680 115
6681 45
6682 68
6683 73
6684 53
6685 102
6686 108
6687 3
6688 103
6689 59
6690 14
6691 42
6692 35
6693 96
6694 1
6695 90
6696 103
6697 32
6698 34
6699 115
6700 48
6701 113
6702 100
6703 107
6704 85
6705 76
6706 31
6707 40
6708 103
6709 60
6710 31
6711 54
6712 32
6713 54
6714 77
6715 3
6716 102
6717 81
6718 110
6719 34
6720 10
6721 2
6722 13
6723 8
6724 50
6725 23
6726 39
6727 77
6728 2
6729 56
6730 103
6731 29
6732 1
6733 10
6734 67
6735 109
6736 35
6737 36
6738 69
6739 89
6740 83
6741 8
6742 39
6743 21
6744 99
6745 29
6746 83
6747 118
6748 6
6749 70
6750 85
6751 77
6752 90
6753 58
6754 109
6755 34
6756 29
6757 62
6758 20
6759 27
6760 53
6761 103
6762 67
6763 27
6764 99
6765 121
6766 116
6767 30
6768 3
6769 13
6770 60
6771 17
6772 61
6773 85
6774 97
6775 6
6776 82
6777 69
6778 12
6779 112
6780 46
6781 46
6782 9
6783 51
6784 94
6785 39
6786 120
6787 46
6788 42
6789 51
6790 1
6791 24
6792 49
6793 5
6794 83
6795 79
6796 116
6797 122
6798 40
6799 85
6800 111
6801 99
6802 71
6803 80
6804 31
6805 21
6806 17
6807 83
6808 1
6809 122
6810 40
6811 70
6812 62
6813 38
6814 121
6815 79
6816 75
6817 45
6818 56
6819 67
6820 13
6821 68
6822 73
6823 93
6824 101
6825 30
6826 78
6827 2
6828 82
6829 111
6830 90
6831 75
6832 19
6833 54
6834 120
6835 54
6836 91
6837 108
6838 117
6839 101
6840 17
6841 102
6842 86
6843 63
6844 53
6845 23
6846 110
6847 16
6848 24
6849 10
6850 80
6851 82
6852 62
6853 95
6854 12
6855 102
6856 8
6857 54
6858 90
6859 48
6860 8
6861 35
6862 111
6863 112
6864 32
6865 54
6866 4
6867 26
6868 20
6869 99
6870 48
6871 3
6872 89
6873 24
6874 85
6875 40
6876 111
6877 122
6878 142
6879 2
6880 76
6881 21
6882 113
6883 50
6884 41
6885 31
6886 44
6887 16
6888 143
6889 20
6890 3
6891 41
6892 103
6893 60
6894 15
6895 87
6896 97
6897 62
6898 31
6899 31
6900 88
6901 24
6902 85
6903 79
6904 83
6905 36
6906 47
6907 5
6908 34
6909 115
6910 84
6911 45
6912 94
6913 23
6914 67
6915 81
6916 58
6917 106
6918 100
6919 55
6920 49
6921 49
6922 28
6923 110
6924 99
6925 76
6926 61
6927 97
6928 1
6929 75
6930 4
6931 109
6932 62
6933 60
6934 49
6935 17
6936 50
6937 110
6938 97
6939 76
6940 121
6941 42
6942 33
6943 32
6944 14
6945 103
6946 35
6947 40
6948 77
6949 45
6950 43
6951 57
6952 38
6953 81
6954 76
6955 17
6956 84
6957 107
6958 82
6959 76
6960 59
6961 0
6962 57
6963 64
6964 89
6965 5
6966 32
6967 28
6968 120
6969 82
6970 75
6971 76
6972 93
6973 64
6974 28
6975 2
6976 110
6977 116
6978 64
6979 19
6980 86
6981 77
6982 43
6983 16
6984 54
6985 119
6986 59
6987 16
6988 95
6989 71
6990 17
6991 49
6992 97
6993 50
6994 48
6995 51
6996 36
6997 50
6998 4
6999 93
7000 33
7001 110
7002 81
7003 30
7004 19
7005 32
7006 50
7007 59
7008 8
7009 11
7010 4
7011 58
7012 42
7013 5
7014 53
7015 17
7016 106
7017 55
7018 120
7019 67
7020 103
7021 116
7022 85
7023 69
7024 32
7025 19
7026 71
7027 72
7028 104
7029 44
7030 14
7031 112
7032 8
7033 19
7034 43
7035 16
7036 35
7037 37
7038 105
7039 21
7040 40
7041 21
7042 62
7043 49
7044 101
7045 35
7046 32
7047 56
7048 39
7049 55
7050 3
7051 70
7052 70
7053 16
7054 87
7055 62
7056 58
7057 77
7058 1
7059 51
7060 35
7061 61
7062 20
7063 84
7064 89
7065 77
7066 42
7067 75
7068 103
7069 89
7070 111
7071 62
7072 17
7073 85
7074 22
7075 100
7076 89
7077 66
7078 28
7079 48
7080 52
7081 16
7082 24
7083 104
7084 56
7085 99
7086 59
7087 1
7088 72
7089 7
7090 78
7091 14
7092 72
7093 61
7094 53
7095 4
7096 59
7097 72
7098 118
7099 59
7100 103
7101 79
7102 101
7103 113
7104 43
7105 88
7106 61
7107 110
7108 40
7109 8
7110 26
7111 53
7112 111
7113 29
7114 81
7115 11
7116 40
7117 16
7118 53
7119 17
7120 51
7121 66
7122 71
7123 31
7124 2
7125 58
7126 76
7127 103
7128 115
7129 116
7130 88
7131 57
7132 49
7133 86
7134 11
7135 1
7136 121
7137 84
7138 36
7139 102
7140 29
7141 1
7142 119
7143 111
7144 9
7145 16
7146 8
7147 21
7148 17
7149 54
7150 29
7151 64
7152 53
7153 61
7154 57
7155 85
7156 57
7157 66
7158 7
7159 42
7160 18
7161 77
7162 57
7163 7
7164 19
7165 89
7166 7
7167 19
7168 1
7169 40
7170 40
7171 69
7172 57
7173 93
7174 22
7175 77
7176 51
7177 14
7178 35
7179 30
7180 53
7181 35
7182 53
7183 84
7184 78
7185 16
7186 103
7187 97
7188 59
7189 78
7190 70
7191 2
7192 103
7193 76
7194 46
7195 75
7196 2
7197 10
7198 96
7199 54
7200 78
7201 29
7202 103
7203 97
7204 65
7205 82
7206 144
7207 56
7208 59
7209 46
7210 15
7211 68
7212 12
7213 5
7214 34
7215 102
7216 78
7217 103
7218 86
7219 36
7220 35
7221 68
7222 7
7223 16
7224 43
7225 44
7226 76
7227 102
7228 1
7229 53
7230 108
7231 101
7232 110
7233 45
7234 43
7235 68
7236 56
7237 28
7238 63
7239 95
7240 5
7241 102
7242 66
7243 91
7244 98
7245 58
7246 17
7247 49
7248 65
7249 56
7250 22
7251 61
7252 68
7253 50
7254 32
7255 17
7256 97
7257 90
7258 67
7259 65
7260 108
7261 5
7262 113
7263 32
7264 80
7265 106
7266 30
7267 109
7268 92
7269 112
7270 42
7271 67
7272 63
7273 42
7274 29
7275 106
7276 101
7277 69
7278 29
7279 40
7280 24
7281 80
7282 2
7283 105
7284 61
7285 6
7286 39
7287 62
7288 9
7289 52
7290 9
7291 21
7292 2
7293 70
7294 11
7295 94
7296 86
7297 53
7298 62
7299 24
7300 112
7301 60
7302 7
7303 2
7304 42
7305 32
7306 43
7307 99
7308 89
7309 79
7310 46
7311 79
7312 80
7313 87
7314 10
7315 80
7316 58
7317 35
7318 53
7319 54
7320 100
7321 2
7322 78
7323 31
7324 56
7325 60
7326 93
7327 4
7328 53
7329 97
7330 32
7331 98
7332 1
7333 11
7334 100
7335 5
7336 74
7337 99
7338 7
7339 51
7340 27
7341 44
7342 71
7343 40
7344 110
7345 92
7346 41
7347 2
7348 35
7349 26
7350 40
7351 93
7352 26
7353 87
7354 113
7355 67
7356 100
7357 40
7358 6
7359 99
7360 45
7361 109
7362 63
7363 76
7364 77
7365 24
7366 7
7367 8
7368 40
7369 63
7370 1
7371 65
7372 42
7373 10
7374 71
7375 1
7376 39
7377 37
7378 91
7379 51
7380 118
7381 72
7382 99
7383 1
7384 77
7385 29
7386 2
7387 27
7388 68
7389 103
7390 28
7391 29
7392 36
7393 106
7394 49
7395 90
7396 63
7397 38
7398 106
7399 37
7400 112
7401 31
7402 37
7403 77
7404 61
7405 94
7406 49
7407 39
7408 30
7409 33
7410 112
7411 100
7412 80
7413 39
7414 69
7415 16
7416 101
7417 17
7418 81
7419 45
7420 122
7421 84
7422 22
7423 84
7424 71
7425 117
7426 88
7427 32
7428 39
7429 22
7430 119
7431 77
7432 63
7433 51
7434 65
7435 5
7436 85
7437 70
7438 108
7439 37
7440 86
7441 90
7442 89
7443 120
7444 51
7445 85
7446 106
7447 39
7448 15
7449 29
7450 13
7451 65
7452 18
7453 103
7454 119
7455 106
7456 57
7457 23
7458 49
7459 111
7460 14
7461 85
7462 56
7463 6
7464 8
7465 12
7466 91
7467 35
7468 59
7469 89
7470 108
7471 59
7472 13
7473 106
7474 37
7475 28
7476 4
7477 49
7478 17
7479 21
7480 10
7481 111
7482 32
7483 84
7484 78
7485 29
7486 29
7487 85
7488 109
7489 66
7490 17
7491 28
7492 89
7493 34
7494 13
7495 90
7496 76
7497 12
7498 20
7499 54
7500 35
7501 51
7502 27
7503 84
7504 83
7505 77
7506 60
7507 102
7508 21
7509 14
7510 89
7511 56
7512 33
7513 104
7514 86
7515 82
7516 37
7517 27
7518 85
7519 32
7520 28
7521 81
7522 32
7523 12
7524 50
7525 52
7526 30
7527 106
7528 36
7529 38
7530 91
7531 101
7532 1
7533 99
7534 102
7535 61
7536 1
7537 84
7538 89
7539 69
7540 40
7541 22
7542 74
7543 5
7544 64
7545 27
7546 100
7547 31
7548 21
7549 37
7550 92
7551 24
7552 104
7553 45
7554 58
7555 88
7556 43
7557 14
7558 121
7559 66
7560 28
7561 101
7562 116
7563 121
7564 47
7565 40
7566 32
7567 17
7568 81
7569 28
7570 36
7571 5
7572 28
7573 85
7574 40
7575 23
7576 101
7577 47
7578 82
7579 67
7580 28
7581 15
7582 1
7583 8
7584 63
7585 11
7586 69
7587 109
7588 58
7589 103
7590 58
7591 65
7592 112
7593 73
7594 91
7595 102
7596 59
7597 109
7598 120
7599 1
7600 8
7601 39
7602 27
7603 50
7604 58
7605 12
7606 73
7607 85
7608 2
7609 71
7610 7
7611 117
7612 56
7613 17
7614 46
7615 26
7616 99
7617 91
7618 8
7619 63
7620 8
7621 115
7622 35
7623 42
7624 83
7625 21
7626 40
7627 8
7628 64
7629 101
7630 48
7631 69
7632 44
7633 36
7634 83
7635 70
7636 77
7637 34
7638 52
7639 104
7640 8
7641 104
7642 12
7643 57
7644 103
7645 44
7646 42
7647 7
7648 75
7649 32
7650 39
7651 7
7652 98
7653 35
7654 61
7655 54
7656 97
7657 104
7658 104
7659 1
7660 35
7661 87
7662 76
7663 42
7664 145
7665 103
7666 108
7667 32
7668 68
7669 85
7670 71
7671 89
7672 55
7673 80
7674 61
7675 32
7676 115
7677 51
7678 0
7679 1
7680 35
7681 51
7682 58
7683 42
7684 50
7685 115
7686 36
7687 29
7688 19
7689 92
7690 35
7691 22
7692 32
7693 40
7694 69
7695 79
7696 78
7697 146
7698 3
7699 109
7700 89
7701 49
7702 102
7703 115
7704 5
7705 73
7706 58
7707 60
7708 1
7709 19
7710 70
7711 105
7712 53
7713 94
7714 32
7715 98
7716 122
7717 65
7718 46
7719 29
7720 28
7721 49
7722 57
7723 10
7724 122
7725 59
7726 53
7727 31
7728 97
7729 3
7730 45
7731 115
7732 13
7733 53
7734 51
7735 8
7736 122
7737 5
7738 54
7739 93
7740 103
7741 103
7742 64
7743 85
7744 89
7745 21
7746 22
7747 76
7748 4
7749 28
7750 16
7751 9
7752 49
7753 109
7754 99
7755 104
7756 30
7757 114
7758 113
7759 48
7760 32
7761 103
7762 94
7763 39
7764 61
7765 51
7766 101
7767 17
7768 103
7769 24
7770 82
7771 102
7772 79
7773 115
7774 66
7775 37
7776 53
7777 30
7778 35
7779 78
7780 109
7781 119
7782 73
7783 63
7784 4
7785 56
7786 27
7787 9
7788 85
7789 59
7790 93
7791 103
7792 82
7793 39
7794 61
7795 118
7796 24
7797 17
7798 77
7799 76
7800 45
7801 46
7802 79
7803 62
7804 16
7805 37
7806 43
7807 69
7808 15
7809 16
7810 72
7811 115
7812 49
7813 111
7814 9
7815 13
7816 11
7817 120
7818 116
7819 40
7820 102
7821 36
7822 101
7823 113
7824 11
7825 99
7826 100
7827 109
7828 45
7829 40
7830 16
7831 64
7832 113
7833 65
7834 16
7835 52
7836 46
7837 109
7838 103
7839 3
7840 64
7841 30
7842 97
7843 16
7844 86
7845 107
7846 75
7847 21
7848 71
7849 62
7850 54
7851 93
7852 41
7853 82
7854 71
7855 57
7856 57
7857 103
7858 84
7859 92
7860 40
7861 53
7862 12
7863 11
7864 9
7865 92
7866 12
7867 28
7868 31
7869 81
7870 79
7871 35
7872 2
7873 69
7874 109
7875 10
7876 92
7877 23
7878 6
7879 119
7880 72
7881 88
7882 96
7883 30
7884 9
7885 67
7886 14
7887 3
7888 98
7889 100
7890 16
7891 37
7892 98
7893 11
7894 113
7895 89
7896 68
7897 23
7898 92
7899 17
7900 77
7901 45
7902 100
7903 51
7904 94
7905 83
7906 24
7907 61
7908 45
7909 70
7910 88
7911 24
7912 7
7913 89
7914 102
7915 120
7916 75
7917 30
7918 69
7919 1
7920 40
7921 103
7922 65
7923 120
7924 39
7925 77
7926 51
7927 40
7928 82
7929 21
7930 67
7931 45
7932 45
7933 103
7934 59
7935 66
7936 111
7937 45
7938 45
7939 55
7940 90
7941 69
7942 42
7943 64
7944 120
7945 82
7946 39
7947 30
7948 37
7949 9
7950 31
7951 74
7952 73
7953 64
7954 38
7955 9
7956 51
7957 66
7958 28
7959 27
7960 32
7961 73
7962 39
7963 84
7964 92
7965 2
7966 4
7967 100
7968 14
7969 50
7970 54
7971 120
7972 60
7973 113
7974 119
7975 63
7976 88
7977 17
7978 72
7979 11
7980 51
7981 103
7982 13
7983 101
7984 88
7985 85
7986 3
7987 45
7988 35
7989 89
7990 49
7991 84
7992 89
7993 4
7994 39
7995 72
7996 80
7997 72
7998 51
7999 77
8000 103
8001 11
8002 49
8003 25
8004 40
8005 107
8006 39
8007 3
8008 4
8009 89
8010 76
8011 76
8012 63
8013 72
8014 14
8015 59
8016 62
8017 75
8018 89
8019 67
8020 59
8021 88
8022 70
8023 1
8024 72
8025 39
8026 104
8027 98
8028 28
8029 111
8030 80
8031 99
8032 112
8033 36
8034 85
8035 1
8036 7
8037 85
8038 77
8039 52
8040 59
8041 68
8042 116
8043 67
8044 38
8045 69
8046 1
8047 121
8048 4
8049 40
8050 17
8051 35
8052 13
8053 35
8054 27
8055 81
8056 37
8057 36
8058 117
8059 49
8060 54
8061 78
8062 54
8063 88
8064 81
8065 50
8066 85
8067 2
8068 10
8069 81
8070 71
8071 64
8072 81
8073 112
8074 94
8075 111
8076 104
8077 69
8078 11
8079 51
8080 104
8081 50
8082 35
8083 102
8084 11
8085 70
8086 12
8087 68
8088 107
8089 77
8090 37
8091 77
8092 12
8093 22
8094 120
8095 8
8096 63
8097 116
8098 94
8099 61
8100 53
8101 77
8102 0
8103 84
8104 42
8105 81
8106 91
8107 4
8108 105
8109 60
8110 27
8111 0
8112 69
8113 116
8114 66
8115 37
8116 25
8117 22
8118 62
8119 120
8120 11
8121 103
8122 92
8123 10
8124 59
8125 83
8126 76
8127 2
8128 58
8129 66
8130 82
8131 85
8132 84
8133 27
8134 79
8135 30
8136 81
8137 58
8138 17
8139 74
8140 35
8141 120
8142 70
8143 75
8144 99
8145 109
8146 80
8147 51
8148 85
8149 98
8150 37
8151 79
8152 42
8153 64
8154 89
8155 86
8156 8
8157 1
8158 84
8159 62
8160 62
8161 76
8162 91
8163 60
8164 113
8165 7
8166 110
8167 70
8168 12
8169 85
8170 69
8171 4
8172 46
8173 22
8174 96
8175 72
8176 92
8177 33
8178 87
8179 3
8180 59
8181 49
8182 11
8183 13
8184 6
8185 111
8186 77
8187 50
8188 35
8189 12
8190 19
8191 57
8192 39
8193 31
8194 24
8195 57
8196 62
8197 21
8198 20
8199 1
8200 6
8201 100
8202 89
8203 57
8204 50
8205 111
8206 35
8207 22
8208 25
8209 31
8210 55
8211 113
8212 88
8213 68
8214 120
8215 110
8216 22
8217 116
8218 29
8219 11
8220 58
8221 32
8222 67
8223 49
8224 23
8225 12
8226 9
8227 72
8228 80
8229 84
8230 35
8231 53
8232 12
8233 19
8234 43
8235 63
8236 70
8237 78
8238 11
8239 9
8240 37
8241 93
8242 4
8243 93
8244 28
8245 81
8246 62
8247 33
8248 8
8249 39
8250 83
8251 120
8252 77
8253 63
8254 40
8255 62
8256 97
8257 69
8258 89
8259 22
8260 147
8261 53
8262 74
8263 120
8264 73
8265 16
8266 19
8267 119
8268 106
8269 2
8270 119
8271 27
8272 31
8273 73
8274 4
8275 63
8276 16
8277 45
8278 29
8279 2
8280 104
8281 6
8282 27
8283 22
8284 122
8285 82
8286 50
8287 35
8288 40
8289 119
8290 69
8291 65
8292 52
8293 22
8294 32
8295 5
8296 52
8297 20
8298 24
8299 78
8300 89
8301 94
8302 51
8303 91
8304 42
8305 105
8306 85
8307 71
8308 114
8309 5
8310 68
8311 85
8312 16
8313 62
8314 26
8315 96
8316 32
8317 10
8318 5
8319 91
8320 5
8321 104
8322 109
8323 64
8324 62
8325 68
8326 94
8327 32
8328 4
8329 10
8330 35
8331 60
8332 35
8333 92
8334 1
8335 56
8336 33
8337 43
8338 78
8339 60
8340 62
8341 11
8342 70
8343 9
8344 11
8345 97
8346 69
8347 79
8348 56
8349 35
8350 24
8351 14
8352 24
8353 2
8354 22
8355 115
8356 70
8357 86
8358 49
8359 46
8360 5
8361 88
8362 77
8363 17
8364 27
8365 78
8366 20
8367 22
8368 81
8369 115
8370 22
8371 111
8372 36
8373 62
8374 117
8375 40
8376 85
8377 71
8378 2
8379 29
8380 62
8381 18
8382 64
8383 72
8384 9
8385 15
8386 2
8387 60
8388 94
8389 61
8390 118
8391 66
8392 119
8393 97
8394 56
8395 115
8396 29
8397 32
8398 120
8399 65
8400 13
8401 97
8402 98
8403 94
8404 96
8405 103
8406 89
8407 35
8408 24
8409 31
8410 44
8411 11
8412 71
8413 119
8414 53
8415 70
8416 39
8417 62
8418 110
8419 49
8420 2
8421 30
8422 83
8423 4
8424 42
8425 29
8426 11
8427 15
8428 105
8429 32
8430 70
8431 110
8432 101
8433 47
8434 50
8435 54
8436 86
8437 66
8438 17
8439 55
8440 40
8441 72
8442 23
8443 88
8444 45
8445 63
8446 107
8447 92
8448 19
8449 13
8450 47
8451 66
8452 122
8453 45
8454 88
8455 76
8456 36
8457 23
8458 11
8459 108
8460 63
8461 32
8462 17
8463 5
8464 81
8465 56
8466 57
8467 19
8468 64
8469 85
8470 14
8471 33
8472 81
8473 102
8474 89
8475 16
8476 89
8477 49
8478 23
8479 84
8480 85
8481 62
8482 52
8483 115
8484 107
8485 7
8486 61
8487 112
8488 87
8489 17
8490 81
8491 51
8492 58
8493 89
8494 102
8495 11
8496 10
8497 30
8498 66
8499 14
8500 22
8501 117
8502 72
8503 22
8504 110
8505 11
8506 112
8507 93
8508 101
8509 102
8510 103
8511 48
8512 69
8513 119
8514 7
8515 81
8516 8
8517 39
8518 28
8519 6
8520 70
8521 116
8522 54
8523 29
8524 25
8525 109
8526 60
8527 42
8528 3
8529 32
8530 70
8531 46
8532 52
8533 58
8534 42
8535 84
8536 54
8537 73
8538 113
8539 16
8540 4
8541 98
8542 49
8543 116
8544 35
8545 35
8546 2
8547 82
8548 54
8549 104
8550 61
8551 18
8552 83
8553 31
8554 76
8555 49
8556 116
8557 120
8558 54
8559 103
8560 63
8561 107
8562 109
8563 102
8564 64
8565 5
8566 42
8567 99
8568 71
8569 107
8570 112
8571 97
8572 76
8573 88
8574 77
8575 0
8576 53
8577 53
8578 58
8579 5
8580 59
8581 22
8582 47
8583 27
8584 44
8585 24
8586 121
8587 57
8588 115
8589 8
8590 82
8591 83
8592 106
8593 108
8594 39
8595 111
8596 109
8597 33
8598 85
8599 85
8600 26
8601 42
8602 49
8603 113
8604 67
8605 73
8606 50
8607 60
8608 12
8609 69
8610 54
8611 23
8612 44
8613 17
8614 55
8615 57
8616 89
8617 46
8618 42
8619 3
8620 4
8621 57
8622 1
8623 63
8624 81
8625 43
8626 89
8627 85
8628 91
8629 32
8630 80
8631 92
8632 92
8633 13
8634 13
8635 59
8636 69
8637 4
8638 107
8639 15
8640 87
8641 77
8642 17
8643 82
8644 18
8645 50
8646 65
8647 1
8648 58
8649 32
8650 54
8651 62
8652 54
8653 40
8654 11
8655 120
8656 98
8657 94
8658 119
8659 49
8660 1
8661 119
8662 16
8663 58
8664 63
8665 46
8666 71
8667 2
8668 42
8669 2
8670 94
8671 58
8672 13
8673 122
8674 92
8675 2
8676 71
8677 111
8678 55
8679 114
8680 25
8681 28
8682 15
8683 16
8684 10
8685 64
8686 100
8687 32
8688 77
8689 116
8690 42
8691 23
8692 61
8693 49
8694 28
8695 75
8696 19
8697 58
8698 105
8699 40
8700 81
8701 4
8702 109
8703 21
8704 105
8705 86
8706 24
8707 58
8708 120
8709 104
8710 19
8711 93
8712 13
8713 116
8714 29
8715 109
8716 61
8717 97
8718 32
8719 35
8720 58
8721 57
8722 28
8723 40
8724 20
8725 59
8726 46
8727 32
8728 48
8729 40
8730 42
8731 95
8732 43
8733 49
8734 11
8735 46
8736 64
8737 60
8738 48
8739 33
8740 44
8741 17
8742 8
8743 103
8744 4
8745 119
8746 73
8747 53
8748 37
8749 102
8750 82
8751 87
8752 42
8753 8
8754 13
8755 21
8756 91
8757 7
8758 101
8759 99
8760 8
8761 8
8762 11
8763 27
8764 8
8765 53
8766 55
8767 6
8768 5
8769 29
8770 26
8771 57
8772 1
8773 8
8774 8
8775 76
8776 64
8777 48
8778 96
8779 65
8780 66
8781 7
8782 117
8783 66
8784 99
8785 120
8786 12
8787 100
8788 89
8789 83
8790 4
8791 10
8792 8
8793 15
8794 4
8795 5
8796 49
8797 101
8798 24
8799 46
8800 42
8801 120
8802 65
8803 2
8804 65
8805 5
8806 95
8807 72
8808 52
8809 92
8810 52
8811 65
8812 109
8813 108
8814 58
8815 112
8816 70
8817 79
8818 5
8819 80
8820 53
8821 36
8822 27
8823 55
8824 54
8825 49
8826 74
8827 20
8828 106
8829 36
8830 77
8831 28
8832 55
8833 92
8834 13
8835 23
8836 114
8837 23
8838 19
8839 59
8840 107
8841 83
8842 120
8843 102
8844 74
8845 32
8846 40
8847 31
8848 53
8849 52
8850 17
8851 70
8852 42
8853 93
8854 71
8855 32
8856 102
8857 37
8858 87
8859 59
8860 100
8861 13
8862 23
8863 85
8864 94
8865 85
8866 103
8867 5
8868 119
8869 75
8870 14
8871 51
8872 62
8873 6
8874 60
8875 55
8876 67
8877 39
8878 109
8879 50
8880 119
8881 49
8882 28
8883 70
8884 12
8885 24
8886 100
8887 120
8888 62
8889 34
8890 81
8891 35
8892 82
8893 97
8894 63
8895 59
8896 42
8897 107
8898 119
8899 26
8900 42
8901 91
8902 84
8903 64
8904 60
8905 84
8906 120
8907 55
8908 24
8909 100
8910 72
8911 22
8912 62
8913 72
8914 4
8915 22
8916 60
8917 47
8918 80
8919 117
8920 96
8921 14
8922 38
8923 68
8924 94
8925 121
8926 78
8927 27
8928 85
8929 13
8930 75
8931 0
8932 107
8933 71
8934 51
8935 79
8936 0
8937 18
8938 2
8939 62
8940 111
8941 61
8942 62
8943 1
8944 111
8945 62
8946 42
8947 89
8948 15
8949 66
8950 66
8951 40
8952 48
8953 42
8954 105
8955 37
8956 13
8957 31
8958 44
8959 93
8960 73
8961 83
8962 17
8963 65
8964 39
8965 109
8966 66
8967 115
8968 86
8969 56
8970 81
8971 77
8972 34
8973 11
8974 2
8975 3
8976 112
8977 30
8978 14
8979 101
8980 8
8981 66
8982 99
8983 43
8984 91
8985 63
8986 17
8987 80
8988 53
8989 70
8990 7
8991 53
8992 7
8993 80
8994 63
8995 37
8996 54
8997 99
8998 48
8999 22
9000 82
9001 40
9002 64
9003 92
9004 115
9005 100
9006 11
9007 57
9008 18
9009 55
9010 106
9011 35
9012 19
9013 85
9014 4
9015 49
9016 28
9017 108
9018 21
9019 57
9020 19
9021 102
9022 122
9023 2
9024 39
9025 22
9026 86
9027 13
9028 93
9029 11
9030 42
9031 52
9032 120
9033 21
9034 109
9035 71
9036 71
9037 79
9038 70
9039 35
9040 70
9041 115
9042 116
9043 5
9044 44
9045 13
9046 1
9047 120
9048 22
9049 59
9050 103
9051 13
9052 9
9053 104
9054 17
9055 24
9056 117
9057 42
9058 106
9059 104
9060 85
9061 19
9062 46
9063 104
9064 77
9065 94
9066 85
9067 57
9068 49
9069 101
9070 60
9071 67
9072 58
9073 101
9074 50
9075 74
9076 13
9077 27
9078 64
9079 59
9080 50
9081 14
9082 84
9083 91
9084 48
9085 42
9086 39
9087 44
9088 43
9089 27
9090 31
9091 92
9092 67
9093 59
9094 2
9095 55
9096 56
9097 50
9098 42
9099 39
9100 53
9101 106
9102 50
9103 87
9104 80
9105 99
9106 110
9107 58
9108 77
9109 65
9110 8
9111 117
9112 101
9113 67
9114 82
9115 120
9116 78
9117 44
9118 63
9119 16
9120 1
9121 88
9122 48
9123 63
9124 72
9125 101
9126 35
9127 107
9128 56
9129 62
9130 2
9131 77
9132 105
9133 2
9134 26
9135 113
9136 40
9137 31
9138 62
9139 110
9140 89
9141 32
9142 59
9143 77
9144 111
9145 52
9146 19
9147 80
9148 93
9149 54
9150 43
9151 56
9152 48
9153 30
9154 85
9155 89
9156 65
9157 30
9158 29
9159 3
9160 50
9161 103
9162 95
9163 40
9164 64
9165 29
9166 17
9167 111
9168 13
9169 109
9170 14
9171 67
9172 1
9173 38
9174 52
9175 99
9176 52
9177 28
9178 148
9179 5
9180 7
9181 1
9182 10
9183 65
9184 51
9185 111
9186 40
9187 110
9188 53
9189 83
9190 2
9191 121
9192 88
9193 75
9194 78
9195 108
9196 104
9197 42
9198 87
9199 45
9200 81
9201 112
9202 1
9203 82
9204 110
9205 118
9206 39
9207 79
9208 63
9209 111
9210 74
9211 48
9212 47
9213 113
9214 18
9215 48
9216 19
9217 89
9218 64
9219 8
9220 16
9221 44
9222 103
9223 8
9224 1
9225 104
9226 116
9227 31
9228 54
9229 40
9230 56
9231 16
9232 6
9233 105
9234 61
9235 82
9236 56
9237 95
9238 40
9239 61
9240 84
9241 53
9242 107
9243 93
9244 4
9245 87
9246 8
9247 9
9248 57
9249 49
9250 67
9251 66
9252 29
9253 76
9254 85
9255 116
9256 70
9257 88
9258 53
9259 2
9260 20
9261 62
9262 11
9263 54
9264 61
9265 100
9266 105
9267 67
9268 85
9269 45
9270 10
9271 26
9272 17
9273 113
9274 31
9275 65
9276 66
9277 16
9278 67
9279 92
9280 0
9281 57
9282 77
9283 27
9284 83
9285 16
9286 57
9287 4
9288 118
9289 92
9290 54
9291 102
9292 92
9293 43
9294 2
9295 121
9296 40
9297 51
9298 2
9299 66
9300 31
9301 110
9302 63
9303 94
9304 63
9305 67
9306 66
9307 70
9308 102
9309 74
9310 13
9311 3
9312 6
9313 102
9314 82
9315 99
9316 116
9317 149
9318 11
9319 97
9320 1
9321 32
9322 99
9323 30
9324 90
9325 62
9326 79
9327 76
9328 84
9329 19
9330 77
9331 76
9332 28
9333 115
9334 99
9335 102
9336 45
9337 5
9338 29
9339 37
9340 37
9341 8
9342 72
9343 110
9344 60
9345 60
9346 58
9347 102
9348 80
9349 76
9350 110
9351 59
9352 7
9353 46
9354 112
9355 74
9356 5
9357 17
9358 37
9359 101
9360 73
9361 40
9362 29
9363 101
9364 56
9365 94
9366 14
9367 37
9368 54
9369 64
9370 119
9371 21
9372 75
9373 48
9374 49
9375 48
9376 111
9377 65
9378 107
9379 62
9380 42
9381 71
9382 22
9383 51
9384 7
9385 89
9386 11
9387 47
9388 122
9389 116
9390 98
9391 104
9392 114
9393 53
9394 102
9395 35
9396 121
9397 45
9398 4
9399 86
9400 18
9401 82
9402 96
9403 18
9404 65
9405 32
9406 15
9407 82
9408 63
9409 91
9410 100
9411 87
9412 119
9413 90
9414 53
9415 26
9416 47
9417 39
9418 120
9419 102
9420 72
9421 96
9422 85
9423 96
9424 51
9425 108
9426 50
9427 65
9428 61
9429 95
9430 53
9431 34
9432 97
9433 86
9434 21
9435 12
9436 0
9437 6
9438 53
9439 59
9440 86
9441 6
9442 71
9443 16
9444 58
9445 64
9446 17
9447 83
9448 16
9449 84
9450 107
9451 4
9452 55
9453 1
9454 16
9455 25
9456 4
9457 109
9458 77
9459 87
9460 87
9461 66
9462 84
9463 79
9464 42
9465 26
9466 88
9467 37
9468 25
9469 112
9470 18
9471 48
9472 112
9473 18
9474 54
9475 17
9476 87
9477 57
9478 102
9479 81
9480 111
9481 29
9482 1
9483 5
9484 11
9485 86
9486 45
9487 45
9488 26
9489 70
9490 110
9491 28
9492 86
9493 2
9494 44
9495 62
9496 13
9497 80
9498 35
9499 10
9500 83
9501 1
9502 57
9503 9
9504 76
9505 82
9506 32
9507 86
9508 50
9509 105
9510 87
9511 22
9512 104
9513 79
9514 15
9515 117
9516 8
9517 92
9518 61
9519 52
9520 78
9521 65
9522 43
9523 65
9524 95
9525 27
9526 106
9527 89
9528 85
9529 84
9530 93
9531 53
9532 89
9533 62
9534 72
9535 83
9536 87
9537 62
9538 7
9539 59
9540 22
9541 85
9542 58
9543 80
9544 56
9545 68
9546 88
9547 107
9548 19
9549 3
9550 82
9551 32
9552 55
9553 73
9554 73
9555 25
9556 34
9557 102
9558 87
9559 32
9560 92
9561 0
9562 36
9563 30
9564 99
9565 64
9566 80
9567 108
9568 50
9569 77
9570 110
9571 31
9572 66
9573 111
9574 93
9575 86
9576 84
9577 57
9578 58
9579 39
9580 92
9581 69
9582 17
9583 42
9584 7
9585 32
9586 89
9587 54
9588 74
9589 25
9590 26
9591 107
9592 26
9593 4
9594 4
9595 14
9596 121
9597 80
9598 46
9599 108
9600 57
9601 104
9602 5
9603 111
9604 33
9605 91
9606 49
9607 50
9608 11
9609 120
9610 43
9611 33
9612 33
9613 50
9614 26
9615 108
9616 17
9617 12
9618 33
9619 28
9620 74
9621 119
9622 113
9623 89
9624 75
9625 92
9626 60
9627 4
9628 58
9629 3
9630 22
9631 4
9632 35
9633 69
9634 111
9635 26
9636 104
9637 14
9638 6
9639 68
9640 35
9641 56
9642 89
9643 23
9644 77
9645 76
9646 5
9647 87
9648 102
9649 101
9650 79
9651 15
9652 16
9653 52
9654 29
9655 36
9656 44
9657 34
9658 81
9659 115
9660 77
9661 113
9662 17
9663 85
9664 31
9665 68
9666 33
9667 122
9668 77
9669 116
9670 11
9671 8
9672 64
9673 2
9674 55
9675 29
9676 3
9677 32
9678 43
9679 80
9680 55
9681 106
9682 67
9683 67
9684 3
9685 19
9686 26
9687 16
9688 64
9689 45
9690 89
9691 95
9692 72
9693 69
9694 63
9695 110
9696 82
9697 35
9698 4
9699 120
9700 18
9701 110
9702 18
9703 83
9704 114
9705 49
9706 117
9707 30
9708 86
9709 17
9710 119
9711 71
9712 8
9713 16
9714 77
9715 103
9716 93
9717 48
9718 39
9719 19
9720 109
9721 33
9722 35
9723 13
9724 2
9725 30
9726 40
9727 8
9728 53
9729 119
9730 12
9731 39
9732 117
9733 10
9734 30
9735 31
9736 60
9737 60
9738 94
9739 57
9740 3
9741 104
9742 53
9743 67
9744 60
9745 70
9746 115
9747 27
9748 112
9749 44
9750 14
9751 117
9752 28
9753 56
9754 1
9755 15
9756 88
9757 109
9758 13
9759 120
9760 49
9761 72
9762 33
9763 22
9764 69
9765 85
9766 29
9767 86
9768 39
9769 81
9770 83
9771 56
9772 89
9773 56
9774 51
9775 69
9776 35
9777 21
9778 15
9779 113
9780 104
9781 87
9782 100
9783 92
9784 105
9785 18
9786 13
9787 117
9788 92
9789 116
9790 96
9791 78
9792 74
9793 79
9794 47
9795 14
9796 66
9797 77
9798 107
9799 32
9800 83
9801 66
9802 24
9803 2
9804 72
9805 8
9806 48
9807 51
9808 113
9809 103
9810 35
9811 34
9812 30
9813 81
9814 98
9815 63
9816 57
9817 44
9818 101
9819 92
9820 4
9821 109
9822 69
9823 77
9824 5
9825 28
9826 30
9827 11
9828 92
9829 12
9830 47
9831 82
9832 59
9833 21
9834 26
9835 32
9836 102
9837 103
9838 99
9839 57
9840 13
9841 72
9842 99
9843 109
9844 87
9845 16
9846 17
9847 73
9848 71
9849 58
9850 39
9851 86
9852 38
9853 59
9854 57
9855 83
9856 49
9857 22
9858 57
9859 90
9860 17
9861 62
9862 101
9863 2
9864 69
9865 102
9866 52
9867 23
9868 87
9869 53
9870 2
9871 54
9872 24
9873 20
9874 51
9875 70
9876 69
9877 121
9878 84
9879 32
9880 119
9881 25
9882 61
9883 84
9884 29
9885 116
9886 45
9887 29
9888 54
9889 87
9890 72
9891 28
9892 40
9893 84
9894 66
9895 35
9896 3
9897 22
9898 85
9899 61
9900 30
9901 39
9902 27
9903 89
9904 1
9905 48
9906 115
9907 42
9908 110
9909 42
9910 85
9911 34
9912 86
9913 46
9914 92
9915 45
9916 103
9917 97
9918 17
9919 43
9920 69
9921 24
9922 40
9923 36
9924 110
9925 74
9926 39
9927 89
9928 50
9929 65
9930 47
9931 13
9932 7
9933 51
9934 85
9935 111
9936 84
9937 32
9938 8
9939 93
9940 83
9941 113
9942 32
9943 57
9944 0
9945 113
9946 25
9947 32
9948 56
9949 36
9950 29
9951 21
9952 5
9953 39
9954 16
9955 30
9956 107
9957 116
9958 113
9959 100
9960 7
9961 120
9962 13
9963 68
9964 7
9965 18
9966 50
9967 23
9968 85
9969 100
9970 75
9971 2
9972 2
9973 14
9974 92
9975 2
9976 14
9977 30
9978 57
9979 26
9980 23
9981 26
9982 44
9983 11
9984 49
9985 76
9986 109
9987 7
9988 104
9989 70
9990 106
9991 1
9992 49
9993 74
9994 78
9995 18
9996 12
9997 14
9998 113
9999 88
