0 0
1 1
2 2
3 3
4 3
5 4
6 5
7 6
8 7
9 8
10 9
11 10
12 11
13 12
14 13
15 14
16 15
17 16
18 17
19 18
20 19
21 20
22 21
23 22
24 23
25 24
26 25
27 26
28 27
29 28
30 29
31 30
32 14
33 31
34 32
35 33
36 32
37 34
38 7
39 35
40 36
41 37
42 38
43 39
44 40
45 41
46 42
47 43
48 44
49 45
50 46
51 47
52 48
53 49
54 50
55 51
56 52
57 53
58 54
59 55
60 56
61 57
62 17
63 58
64 12
65 17
66 59
67 60
68 61
69 62
70 63
71 64
72 35
73 65
74 28
75 23
76 24
77 12
78 66
79 67
80 12
81 68
82 69
83 70
84 4
85 71
86 72
87 73
88 74
89 75
90 76
91 77
92 78
93 28
94 79
95 80
96 81
97 82
98 77
99 22
100 83
101 68
102 84
103 85
104 86
105 87
106 88
107 89
108 90
109 3
110 91
111 17
112 59
113 92
114 35
115 93
116 94
117 48
118 95
119 96
120 12
121 53
122 97
123 98
124 99
125 59
126 100
127 32
128 43
129 101
130 99
131 102
132 103
133 104
134 75
135 39
136 14
137 84
138 105
139 32
140 34
141 106
142 107
143 14
144 72
145 108
146 109
147 110
148 23
149 111
150 112
151 14
152 35
153 22
154 113
155 77
156 114
157 115
158 116
159 117
160 118
161 35
162 35
163 119
164 120
165 121
166 122
167 123
168 124
169 125
170 71
171 126
172 127
173 112
174 128
175 129
176 130
177 131
178 132
179 133
180 75
181 109
182 12
183 35
184 134
185 32
186 135
187 23
188 136
189 48
190 137
191 22
192 138
193 139
194 140
195 12
196 141
197 142
198 143
199 144
200 53
201 145
202 146
203 12
204 3
205 147
206 148
207 149
208 150
209 151
210 59
211 152
212 153
213 108
214 154
215 155
216 156
217 157
218 158
219 159
220 160
221 161
222 3
223 162
224 59
225 59
226 163
227 22
228 164
229 3
230 165
231 166
232 69
233 167
234 35
235 168
236 12
237 169
238 17
239 170
240 171
241 111
242 112
243 172
244 105
245 173
246 32
247 87
248 174
249 175
250 176
251 72
252 3
253 177
254 178
255 179
256 180
257 94
258 181
259 17
260 12
261 55
262 182
263 80
264 23
265 12
266 183
267 124
268 35
269 184
270 123
271 185
272 186
273 19
274 187
275 188
276 63
277 189
278 190
279 35
280 39
281 23
282 46
283 191
284 192
285 193
286 194
287 131
288 3
289 195
290 142
291 196
292 19
293 197
294 96
295 12
296 198
297 199
298 200
299 35
300 87
301 201
302 79
303 202
304 203
305 204
306 205
307 163
308 206
309 207
310 208
311 209
312 23
313 3
314 210
315 55
316 211
317 32
318 162
319 212
320 12
321 213
322 214
323 215
324 216
325 217
326 59
327 218
328 94
329 219
330 220
331 35
332 12
333 221
334 19
335 222
336 223
337 224
338 71
339 225
340 226
341 227
342 228
343 32
344 229
345 230
346 231
347 232
348 233
349 234
350 71
351 12
352 162
353 235
354 22
355 229
356 22
357 178
358 236
359 237
360 238
361 236
362 239
363 240
364 241
365 44
366 242
367 14
368 243
369 76
370 244
371 4
372 3
373 245
374 246
375 247
376 77
377 15
378 245
379 248
380 23
381 249
382 159
383 250
384 251
385 252
386 253
387 254
388 255
389 189
390 256
391 257
392 258
393 259
394 14
395 9
396 260
397 261
398 262
399 263
400 264
401 265
402 28
403 266
404 267
405 268
406 75
407 269
408 270
409 232
410 271
411 76
412 14
413 272
414 273
415 274
416 275
417 276
418 163
419 35
420 39
421 96
422 277
423 39
424 32
425 278
426 236
427 3
428 279
429 280
430 281
431 24
432 282
433 283
434 284
435 19
436 285
437 286
438 287
439 288
440 169
441 55
442 98
443 131
444 96
445 59
446 289
447 290
448 291
449 292
450 17
451 293
452 32
453 94
454 294
455 295
456 105
457 296
458 297
459 71
460 298
461 14
462 76
463 299
464 300
465 3
466 301
467 302
468 75
469 73
470 303
471 304
472 53
473 305
474 306
475 262
476 96
477 307
478 236
479 35
480 162
481 236
482 22
483 308
484 309
485 310
486 311
487 48
488 312
489 313
490 272
491 22
492 314
493 315
494 98
495 316
496 317
497 318
498 108
499 12
500 3
501 319
502 15
503 320
504 321
505 322
506 14
507 323
508 324
509 325
510 59
511 100
512 98
513 326
514 12
515 32
516 327
517 328
518 329
519 319
520 330
521 22
522 94
523 234
524 331
525 14
526 332
527 41
528 333
529 300
530 103
531 334
532 159
533 248
534 22
535 22
536 24
537 169
538 335
539 336
540 32
541 55
542 59
543 337
544 236
545 155
546 338
547 234
548 339
549 28
550 189
551 48
552 55
553 163
554 191
555 340
556 229
557 341
558 70
559 342
560 343
561 344
562 105
563 14
564 345
565 24
566 256
567 55
568 346
569 347
570 3
571 348
572 349
573 350
574 351
575 352
576 353
577 71
578 354
579 71
580 355
581 197
582 290
583 356
584 212
585 12
586 357
587 255
588 12
589 3
590 358
591 128
592 359
593 343
594 39
595 255
596 22
597 360
598 324
599 361
600 55
601 3
602 7
603 362
604 363
605 55
606 364
607 365
608 197
609 2
610 366
611 17
612 367
613 162
614 46
615 368
616 369
617 44
618 90
619 76
620 370
621 35
622 371
623 372
624 15
625 24
626 373
627 236
628 12
629 14
630 55
631 374
632 3
633 315
634 162
635 104
636 375
637 68
638 3
639 71
640 163
641 39
642 14
643 55
644 376
645 161
646 32
647 18
648 377
649 32
650 33
651 80
652 14
653 128
654 378
655 379
656 380
657 255
658 44
659 381
660 362
661 382
662 22
663 15
664 32
665 383
666 175
667 292
668 22
669 71
670 384
671 385
672 386
673 84
674 14
675 387
676 159
677 72
678 388
679 389
680 390
681 356
682 391
683 96
684 392
685 329
686 393
687 55
688 394
689 65
690 395
691 35
692 396
693 158
694 79
695 35
696 397
697 398
698 236
699 399
700 400
701 59
702 401
703 163
704 402
705 403
706 404
707 244
708 405
709 406
710 285
711 407
712 99
713 14
714 59
715 241
716 408
717 409
718 23
719 410
720 22
721 14
722 411
723 412
724 4
725 413
726 318
727 33
728 414
729 32
730 157
731 14
732 201
733 23
734 415
735 416
736 162
737 162
738 162
739 35
740 417
741 55
742 9
743 98
744 418
745 330
746 419
747 105
748 236
749 277
750 420
751 421
752 72
753 422
754 234
755 423
756 424
757 77
758 31
759 46
760 14
761 12
762 371
763 425
764 55
765 75
766 351
767 72
768 426
769 172
770 427
771 7
772 428
773 429
774 430
775 59
776 100
777 63
778 278
779 48
780 348
781 431
782 68
783 71
784 285
785 14
786 432
787 3
788 23
789 290
790 14
791 425
792 3
793 433
794 434
795 435
796 214
797 436
798 212
799 277
800 59
801 22
802 437
803 438
804 255
805 439
806 3
807 277
808 440
809 352
810 441
811 315
812 442
813 380
814 277
815 22
816 290
817 71
818 443
819 55
820 162
821 444
822 22
823 206
824 91
825 340
826 55
827 431
828 445
829 446
830 409
831 447
832 448
833 445
834 344
835 14
836 277
837 449
838 450
839 451
840 452
841 23
842 453
843 3
844 454
845 455
846 456
847 96
848 59
849 9
850 457
851 170
852 458
853 459
854 460
855 461
856 105
857 3
858 330
859 462
860 463
861 464
862 59
863 465
864 236
865 14
866 300
867 195
868 466
869 34
870 467
871 468
872 32
873 32
874 469
875 470
876 471
877 291
878 472
879 32
880 77
881 348
882 48
883 473
884 474
885 3
886 3
887 360
888 475
889 476
890 75
891 477
892 407
893 478
894 14
895 3
896 305
897 479
898 77
899 35
900 84
901 162
902 49
903 448
904 35
905 35
906 3
907 96
908 480
909 55
910 481
911 23
912 482
913 39
914 483
915 484
916 248
917 485
918 486
919 431
920 236
921 12
922 487
923 448
924 488
925 17
926 489
927 490
928 35
929 77
930 75
931 197
932 491
933 94
934 83
935 12
936 14
937 458
938 9
939 283
940 24
941 14
942 207
943 32
944 23
945 492
946 155
947 236
948 493
949 59
950 236
951 344
952 285
953 494
954 32
955 495
956 96
957 496
958 14
959 497
960 107
961 498
962 55
963 14
964 3
965 214
966 14
967 218
968 273
969 349
970 14
971 109
972 499
973 500
974 166
975 77
976 99
977 303
978 348
979 308
980 501
981 105
982 502
983 230
984 503
985 504
986 145
987 505
988 506
989 3
990 14
991 17
992 35
993 507
994 59
995 272
996 236
997 215
998 22
999 508
1000 509
1001 509
1002 509
1003 509
1004 509
1005 509
1006 509
1007 509
1008 509
1009 509
1010 510
1011 510
1012 510
1013 510
1014 510
1015 510
1016 510
1017 510
1018 510
1019 510
1020 511
1021 511
1022 511
1023 511
1024 511
1025 511
1026 511
1027 511
1028 511
1029 511
1030 512
1031 512
1032 512
1033 512
1034 512
1035 512
1036 512
1037 512
1038 512
1039 512
1040 513
1041 513
1042 513
1043 513
1044 513
1045 513
1046 513
1047 513
1048 513
1049 513
1050 514
1051 514
1052 514
1053 514
1054 514
1055 514
1056 514
1057 514
1058 514
1059 514
1060 515
1061 515
1062 515
1063 515
1064 515
1065 515
1066 515
1067 515
1068 515
1069 515
1070 516
1071 516
1072 516
1073 516
1074 516
1075 516
1076 516
1077 516
1078 516
1079 516
1080 517
1081 517
1082 517
1083 517
1084 517
1085 517
1086 517
1087 517
1088 517
1089 517
1090 518
1091 518
1092 518
1093 518
1094 518
1095 518
1096 518
1097 518
1098 518
1099 518
1100 519
1101 519
1102 519
1103 519
1104 519
1105 519
1106 519
1107 519
1108 519
1109 519
1110 520
1111 520
1112 520
1113 520
1114 520
1115 520
1116 520
1117 520
1118 520
1119 520
1120 521
1121 521
1122 521
1123 521
1124 521
1125 521
1126 521
1127 521
1128 521
1129 521
1130 522
1131 522
1132 522
1133 522
1134 522
1135 522
1136 522
1137 522
1138 522
1139 522
1140 523
1141 523
1142 523
1143 523
1144 523
1145 523
1146 523
1147 523
1148 523
1149 523
1150 524
1151 524
1152 524
1153 524
1154 524
1155 524
1156 524
1157 524
1158 524
1159 524
1160 525
1161 525
1162 525
1163 525
1164 525
1165 525
1166 525
1167 525
1168 525
1169 525
1170 526
1171 526
1172 526
1173 526
1174 526
1175 526
1176 526
1177 526
1178 526
1179 526
1180 527
1181 527
1182 527
1183 527
1184 527
1185 527
1186 527
1187 527
1188 527
1189 527
1190 528
1191 528
1192 528
1193 528
1194 528
1195 528
1196 528
1197 528
1198 528
1199 528
1200 529
1201 529
1202 529
1203 529
1204 529
1205 529
1206 529
1207 529
1208 529
1209 529
1210 530
1211 530
1212 530
1213 530
1214 530
1215 530
1216 530
1217 530
1218 530
1219 530
1220 531
1221 531
1222 531
1223 531
1224 531
1225 531
1226 531
1227 531
1228 531
1229 531
1230 532
1231 532
1232 532
1233 532
1234 532
1235 532
1236 532
1237 532
1238 532
1239 532
1240 533
1241 533
1242 533
1243 533
1244 533
1245 533
1246 533
1247 533
1248 533
1249 533
1250 534
1251 534
1252 534
1253 534
1254 534
1255 534
1256 534
1257 534
1258 534
1259 534
1260 535
1261 535
1262 535
1263 535
1264 535
1265 535
1266 535
1267 535
1268 535
1269 535
1270 536
1271 536
1272 536
1273 536
1274 536
1275 536
1276 536
1277 536
1278 536
1279 536
1280 537
1281 537
1282 537
1283 537
1284 537
1285 537
1286 537
1287 537
1288 537
1289 537
1290 538
1291 538
1292 538
1293 538
1294 538
1295 538
1296 538
1297 538
1298 538
1299 538
1300 539
1301 539
1302 539
1303 539
1304 539
1305 539
1306 539
1307 539
1308 539
1309 539
1310 540
1311 540
1312 540
1313 540
1314 540
1315 540
1316 540
1317 540
1318 540
1319 540
1320 541
1321 541
1322 541
1323 541
1324 541
1325 541
1326 541
1327 541
1328 541
1329 541
1330 542
1331 542
1332 542
1333 542
1334 542
1335 542
1336 542
1337 542
1338 542
1339 542
1340 543
1341 543
1342 543
1343 543
1344 543
1345 543
1346 543
1347 543
1348 543
1349 543
1350 544
1351 544
1352 544
1353 544
1354 544
1355 544
1356 544
1357 544
1358 544
1359 544
1360 545
1361 545
1362 545
1363 545
1364 545
1365 545
1366 545
1367 545
1368 545
1369 545
1370 546
1371 546
1372 546
1373 546
1374 546
1375 546
1376 546
1377 546
1378 546
1379 546
1380 547
1381 547
1382 547
1383 547
1384 547
1385 547
1386 547
1387 547
1388 547
1389 547
1390 548
1391 548
1392 548
1393 548
1394 548
1395 548
1396 548
1397 548
1398 548
1399 548
1400 549
1401 549
1402 549
1403 549
1404 549
1405 549
1406 549
1407 549
1408 549
1409 549
1410 550
1411 550
1412 550
1413 550
1414 550
1415 550
1416 550
1417 550
1418 550
1419 550
1420 551
1421 551
1422 551
1423 551
1424 551
1425 551
1426 551
1427 551
1428 551
1429 551
1430 552
1431 552
1432 552
1433 552
1434 552
1435 552
1436 552
1437 552
1438 552
1439 552
1440 553
1441 553
1442 553
1443 553
1444 553
1445 553
1446 553
1447 553
1448 553
1449 553
1450 554
1451 554
1452 554
1453 554
1454 554
1455 554
1456 554
1457 554
1458 554
1459 554
1460 555
1461 555
1462 555
1463 555
1464 555
1465 555
1466 555
1467 555
1468 555
1469 555
1470 556
1471 556
1472 556
1473 556
1474 556
1475 556
1476 556
1477 556
1478 556
1479 556
1480 557
1481 557
1482 557
1483 557
1484 557
1485 557
1486 557
1487 557
1488 557
1489 557
1490 558
1491 558
1492 558
1493 558
1494 558
1495 558
1496 558
1497 558
1498 558
1499 558
1500 559
1501 559
1502 559
1503 559
1504 559
1505 559
1506 559
1507 559
1508 559
1509 559
1510 560
1511 560
1512 560
1513 560
1514 560
1515 560
1516 560
1517 560
1518 560
1519 560
1520 561
1521 561
1522 561
1523 561
1524 561
1525 561
1526 561
1527 561
1528 561
1529 561
1530 562
1531 562
1532 562
1533 562
1534 562
1535 562
1536 562
1537 562
1538 562
1539 562
1540 563
1541 563
1542 563
1543 563
1544 563
1545 563
1546 563
1547 563
1548 563
1549 563
1550 564
1551 564
1552 564
1553 564
1554 564
1555 564
1556 564
1557 564
1558 564
1559 564
1560 565
1561 565
1562 565
1563 565
1564 565
1565 565
1566 565
1567 565
1568 565
1569 565
1570 566
1571 566
1572 566
1573 566
1574 566
1575 566
1576 566
1577 566
1578 566
1579 566
1580 567
1581 567
1582 567
1583 567
1584 567
1585 567
1586 567
1587 567
1588 567
1589 567
1590 568
1591 568
1592 568
1593 568
1594 568
1595 568
1596 568
1597 568
1598 568
1599 568
1600 569
1601 569
1602 569
1603 569
1604 569
1605 569
1606 569
1607 569
1608 569
1609 569
1610 570
1611 570
1612 570
1613 570
1614 570
1615 570
1616 570
1617 570
1618 570
1619 570
1620 571
1621 571
1622 571
1623 571
1624 571
1625 571
1626 571
1627 571
1628 571
1629 571
1630 572
1631 572
1632 572
1633 572
1634 572
1635 572
1636 572
1637 572
1638 572
1639 572
1640 573
1641 573
1642 573
1643 573
1644 573
1645 573
1646 573
1647 573
1648 573
1649 573
1650 574
1651 574
1652 574
1653 574
1654 574
1655 574
1656 574
1657 574
1658 574
1659 574
1660 575
1661 575
1662 575
1663 575
1664 575
1665 575
1666 575
1667 575
1668 575
1669 575
1670 576
1671 576
1672 576
1673 576
1674 576
1675 576
1676 576
1677 576
1678 576
1679 576
1680 577
1681 577
1682 577
1683 577
1684 577
1685 577
1686 577
1687 577
1688 577
1689 577
1690 578
1691 578
1692 578
1693 578
1694 578
1695 578
1696 578
1697 578
1698 578
1699 578
1700 579
1701 579
1702 579
1703 579
1704 579
1705 579
1706 579
1707 579
1708 579
1709 579
1710 580
1711 580
1712 580
1713 580
1714 580
1715 580
1716 580
1717 580
1718 580
1719 580
1720 581
1721 581
1722 581
1723 581
1724 581
1725 581
1726 581
1727 581
1728 581
1729 581
1730 582
1731 582
1732 582
1733 582
1734 582
1735 582
1736 582
1737 582
1738 582
1739 582
1740 583
1741 583
1742 583
1743 583
1744 583
1745 583
1746 583
1747 583
1748 583
1749 583
1750 584
1751 584
1752 584
1753 584
1754 584
1755 584
1756 584
1757 584
1758 584
1759 584
1760 585
1761 585
1762 585
1763 585
1764 585
1765 585
1766 585
1767 585
1768 585
1769 585
1770 586
1771 586
1772 586
1773 586
1774 586
1775 586
1776 586
1777 586
1778 586
1779 586
1780 587
1781 587
1782 587
1783 587
1784 587
1785 587
1786 587
1787 587
1788 587
1789 587
1790 588
1791 588
1792 588
1793 588
1794 588
1795 588
1796 588
1797 588
1798 588
1799 588
1800 589
1801 589
1802 589
1803 589
1804 589
1805 589
1806 589
1807 589
1808 589
1809 589
1810 590
1811 590
1812 590
1813 590
1814 590
1815 590
1816 590
1817 590
1818 590
1819 590
1820 591
1821 591
1822 591
1823 591
1824 591
1825 591
1826 591
1827 591
1828 591
1829 591
1830 592
1831 592
1832 592
1833 592
1834 592
1835 592
1836 592
1837 592
1838 592
1839 592
1840 593
1841 593
1842 593
1843 593
1844 593
1845 593
1846 593
1847 593
1848 593
1849 593
1850 594
1851 594
1852 594
1853 594
1854 594
1855 594
1856 594
1857 594
1858 594
1859 594
1860 595
1861 595
1862 595
1863 595
1864 595
1865 595
1866 595
1867 595
1868 595
1869 595
1870 596
1871 596
1872 596
1873 596
1874 596
1875 596
1876 596
1877 596
1878 596
1879 596
1880 597
1881 597
1882 597
1883 597
1884 597
1885 597
1886 597
1887 597
1888 597
1889 597
1890 598
1891 598
1892 598
1893 598
1894 598
1895 598
1896 598
1897 598
1898 598
1899 598
1900 599
1901 599
1902 599
1903 599
1904 599
1905 599
1906 599
1907 599
1908 599
1909 599
1910 600
1911 600
1912 600
1913 600
1914 600
1915 600
1916 600
1917 600
1918 600
1919 600
1920 601
1921 601
1922 601
1923 601
1924 601
1925 601
1926 601
1927 601
1928 601
1929 601
1930 602
1931 602
1932 602
1933 602
1934 602
1935 602
1936 602
1937 602
1938 602
1939 602
1940 603
1941 603
1942 603
1943 603
1944 603
1945 603
1946 603
1947 603
1948 603
1949 603
1950 604
1951 604
1952 604
1953 604
1954 604
1955 604
1956 604
1957 604
1958 604
1959 604
1960 605
1961 605
1962 605
1963 605
1964 605
1965 605
1966 605
1967 605
1968 605
1969 605
1970 606
1971 606
1972 606
1973 606
1974 606
1975 606
1976 606
1977 606
1978 606
1979 606
1980 607
1981 607
1982 607
1983 607
1984 607
1985 607
1986 607
1987 607
1988 607
1989 607
1990 0
1991 0
1992 0
1993 0
1994 0
1995 0
1996 0
1997 0
1998 0
1999 0
