0 0
1 1
2 2
3 3
4 4
5 5
6 6
7 7
8 8
9 9
10 10
11 11
12 12
13 13
14 14
15 10
16 15
17 12
18 16
19 17
20 18
21 2
22 19
23 20
24 12
25 21
26 8
27 20
28 16
29 12
30 8
31 16
32 6
33 22
34 16
35 11
36 11
37 23
38 24
39 18
40 25
41 26
42 15
43 27
44 10
45 23
46 2
47 12
48 23
49 28
50 6
51 14
52 10
53 0
54 10
55 29
56 21
57 24
58 30
59 31
60 32
61 18
62 1
63 33
64 17
65 34
66 35
67 36
68 24
69 7
70 21
71 37
72 20
73 31
74 6
75 5
76 38
77 39
78 14
79 40
80 41
81 40
82 24
83 18
84 27
85 27
86 42
87 43
88 21
89 34
90 21
91 3
92 32
93 3
94 44
95 23
96 43
97 42
98 38
99 45
100 42
101 42
102 46
103 47
104 6
105 21
106 0
107 5
108 3
109 24
110 30
111 6
112 18
113 48
114 46
115 31
116 34
117 25
118 0
119 43
120 47
121 49
122 1
123 16
124 12
125 7
126 34
127 50
128 31
129 10
130 7
131 32
132 39
133 47
134 5
135 7
136 10
137 50
138 3
139 46
140 41
141 47
142 16
143 42
144 3
145 38
146 34
147 10
148 23
149 24
150 34
151 0
152 47
153 21
154 38
155 10
156 43
157 38
158 51
159 30
160 52
161 53
162 34
163 7
164 44
165 10
166 16
167 54
168 21
169 53
170 21
171 42
172 55
173 14
174 49
175 43
176 6
177 10
178 21
179 44
180 43
181 52
182 3
183 41
184 16
185 56
186 43
187 23
188 44
189 43
190 5
191 16
192 10
193 27
194 16
195 25
196 27
197 57
198 5
199 57
200 46
201 58
202 4
203 5
204 42
205 21
206 7
207 5
208 38
209 42
210 28
211 44
212 59
213 34
214 47
215 44
216 27
217 42
218 35
219 22
220 21
221 27
222 7
223 7
224 10
225 20
226 60
227 34
228 42
229 53
230 61
231 38
232 43
233 22
234 38
235 53
236 27
237 44
238 6
239 56
240 50
241 5
242 35
243 17
244 16
245 18
246 51
247 18
248 22
249 44
250 27
251 43
252 22
253 22
254 18
255 6
256 5
257 44
258 44
259 34
260 30
261 52
262 10
263 52
264 43
265 23
266 44
267 16
268 15
269 56
270 16
271 7
272 43
273 25
274 45
275 15
276 15
277 40
278 15
279 15
280 42
281 35
282 5
283 43
284 12
285 21
286 42
287 34
288 6
289 4
290 24
291 6
292 15
293 21
294 43
295 62
296 63
297 10
298 43
299 27
300 15
301 23
302 47
303 13
304 64
305 31
306 43
307 20
308 29
309 4
310 49
311 41
312 43
313 5
314 21
315 14
316 6
317 22
318 38
319 47
320 43
321 44
322 34
323 16
324 5
325 47
326 27
327 47
328 15
329 17
330 43
331 27
332 5
333 16
334 6
335 28
336 7
337 47
338 65
339 43
340 7
341 49
342 17
343 42
344 6
345 45
346 27
347 3
348 1
349 43
350 66
351 10
352 42
353 7
354 23
355 26
356 47
357 1
358 67
359 5
360 15
361 31
362 66
363 42
364 20
365 48
366 41
367 48
368 16
369 47
370 3
371 43
372 13
373 47
374 44
375 27
376 56
377 6
378 21
379 43
380 42
381 54
382 42
383 16
384 27
385 21
386 50
387 43
388 43
389 56
390 3
391 47
392 50
393 44
394 5
395 52
396 3
397 27
398 11
399 23
400 12
401 16
402 11
403 30
404 52
405 34
406 4
407 6
408 44
409 5
410 11
411 22
412 43
413 16
414 39
415 5
416 34
417 3
418 10
419 42
420 31
421 20
422 13
423 44
424 24
425 5
426 43
427 11
428 43
429 44
430 68
431 44
432 22
433 50
434 57
435 3
436 69
437 42
438 16
439 3
440 40
441 3
442 27
443 30
444 6
445 43
446 69
447 22
448 43
449 54
450 44
451 0
452 16
453 6
454 16
455 44
456 5
457 70
458 18
459 66
460 50
461 16
462 24
463 42
464 32
465 47
466 14
467 42
468 43
469 6
470 43
471 24
472 70
473 53
474 11
475 15
476 20
477 47
478 35
479 42
480 42
481 44
482 58
483 20
484 24
485 27
486 22
487 20
488 27
489 20
490 42
491 11
492 1
493 7
494 44
495 23
496 49
497 17
498 71
499 24
500 22
501 42
502 11
503 53
504 5
505 47
506 1
507 47
508 16
509 42
510 18
511 3
512 3
513 16
514 44
515 11
516 16
517 21
518 47
519 47
520 47
521 3
522 14
523 25
524 57
525 27
526 47
527 20
528 43
529 1
530 42
531 6
532 1
533 26
534 16
535 6
536 47
537 23
538 20
539 15
540 27
541 18
542 24
543 1
544 53
545 72
546 43
547 47
548 64
549 42
550 24
551 53
552 22
553 49
554 27
555 1
556 15
557 24
558 47
559 20
560 3
561 56
562 11
563 61
564 42
565 54
566 4
567 47
568 47
569 3
570 23
571 1
572 52
573 0
574 53
575 38
576 24
577 44
578 24
579 47
580 42
581 24
582 43
583 23
584 35
585 24
586 15
587 24
588 16
589 1
590 35
591 43
592 44
593 1
594 27
595 56
596 3
597 18
598 20
599 43
600 42
601 53
602 10
603 16
604 32
605 18
606 15
607 44
608 42
609 42
610 22
611 47
612 11
613 20
614 20
615 27
616 6
617 44
618 38
619 1
620 1
621 42
622 66
623 1
624 47
625 41
626 42
627 27
628 22
629 1
630 4
631 42
632 47
633 73
634 41
635 20
636 50
637 22
638 61
639 20
640 3
641 20
642 74
643 0
644 47
645 47
646 47
647 44
648 27
649 27
650 0
651 0
652 27
653 53
654 3
655 65
656 20
657 17
658 11
659 20
660 20
661 3
662 43
663 3
664 53
665 20
666 20
667 44
668 56
669 23
670 1
671 16
672 46
673 1
674 16
675 24
676 18
677 11
678 40
679 15
680 46
681 16
682 30
683 18
684 56
685 43
686 23
687 31
688 56
689 44
690 46
691 27
692 17
693 57
694 42
695 53
696 47
697 42
698 22
699 56
700 65
701 47
702 44
703 10
704 10
705 10
706 3
707 30
708 24
709 42
710 10
711 10
712 25
713 24
714 11
715 32
716 1
717 44
718 27
719 53
720 53
721 24
722 43
723 35
724 24
725 41
726 57
727 53
728 15
729 1
730 57
731 10
732 7
733 24
734 5
735 1
736 71
737 43
738 1
739 69
740 10
741 24
742 3
743 3
744 53
745 15
746 24
747 24
748 20
749 43
750 3
751 10
752 24
753 42
754 72
755 7
756 20
757 43
758 23
759 43
760 42
761 15
762 20
763 5
764 75
765 35
766 66
767 8
768 42
769 16
770 18
771 1
772 53
773 3
774 76
775 3
776 30
777 42
778 56
779 3
780 3
781 3
782 3
783 7
784 76
785 42
786 8
787 3
788 12
789 11
790 10
791 20
792 20
793 53
794 37
795 53
796 42
797 20
798 20
799 19
800 42
801 4
802 1
803 24
804 3
805 52
806 42
807 42
808 16
809 7
810 42
811 11
812 7
813 56
814 20
815 27
816 10
817 11
818 11
819 1
820 10
821 3
822 1
823 7
824 44
825 3
826 10
827 3
828 18
829 7
830 42
831 30
832 24
833 16
834 38
835 7
836 1
837 42
838 21
839 18
840 20
841 16
842 22
843 10
844 15
845 53
846 21
847 24
848 17
849 10
850 20
851 7
852 3
853 20
854 10
855 27
856 7
857 7
858 39
859 47
860 1
861 3
862 45
863 16
864 3
865 67
866 71
867 53
868 27
869 15
870 21
871 10
872 1
873 21
874 20
875 77
876 1
877 4
878 3
879 37
880 10
881 3
882 3
883 10
884 78
885 20
886 42
887 21
888 7
889 47
890 56
891 7
892 10
893 6
894 7
895 3
896 20
897 79
898 44
899 21
900 53
901 29
902 76
903 7
904 1
905 7
906 66
907 53
908 21
909 54
910 7
911 26
912 46
913 7
914 50
915 4
916 20
917 27
918 15
919 56
920 7
921 24
922 27
923 21
924 1
925 24
926 24
927 45
928 42
929 16
930 20
931 42
932 68
933 42
934 7
935 28
936 71
937 80
938 53
939 44
940 24
941 1
942 53
943 43
944 42
945 53
946 16
947 20
948 7
949 18
950 53
951 20
952 6
953 7
954 3
955 4
956 42
957 43
958 20
959 20
960 27
961 3
962 41
963 15
964 6
965 7
966 16
967 11
968 49
969 21
970 42
971 6
972 10
973 16
974 47
975 3
976 43
977 75
978 10
979 35
980 81
981 27
982 11
983 18
984 68
985 50
986 18
987 53
988 20
989 42
990 53
991 3
992 34
993 20
994 27
995 7
996 21
997 1
998 10
999 49
1000 53
1001 2
1002 42
1003 3
1004 70
1005 3
1006 7
1007 42
1008 42
1009 20
1010 27
1011 3
1012 34
1013 29
1014 20
1015 55
1016 30
1017 42
1018 41
1019 47
1020 46
1021 75
1022 42
1023 20
1024 43
1025 42
1026 1
1027 3
1028 42
1029 7
1030 7
1031 29
1032 16
1033 42
1034 57
1035 53
1036 53
1037 34
1038 4
1039 53
1040 59
1041 16
1042 20
1043 53
1044 42
1045 15
1046 23
1047 1
1048 4
1049 1
1050 34
1051 1
1052 62
1053 23
1054 7
1055 1
1056 23
1057 7
1058 36
1059 53
1060 11
1061 16
1062 1
1063 42
1064 6
1065 6
1066 55
1067 49
1068 4
1069 34
1070 21
1071 23
1072 10
1073 11
1074 21
1075 0
1076 24
1077 3
1078 74
1079 47
1080 38
1081 24
1082 50
1083 56
1084 3
1085 34
1086 53
1087 21
1088 42
1089 43
1090 12
1091 32
1092 53
1093 65
1094 3
1095 3
1096 56
1097 23
1098 52
1099 43
1100 20
1101 61
1102 1
1103 7
1104 39
1105 3
1106 56
1107 38
1108 53
1109 18
1110 10
1111 53
1112 5
1113 10
1114 10
1115 5
1116 7
1117 5
1118 42
1119 20
1120 6
1121 58
1122 7
1123 5
1124 0
1125 24
1126 66
1127 42
1128 62
1129 24
1130 3
1131 9
1132 3
1133 49
1134 43
1135 50
1136 53
1137 42
1138 7
1139 42
1140 7
1141 1
1142 27
1143 44
1144 1
1145 11
1146 16
1147 44
1148 53
1149 44
1150 1
1151 1
1152 42
1153 21
1154 7
1155 10
1156 20
1157 53
1158 43
1159 42
1160 20
1161 18
1162 53
1163 14
1164 52
1165 61
1166 54
1167 52
1168 3
1169 12
1170 53
1171 30
1172 53
1173 23
1174 44
1175 44
1176 53
1177 53
1178 77
1179 20
1180 44
1181 44
1182 40
1183 53
1184 27
1185 7
1186 57
1187 51
1188 27
1189 53
1190 53
1191 1
1192 82
1193 42
1194 53
1195 25
1196 44
1197 3
1198 3
1199 30
1200 66
1201 52
1202 20
1203 6
1204 53
1205 21
1206 56
1207 7
1208 42
1209 7
1210 3
1211 1
1212 7
1213 52
1214 24
1215 73
1216 52
1217 6
1218 3
1219 20
1220 53
1221 42
1222 10
1223 74
1224 42
1225 1
1226 10
1227 6
1228 10
1229 7
1230 42
1231 27
1232 23
1233 1
1234 16
1235 21
1236 9
1237 42
1238 27
1239 38
1240 42
1241 81
1242 42
1243 22
1244 53
1245 10
1246 30
1247 53
1248 7
1249 13
1250 3
1251 42
1252 6
1253 16
1254 15
1255 30
1256 24
1257 3
1258 53
1259 20
1260 3
1261 21
1262 3
1263 22
1264 30
1265 57
1266 44
1267 9
1268 44
1269 66
1270 54
1271 48
1272 53
1273 29
1274 44
1275 34
1276 53
1277 7
1278 20
1279 3
1280 44
1281 8
1282 12
1283 42
1284 42
1285 17
1286 27
1287 1
1288 11
1289 83
1290 50
1291 22
1292 53
1293 53
1294 3
1295 53
1296 58
1297 7
1298 10
1299 44
1300 53
1301 5
1302 15
1303 61
1304 35
1305 80
1306 22
1307 42
1308 25
1309 3
1310 56
1311 5
1312 60
1313 25
1314 42
1315 42
1316 34
1317 64
1318 42
1319 1
1320 46
1321 17
1322 42
1323 81
1324 7
1325 53
1326 15
1327 7
1328 1
1329 46
1330 7
1331 8
1332 20
1333 4
1334 3
1335 4
1336 53
1337 53
1338 7
1339 21
1340 30
1341 1
1342 57
1343 3
1344 56
1345 14
1346 12
1347 44
1348 7
1349 21
1350 15
1351 55
1352 7
1353 34
1354 3
1355 32
1356 20
1357 42
1358 47
1359 44
1360 44
1361 31
1362 20
1363 20
1364 44
1365 44
1366 1
1367 44
1368 44
1369 7
1370 42
1371 6
1372 44
1373 29
1374 18
1375 53
1376 22
1377 44
1378 42
1379 3
1380 1
1381 60
1382 47
1383 15
1384 28
1385 22
1386 47
1387 31
1388 72
1389 1
1390 47
1391 47
1392 3
1393 53
1394 18
1395 20
1396 47
1397 47
1398 6
1399 12
1400 17
1401 20
1402 20
1403 42
1404 32
1405 31
1406 21
1407 47
1408 20
1409 3
1410 12
1411 12
1412 7
1413 20
1414 44
1415 7
1416 20
1417 21
1418 5
1419 11
1420 42
1421 10
1422 6
1423 50
1424 44
1425 7
1426 31
1427 47
1428 20
1429 42
1430 1
1431 40
1432 53
1433 44
1434 50
1435 7
1436 42
1437 30
1438 15
1439 34
1440 53
1441 44
1442 3
1443 18
1444 1
1445 7
1446 42
1447 47
1448 53
1449 20
1450 69
1451 20
1452 3
1453 53
1454 47
1455 42
1456 70
1457 13
1458 49
1459 7
1460 44
1461 22
1462 1
1463 40
1464 44
1465 45
1466 53
1467 20
1468 42
1469 69
1470 53
1471 7
1472 15
1473 44
1474 11
1475 53
1476 76
1477 29
1478 3
1479 5
1480 5
1481 47
1482 15
1483 27
1484 1
1485 24
1486 22
1487 20
1488 11
1489 5
1490 42
1491 53
1492 50
1493 42
1494 24
1495 3
1496 42
1497 7
1498 3
1499 23
1500 7
1501 42
1502 47
1503 42
1504 53
1505 5
1506 44
1507 23
1508 10
1509 47
1510 5
1511 27
1512 53
1513 2
1514 16
1515 47
1516 34
1517 53
1518 27
1519 53
1520 30
1521 4
1522 3
1523 7
1524 3
1525 24
1526 47
1527 20
1528 20
1529 39
1530 53
1531 21
1532 24
1533 53
1534 22
1535 44
1536 47
1537 3
1538 27
1539 53
1540 14
1541 20
1542 42
1543 27
1544 7
1545 2
1546 42
1547 23
1548 7
1549 15
1550 7
1551 33
1552 53
1553 42
1554 53
1555 27
1556 4
1557 52
1558 11
1559 42
1560 44
1561 42
1562 42
1563 71
1564 20
1565 49
1566 3
1567 59
1568 42
1569 50
1570 18
1571 7
1572 53
1573 53
1574 6
1575 1
1576 47
1577 27
1578 47
1579 11
1580 15
1581 53
1582 15
1583 17
1584 22
1585 27
1586 30
1587 42
1588 1
1589 53
1590 42
1591 27
1592 16
1593 7
1594 56
1595 15
1596 53
1597 11
1598 22
1599 7
1600 53
1601 47
1602 4
1603 18
1604 47
1605 44
1606 43
1607 18
1608 24
1609 11
1610 20
1611 3
1612 7
1613 53
1614 43
1615 22
1616 27
1617 7
1618 42
1619 44
1620 43
1621 24
1622 27
1623 53
1624 24
1625 27
1626 7
1627 15
1628 53
1629 27
1630 53
1631 24
1632 53
1633 7
1634 20
1635 47
1636 44
1637 3
1638 43
1639 42
1640 43
1641 31
1642 27
1643 43
1644 42
1645 11
1646 43
1647 77
1648 27
1649 43
1650 22
1651 47
1652 20
1653 27
1654 18
1655 42
1656 18
1657 44
1658 23
1659 20
1660 19
1661 7
1662 76
1663 42
1664 47
1665 47
1666 53
1667 50
1668 20
1669 7
1670 42
1671 42
1672 20
1673 44
1674 3
1675 47
1676 53
1677 7
1678 15
1679 42
1680 7
1681 7
1682 20
1683 5
1684 21
1685 24
1686 77
1687 3
1688 3
1689 47
1690 42
1691 43
1692 24
1693 38
1694 47
1695 2
1696 10
1697 53
1698 27
1699 7
1700 43
1701 43
1702 3
1703 44
1704 46
1705 69
1706 11
1707 38
1708 47
1709 25
1710 0
1711 20
1712 3
1713 24
1714 3
1715 44
1716 43
1717 50
1718 69
1719 3
1720 5
1721 24
1722 47
1723 66
1724 43
1725 42
1726 24
1727 7
1728 7
1729 11
1730 8
1731 47
1732 10
1733 10
1734 27
1735 1
1736 24
1737 3
1738 3
1739 47
1740 22
1741 47
1742 24
1743 20
1744 20
1745 10
1746 11
1747 64
1748 50
1749 32
1750 11
1751 3
1752 42
1753 47
1754 38
1755 43
1756 20
1757 17
1758 16
1759 43
1760 42
1761 53
1762 69
1763 54
1764 7
1765 20
1766 10
1767 20
1768 53
1769 43
1770 47
1771 42
1772 53
1773 42
1774 53
1775 20
1776 24
1777 42
1778 27
1779 53
1780 44
1781 42
1782 27
1783 27
1784 27
1785 43
1786 3
1787 47
1788 16
1789 47
1790 10
1791 53
1792 7
1793 42
1794 17
1795 0
1796 10
1797 3
1798 47
1799 16
1800 20
1801 43
1802 20
1803 43
1804 27
1805 44
1806 47
1807 14
1808 16
1809 47
1810 7
1811 10
1812 53
1813 74
1814 43
1815 47
1816 26
1817 51
1818 27
1819 37
1820 16
1821 20
1822 58
1823 40
1824 53
1825 47
1826 44
1827 47
1828 16
1829 20
1830 47
1831 20
1832 47
1833 35
1834 65
1835 42
1836 21
1837 43
1838 3
1839 44
1840 42
1841 4
1842 35
1843 16
1844 37
1845 3
1846 27
1847 7
1848 25
1849 44
1850 3
1851 43
1852 7
1853 3
1854 43
1855 3
1856 53
1857 21
1858 40
1859 27
1860 16
1861 47
1862 7
1863 5
1864 20
1865 16
1866 8
1867 7
1868 44
1869 10
1870 24
1871 20
1872 15
1873 24
1874 4
1875 83
1876 53
1877 10
1878 79
1879 53
1880 35
1881 27
1882 43
1883 53
1884 47
1885 16
1886 34
1887 42
1888 27
1889 43
1890 20
1891 47
1892 24
1893 69
1894 21
1895 20
1896 27
1897 53
1898 7
1899 30
1900 20
1901 27
1902 80
1903 42
1904 27
1905 42
1906 16
1907 41
1908 15
1909 20
1910 7
1911 3
1912 54
1913 53
1914 43
1915 7
1916 42
1917 47
1918 23
1919 42
1920 3
1921 16
1922 10
1923 27
1924 16
1925 44
1926 20
1927 16
1928 44
1929 47
1930 20
1931 27
1932 53
1933 6
1934 43
1935 22
1936 27
1937 47
1938 47
1939 44
1940 43
1941 21
1942 44
1943 43
1944 44
1945 20
1946 34
1947 44
1948 34
1949 47
1950 6
1951 16
1952 44
1953 16
1954 24
1955 7
1956 7
1957 0
1958 7
1959 42
1960 27
1961 42
1962 47
1963 6
1964 27
1965 27
1966 16
1967 6
1968 53
1969 1
1970 10
1971 42
1972 42
1973 16
1974 7
1975 42
1976 7
1977 47
1978 44
1979 43
1980 20
1981 53
1982 53
1983 44
1984 43
1985 43
1986 47
1987 43
1988 21
1989 20
1990 24
1991 3
1992 31
1993 42
1994 43
1995 27
1996 68
1997 7
1998 43
1999 3
2000 44
2001 25
2002 27
2003 20
2004 7
2005 11
2006 21
2007 27
2008 3
2009 6
2010 53
2011 20
2012 17
2013 47
2014 10
2015 44
2016 16
2017 62
2018 3
2019 74
2020 5
2021 10
2022 6
2023 7
2024 43
2025 7
2026 53
2027 15
2028 30
2029 53
2030 45
2031 43
2032 11
2033 44
2034 3
2035 16
2036 44
2037 20
2038 43
2039 27
2040 75
2041 53
2042 43
2043 6
2044 43
2045 53
2046 16
2047 20
2048 43
2049 27
2050 21
2051 42
2052 16
2053 7
2054 44
2055 43
2056 16
2057 61
2058 21
2059 27
2060 50
2061 8
2062 27
2063 43
2064 44
2065 16
2066 2
2067 52
2068 42
2069 27
2070 27
2071 39
2072 38
2073 56
2074 20
2075 29
2076 8
2077 47
2078 10
2079 47
2080 16
2081 3
2082 43
2083 42
2084 78
2085 21
2086 1
2087 16
2088 27
2089 44
2090 42
2091 47
2092 6
2093 24
2094 67
2095 37
2096 20
2097 77
2098 42
2099 6
2100 27
2101 21
2102 21
2103 42
2104 5
2105 21
2106 42
2107 42
2108 27
2109 47
2110 56
2111 43
2112 44
2113 42
2114 6
2115 53
2116 21
2117 16
2118 10
2119 32
2120 65
2121 16
2122 11
2123 15
2124 47
2125 53
2126 27
2127 11
2128 42
2129 6
2130 64
2131 6
2132 7
2133 10
2134 57
2135 11
2136 7
2137 32
2138 59
2139 1
2140 16
2141 56
2142 16
2143 0
2144 11
2145 39
2146 42
2147 16
2148 6
2149 60
2150 42
2151 43
2152 38
2153 42
2154 13
2155 7
2156 7
2157 4
2158 27
2159 42
2160 49
2161 53
2162 73
2163 47
2164 16
2165 10
2166 7
2167 42
2168 10
2169 41
2170 27
2171 76
2172 7
2173 53
2174 0
2175 47
2176 43
2177 37
2178 77
2179 44
2180 1
2181 21
2182 31
2183 5
2184 42
2185 52
2186 34
2187 51
2188 44
2189 16
2190 47
2191 47
2192 18
2193 18
2194 5
2195 43
2196 47
2197 44
2198 38
2199 42
2200 3
2201 30
2202 40
2203 21
2204 20
2205 30
2206 57
2207 67
2208 6
2209 11
2210 44
2211 23
2212 47
2213 16
2214 42
2215 27
2216 47
2217 34
2218 23
2219 18
2220 42
2221 82
2222 6
2223 16
2224 21
2225 43
2226 16
2227 42
2228 22
2229 47
2230 1
2231 38
2232 6
2233 34
2234 11
2235 64
2236 5
2237 56
2238 25
2239 50
2240 38
2241 5
2242 49
2243 5
2244 7
2245 43
2246 20
2247 47
2248 22
2249 16
2250 27
2251 47
2252 5
2253 22
2254 5
2255 29
2256 43
2257 27
2258 43
2259 3
2260 61
2261 29
2262 30
2263 16
2264 47
2265 47
2266 5
2267 65
2268 22
2269 16
2270 42
2271 70
2272 5
2273 45
2274 46
2275 25
2276 21
2277 16
2278 16
2279 34
2280 43
2281 0
2282 16
2283 72
2284 5
2285 30
2286 23
2287 27
2288 42
2289 10
2290 5
2291 7
2292 24
2293 43
2294 29
2295 16
2296 5
2297 16
2298 20
2299 69
2300 47
2301 16
2302 27
2303 25
2304 27
2305 25
2306 8
2307 22
2308 47
2309 14
2310 43
2311 22
2312 43
2313 60
2314 44
2315 5
2316 20
2317 0
2318 29
2319 7
2320 44
2321 43
2322 15
2323 56
2324 43
2325 44
2326 43
2327 43
2328 14
2329 16
2330 52
2331 43
2332 47
2333 6
2334 43
2335 34
2336 46
2337 44
2338 44
2339 16
2340 42
2341 0
2342 16
2343 44
2344 82
2345 15
2346 47
2347 44
2348 6
2349 3
2350 44
2351 44
2352 15
2353 46
2354 43
2355 47
2356 47
2357 27
2358 16
2359 23
2360 9
2361 34
2362 44
2363 16
2364 82
2365 30
2366 21
2367 27
2368 42
2369 47
2370 43
2371 56
2372 32
2373 1
2374 14
2375 22
2376 22
2377 4
2378 30
2379 14
2380 11
2381 44
2382 21
2383 41
2384 15
2385 76
2386 6
2387 14
2388 44
2389 42
2390 47
2391 44
2392 43
2393 5
2394 42
2395 22
2396 17
2397 3
2398 45
2399 7
2400 3
2401 5
2402 4
2403 43
2404 42
2405 3
2406 27
2407 12
2408 56
2409 22
2410 34
2411 47
2412 20
2413 42
2414 3
2415 67
2416 7
2417 27
2418 16
2419 51
2420 23
2421 20
2422 42
2423 76
2424 42
2425 31
2426 27
2427 30
2428 24
2429 4
2430 5
2431 53
2432 44
2433 21
2434 4
2435 50
2436 33
2437 43
2438 22
2439 32
2440 16
2441 52
2442 53
2443 8
2444 43
2445 44
2446 72
2447 42
2448 12
2449 44
2450 15
2451 16
2452 74
2453 3
2454 16
2455 22
2456 17
2457 9
2458 16
2459 44
2460 22
2461 4
2462 52
2463 17
2464 36
2465 44
2466 52
2467 63
2468 27
2469 30
2470 30
2471 4
2472 66
2473 11
2474 11
2475 3
2476 16
2477 15
2478 11
2479 15
2480 57
2481 43
2482 3
2483 3
2484 3
2485 52
2486 0
2487 11
2488 5
2489 43
2490 50
2491 44
2492 42
2493 29
2494 43
2495 31
2496 7
2497 3
2498 4
2499 53
2500 21
2501 16
2502 15
2503 42
2504 53
2505 7
2506 42
2507 3
2508 54
2509 64
2510 3
2511 21
2512 11
2513 27
2514 29
2515 53
2516 52
2517 53
2518 43
2519 18
2520 43
2521 5
2522 35
2523 18
2524 53
2525 53
2526 3
2527 50
2528 29
2529 53
2530 3
2531 1
2532 7
2533 20
2534 43
2535 1
2536 52
2537 3
2538 29
2539 3
2540 3
2541 50
2542 42
2543 15
2544 11
2545 8
2546 24
2547 20
2548 1
2549 53
2550 53
2551 7
2552 23
2553 43
2554 76
2555 16
2556 24
2557 1
2558 18
2559 1
2560 25
2561 24
2562 11
2563 16
2564 24
2565 22
2566 1
2567 20
2568 25
2569 49
2570 53
2571 27
2572 42
2573 42
2574 20
2575 53
2576 5
2577 16
2578 6
2579 42
2580 65
2581 34
2582 21
2583 6
2584 23
2585 44
2586 20
2587 29
2588 53
2589 53
2590 27
2591 53
2592 42
2593 47
2594 42
2595 42
2596 53
2597 1
2598 57
2599 16
2600 53
2601 56
2602 27
2603 16
2604 16
2605 69
2606 16
2607 20
2608 24
2609 53
2610 27
2611 43
2612 56
2613 9
2614 24
2615 20
2616 42
2617 3
2618 29
2619 20
2620 24
2621 27
2622 1
2623 18
2624 52
2625 20
2626 49
2627 3
2628 40
2629 3
2630 1
2631 49
2632 3
2633 53
2634 44
2635 20
2636 1
2637 9
2638 44
2639 44
2640 3
2641 68
2642 16
2643 27
2644 1
2645 22
2646 20
2647 42
2648 64
2649 20
2650 32
2651 63
2652 11
2653 1
2654 44
2655 31
2656 20
2657 11
2658 31
2659 46
2660 4
2661 42
2662 22
2663 47
2664 53
2665 20
2666 3
2667 24
2668 44
2669 34
2670 1
2671 18
2672 53
2673 61
2674 51
2675 46
2676 42
2677 53
2678 45
2679 45
2680 1
2681 42
2682 16
2683 20
2684 17
2685 18
2686 53
2687 53
2688 44
2689 14
2690 18
2691 20
2692 17
2693 9
2694 42
2695 53
2696 24
2697 17
2698 3
2699 1
2700 42
2701 20
2702 3
2703 52
2704 42
2705 27
2706 3
2707 3
2708 53
2709 20
2710 18
2711 32
2712 18
2713 53
2714 27
2715 44
2716 43
2717 3
2718 32
2719 53
2720 3
2721 58
2722 20
2723 3
2724 1
2725 1
2726 18
2727 17
2728 24
2729 20
2730 24
2731 18
2732 11
2733 17
2734 59
2735 11
2736 16
2737 43
2738 3
2739 42
2740 53
2741 14
2742 27
2743 16
2744 53
2745 32
2746 5
2747 27
2748 17
2749 43
2750 43
2751 1
2752 40
2753 53
2754 1
2755 16
2756 24
2757 53
2758 30
2759 22
2760 20
2761 42
2762 42
2763 24
2764 42
2765 42
2766 47
2767 82
2768 3
2769 1
2770 30
2771 20
2772 24
2773 27
2774 10
2775 77
2776 53
2777 71
2778 24
2779 47
2780 30
2781 47
2782 71
2783 47
2784 3
2785 53
2786 67
2787 18
2788 3
2789 7
2790 53
2791 53
2792 16
2793 53
2794 27
2795 3
2796 24
2797 29
2798 20
2799 42
2800 3
2801 34
2802 18
2803 78
2804 53
2805 24
2806 54
2807 50
2808 1
2809 17
2810 53
2811 40
2812 27
2813 16
2814 42
2815 3
2816 53
2817 3
2818 7
2819 1
2820 27
2821 3
2822 3
2823 20
2824 53
2825 13
2826 15
2827 43
2828 29
2829 7
2830 76
2831 41
2832 63
2833 3
2834 18
2835 66
2836 27
2837 38
2838 3
2839 4
2840 20
2841 53
2842 12
2843 3
2844 3
2845 20
2846 3
2847 22
2848 3
2849 10
2850 77
2851 77
2852 53
2853 23
2854 3
2855 10
2856 42
2857 22
2858 15
2859 20
2860 7
2861 21
2862 16
2863 61
2864 30
2865 20
2866 39
2867 7
2868 42
2869 20
2870 7
2871 7
2872 3
2873 7
2874 10
2875 7
2876 43
2877 7
2878 78
2879 15
2880 18
2881 23
2882 3
2883 70
2884 27
2885 7
2886 1
2887 21
2888 44
2889 16
2890 7
2891 64
2892 3
2893 5
2894 74
2895 42
2896 10
2897 70
2898 42
2899 24
2900 1
2901 1
2902 10
2903 49
2904 3
2905 7
2906 27
2907 21
2908 24
2909 53
2910 15
2911 53
2912 15
2913 42
2914 42
2915 16
2916 7
2917 1
2918 18
2919 55
2920 10
2921 7
2922 21
2923 1
2924 24
2925 53
2926 42
2927 24
2928 10
2929 42
2930 18
2931 27
2932 53
2933 10
2934 34
2935 33
2936 20
2937 42
2938 29
2939 17
2940 53
2941 7
2942 6
2943 44
2944 3
2945 6
2946 6
2947 24
2948 47
2949 12
2950 18
2951 42
2952 6
2953 20
2954 53
2955 16
2956 24
2957 7
2958 47
2959 82
2960 46
2961 20
2962 3
2963 1
2964 3
2965 7
2966 53
2967 16
2968 1
2969 15
2970 47
2971 3
2972 22
2973 5
2974 42
2975 27
2976 1
2977 1
2978 44
2979 18
2980 6
2981 47
2982 53
2983 3
2984 20
2985 20
2986 53
2987 53
2988 82
2989 20
2990 16
2991 10
2992 21
2993 20
2994 52
2995 50
2996 42
2997 3
2998 53
2999 42
3000 42
3001 20
3002 7
3003 27
3004 53
3005 20
3006 3
3007 20
3008 1
3009 48
3010 22
3011 20
3012 29
3013 42
3014 52
3015 3
3016 53
3017 36
3018 3
3019 27
3020 18
3021 20
3022 10
3023 20
3024 16
3025 61
3026 53
3027 13
3028 3
3029 7
3030 32
3031 6
3032 3
3033 2
3034 34
3035 7
3036 53
3037 23
3038 68
3039 20
3040 25
3041 49
3042 53
3043 1
3044 4
3045 3
3046 35
3047 3
3048 7
3049 21
3050 16
3051 7
3052 7
3053 20
3054 20
3055 24
3056 3
3057 42
3058 16
3059 16
3060 8
3061 20
3062 42
3063 27
3064 20
3065 7
3066 51
3067 33
3068 81
3069 1
3070 29
3071 27
3072 1
3073 42
3074 3
3075 14
3076 42
3077 53
3078 18
3079 65
3080 23
3081 20
3082 62
3083 23
3084 3
3085 43
3086 3
3087 53
3088 52
3089 6
3090 7
3091 25
3092 1
3093 24
3094 7
3095 27
3096 21
3097 1
3098 0
3099 34
3100 20
3101 7
3102 3
3103 51
3104 3
3105 42
3106 16
3107 42
3108 7
3109 42
3110 20
3111 10
3112 53
3113 57
3114 56
3115 23
3116 3
3117 21
3118 0
3119 1
3120 53
3121 25
3122 31
3123 20
3124 16
3125 29
3126 21
3127 64
3128 27
3129 16
3130 10
3131 7
3132 6
3133 6
3134 1
3135 41
3136 53
3137 64
3138 53
3139 23
3140 7
3141 3
3142 24
3143 63
3144 5
3145 4
3146 53
3147 4
3148 3
3149 1
3150 42
3151 15
3152 3
3153 53
3154 7
3155 23
3156 10
3157 7
3158 45
3159 48
3160 20
3161 7
3162 20
3163 7
3164 47
3165 3
3166 3
3167 20
3168 30
3169 27
3170 56
3171 24
3172 7
3173 42
3174 42
3175 9
3176 0
3177 20
3178 59
3179 53
3180 42
3181 5
3182 46
3183 20
3184 3
3185 5
3186 3
3187 77
3188 20
3189 20
3190 1
3191 1
3192 6
3193 44
3194 47
3195 44
3196 74
3197 23
3198 53
3199 44
3200 53
3201 66
3202 41
3203 53
3204 53
3205 7
3206 34
3207 3
3208 1
3209 20
3210 1
3211 7
3212 20
3213 42
3214 18
3215 53
3216 42
3217 73
3218 7
3219 6
3220 32
3221 7
3222 16
3223 5
3224 5
3225 53
3226 21
3227 7
3228 55
3229 1
3230 44
3231 53
3232 44
3233 20
3234 30
3235 5
3236 57
3237 44
3238 53
3239 18
3240 43
3241 5
3242 44
3243 44
3244 30
3245 1
3246 34
3247 7
3248 30
3249 3
3250 42
3251 3
3252 11
3253 42
3254 21
3255 53
3256 23
3257 35
3258 17
3259 24
3260 42
3261 3
3262 7
3263 10
3264 3
3265 20
3266 30
3267 10
3268 47
3269 7
3270 3
3271 20
3272 3
3273 44
3274 3
3275 30
3276 46
3277 1
3278 44
3279 61
3280 3
3281 44
3282 6
3283 10
3284 7
3285 45
3286 38
3287 53
3288 41
3289 3
3290 25
3291 52
3292 20
3293 21
3294 16
3295 53
3296 50
3297 20
3298 53
3299 3
3300 1
3301 7
3302 1
3303 3
3304 1
3305 20
3306 53
3307 44
3308 7
3309 44
3310 53
3311 69
3312 42
3313 5
3314 79
3315 62
3316 7
3317 3
3318 22
3319 18
3320 3
3321 53
3322 12
3323 3
3324 38
3325 44
3326 17
3327 20
3328 44
3329 3
3330 7
3331 39
3332 60
3333 22
3334 20
3335 20
3336 30
3337 16
3338 1
3339 20
3340 5
3341 27
3342 34
3343 6
3344 42
3345 4
3346 34
3347 14
3348 80
3349 52
3350 42
3351 42
3352 44
3353 7
3354 42
3355 44
3356 42
3357 44
3358 23
3359 52
3360 20
3361 21
3362 4
3363 20
3364 44
3365 29
3366 53
3367 42
3368 53
3369 3
3370 51
3371 16
3372 21
3373 53
3374 69
3375 7
3376 44
3377 29
3378 47
3379 22
3380 56
3381 7
3382 22
3383 44
3384 42
3385 42
3386 56
3387 47
3388 7
3389 53
3390 20
3391 30
3392 68
3393 42
3394 3
3395 49
3396 3
3397 7
3398 30
3399 47
3400 53
3401 15
3402 3
3403 42
3404 7
3405 42
3406 47
3407 3
3408 72
3409 47
3410 1
3411 7
3412 53
3413 3
3414 56
3415 10
3416 52
3417 5
3418 4
3419 7
3420 44
3421 42
3422 20
3423 62
3424 20
3425 4
3426 15
3427 20
3428 13
3429 12
3430 3
3431 5
3432 47
3433 7
3434 20
3435 53
3436 42
3437 4
3438 53
3439 1
3440 30
3441 20
3442 44
3443 34
3444 42
3445 20
3446 7
3447 32
3448 3
3449 7
3450 72
3451 27
3452 62
3453 50
3454 43
3455 42
3456 3
3457 44
3458 53
3459 8
3460 47
3461 1
3462 44
3463 54
3464 10
3465 53
3466 52
3467 42
3468 1
3469 82
3470 51
3471 53
3472 15
3473 3
3474 47
3475 20
3476 7
3477 47
3478 48
3479 3
3480 3
3481 20
3482 52
3483 59
3484 48
3485 42
3486 20
3487 53
3488 42
3489 44
3490 20
3491 53
3492 34
3493 21
3494 67
3495 82
3496 28
3497 30
3498 42
3499 44
3500 11
3501 47
3502 15
3503 44
3504 59
3505 44
3506 7
3507 11
3508 53
3509 21
3510 6
3511 47
3512 42
3513 42
3514 65
3515 20
3516 11
3517 15
3518 25
3519 20
3520 15
3521 3
3522 7
3523 53
3524 15
3525 33
3526 53
3527 46
3528 20
3529 3
3530 53
3531 69
3532 27
3533 53
3534 44
3535 3
3536 53
3537 34
3538 42
3539 44
3540 0
3541 53
3542 20
3543 50
3544 3
3545 3
3546 7
3547 3
3548 55
3549 15
3550 27
3551 20
3552 24
3553 20
3554 7
3555 7
3556 34
3557 24
3558 47
3559 42
3560 47
3561 39
3562 44
3563 53
3564 45
3565 35
3566 46
3567 16
3568 53
3569 47
3570 20
3571 29
3572 22
3573 4
3574 27
3575 35
3576 72
3577 53
3578 53
3579 7
3580 3
3581 44
3582 27
3583 11
3584 53
3585 7
3586 53
3587 7
3588 57
3589 6
3590 3
3591 53
3592 47
3593 75
3594 7
3595 47
3596 71
3597 7
3598 20
3599 3
3600 53
3601 27
3602 11
3603 53
3604 27
3605 44
3606 83
3607 24
3608 47
3609 41
3610 24
3611 35
3612 24
3613 42
3614 47
3615 7
3616 53
3617 53
3618 53
3619 3
3620 20
3621 3
3622 27
3623 50
3624 27
3625 38
3626 42
3627 42
3628 21
3629 3
3630 53
3631 47
3632 30
3633 3
3634 20
3635 68
3636 7
3637 3
3638 56
3639 63
3640 24
3641 44
3642 27
3643 47
3644 1
3645 7
3646 7
3647 20
3648 3
3649 61
3650 27
3651 53
3652 24
3653 33
3654 47
3655 42
3656 44
3657 0
3658 1
3659 11
3660 53
3661 3
3662 6
3663 22
3664 47
3665 53
3666 43
3667 43
3668 20
3669 43
3670 70
3671 3
3672 27
3673 42
3674 18
3675 47
3676 20
3677 43
3678 44
3679 3
3680 27
3681 3
3682 7
3683 20
3684 24
3685 62
3686 7
3687 47
3688 42
3689 27
3690 47
3691 42
3692 5
3693 18
3694 47
3695 67
3696 27
3697 78
3698 7
3699 44
3700 20
3701 3
3702 53
3703 54
3704 7
3705 7
3706 27
3707 43
3708 42
3709 47
3710 47
3711 3
3712 27
3713 7
3714 7
3715 47
3716 42
3717 53
3718 53
3719 43
3720 27
3721 26
3722 15
3723 44
3724 43
3725 42
3726 44
3727 53
3728 7
3729 20
3730 16
3731 54
3732 30
3733 3
3734 21
3735 44
3736 47
3737 47
3738 44
3739 53
3740 43
3741 25
3742 43
3743 3
3744 73
3745 53
3746 50
3747 20
3748 3
3749 3
3750 53
3751 43
3752 30
3753 47
3754 18
3755 30
3756 44
3757 53
3758 3
3759 27
3760 30
3761 53
3762 7
3763 20
3764 9
3765 20
3766 43
3767 18
3768 68
3769 53
3770 20
3771 18
3772 79
3773 42
3774 23
3775 7
3776 3
3777 3
3778 30
3779 47
3780 54
3781 52
3782 7
3783 47
3784 42
3785 17
3786 43
3787 53
3788 16
3789 42
3790 20
3791 47
3792 53
3793 16
3794 20
3795 28
3796 50
3797 7
3798 27
3799 16
3800 47
3801 7
3802 27
3803 42
3804 3
3805 20
3806 47
3807 46
3808 53
3809 81
3810 42
3811 1
3812 44
3813 27
3814 27
3815 44
3816 43
3817 20
3818 62
3819 16
3820 13
3821 3
3822 28
3823 44
3824 27
3825 42
3826 20
3827 47
3828 56
3829 63
3830 54
3831 3
3832 53
3833 3
3834 27
3835 20
3836 61
3837 7
3838 53
3839 10
3840 27
3841 53
3842 30
3843 15
3844 27
3845 20
3846 20
3847 32
3848 43
3849 47
3850 48
3851 43
3852 53
3853 3
3854 47
3855 20
3856 3
3857 7
3858 3
3859 53
3860 43
3861 47
3862 43
3863 69
3864 20
3865 15
3866 44
3867 20
3868 43
3869 10
3870 47
3871 42
3872 17
3873 44
3874 16
3875 7
3876 44
3877 3
3878 27
3879 53
3880 42
3881 20
3882 24
3883 47
3884 47
3885 16
3886 7
3887 43
3888 7
3889 4
3890 53
3891 43
3892 7
3893 11
3894 20
3895 14
3896 43
3897 42
3898 18
3899 16
3900 47
3901 3
3902 42
3903 47
3904 53
3905 20
3906 27
3907 1
3908 53
3909 47
3910 44
3911 47
3912 16
3913 3
3914 3
3915 42
3916 44
3917 27
3918 20
3919 7
3920 44
3921 42
3922 20
3923 3
3924 27
3925 47
3926 59
3927 53
3928 3
3929 3
3930 53
3931 27
3932 44
3933 5
3934 22
3935 3
3936 20
3937 3
3938 22
3939 12
3940 11
3941 27
3942 7
3943 20
3944 7
3945 7
3946 53
3947 7
3948 27
3949 31
3950 43
3951 20
3952 47
3953 3
3954 47
3955 46
3956 16
3957 7
3958 47
3959 0
3960 20
3961 24
3962 20
3963 16
3964 44
3965 9
3966 16
3967 72
3968 42
3969 1
3970 32
3971 16
3972 3
3973 27
3974 53
3975 42
3976 47
3977 43
3978 44
3979 6
3980 32
3981 42
3982 6
3983 27
3984 43
3985 27
3986 43
3987 34
3988 3
3989 16
3990 53
3991 82
3992 18
3993 47
3994 3
3995 43
3996 7
3997 42
3998 44
3999 53
4000 42
4001 3
4002 21
4003 20
4004 53
4005 20
4006 16
4007 27
4008 20
4009 43
4010 7
4011 27
4012 44
4013 53
4014 53
4015 3
4016 7
4017 24
4018 16
4019 53
4020 47
4021 42
4022 31
4023 20
4024 42
4025 47
4026 44
4027 21
4028 16
4029 27
4030 53
4031 7
4032 21
4033 53
4034 27
4035 42
4036 43
4037 43
4038 18
4039 27
4040 30
4041 42
4042 44
4043 47
4044 7
4045 20
4046 3
4047 81
4048 56
4049 27
4050 47
4051 53
4052 44
4053 18
4054 53
4055 27
4056 43
4057 43
4058 47
4059 47
4060 42
4061 33
4062 3
4063 3
4064 3
4065 53
4066 42
4067 1
4068 20
4069 21
4070 24
4071 21
4072 74
4073 53
4074 53
4075 9
4076 35
4077 53
4078 43
4079 21
4080 20
4081 34
4082 53
4083 47
4084 53
4085 53
4086 20
4087 44
4088 16
4089 27
4090 27
4091 53
4092 7
4093 21
4094 27
4095 16
4096 16
4097 42
4098 50
4099 42
4100 43
4101 43
4102 43
4103 47
4104 44
4105 14
4106 83
4107 6
4108 47
4109 53
4110 24
4111 20
4112 42
4113 16
4114 80
4115 21
4116 21
4117 45
4118 4
4119 47
4120 30
4121 80
4122 42
4123 42
4124 27
4125 53
4126 43
4127 47
4128 53
4129 44
4130 70
4131 24
4132 68
4133 7
4134 0
4135 43
4136 16
4137 42
4138 52
4139 66
4140 16
4141 27
4142 56
4143 23
4144 72
4145 64
4146 47
4147 44
4148 57
4149 18
4150 47
4151 12
4152 11
4153 16
4154 6
4155 56
4156 43
4157 16
4158 10
4159 44
4160 25
4161 42
4162 32
4163 6
4164 42
4165 73
4166 43
4167 61
4168 6
4169 30
4170 27
4171 52
4172 56
4173 0
4174 3
4175 34
4176 38
4177 44
4178 38
4179 7
4180 42
4181 42
4182 6
4183 56
4184 27
4185 10
4186 5
4187 38
4188 44
4189 21
4190 10
4191 27
4192 46
4193 16
4194 1
4195 47
4196 7
4197 42
4198 27
4199 4
4200 27
4201 46
4202 16
4203 24
4204 44
4205 43
4206 39
4207 27
4208 16
4209 3
4210 44
4211 43
4212 5
4213 3
4214 6
4215 44
4216 46
4217 43
4218 0
4219 20
4220 42
4221 29
4222 19
4223 42
4224 55
4225 43
4226 20
4227 25
4228 42
4229 50
4230 52
4231 27
4232 24
4233 38
4234 17
4235 16
4236 47
4237 43
4238 1
4239 27
4240 47
4241 27
4242 41
4243 41
4244 16
4245 52
4246 49
4247 30
4248 17
4249 5
4250 10
4251 5
4252 23
4253 17
4254 3
4255 38
4256 32
4257 42
4258 14
4259 42
4260 71
4261 77
4262 40
4263 5
4264 6
4265 30
4266 64
4267 42
4268 47
4269 47
4270 30
4271 42
4272 33
4273 53
4274 22
4275 42
4276 30
4277 27
4278 27
4279 53
4280 5
4281 44
4282 47
4283 42
4284 27
4285 27
4286 4
4287 34
4288 30
4289 52
4290 52
4291 64
4292 27
4293 76
4294 5
4295 53
4296 56
4297 22
4298 79
4299 29
4300 47
4301 23
4302 47
4303 10
4304 61
4305 47
4306 38
4307 47
4308 56
4309 44
4310 43
4311 42
4312 23
4313 24
4314 27
4315 54
4316 42
4317 47
4318 30
4319 3
4320 34
4321 16
4322 27
4323 21
4324 42
4325 34
4326 56
4327 35
4328 42
4329 43
4330 7
4331 16
4332 30
4333 42
4334 15
4335 47
4336 43
4337 7
4338 27
4339 47
4340 34
4341 44
4342 30
4343 38
4344 33
4345 16
4346 39
4347 4
4348 61
4349 0
4350 74
4351 44
4352 2
4353 38
4354 1
4355 6
4356 23
4357 42
4358 43
4359 16
4360 44
4361 4
4362 47
4363 30
4364 42
4365 27
4366 10
4367 46
4368 16
4369 24
4370 27
4371 43
4372 16
4373 6
4374 10
4375 66
4376 49
4377 21
4378 53
4379 6
4380 15
4381 42
4382 43
4383 53
4384 47
4385 34
4386 16
4387 15
4388 7
4389 5
4390 27
4391 77
4392 13
4393 17
4394 3
4395 49
4396 44
4397 16
4398 43
4399 43
4400 42
4401 15
4402 42
4403 4
4404 49
4405 42
4406 10
4407 16
4408 42
4409 32
4410 46
4411 32
4412 56
4413 9
4414 42
4415 44
4416 27
4417 55
4418 16
4419 3
4420 42
4421 16
4422 44
4423 27
4424 4
4425 16
4426 4
4427 9
4428 7
4429 16
4430 1
4431 15
4432 21
4433 51
4434 24
4435 16
4436 47
4437 83
4438 15
4439 38
4440 21
4441 5
4442 16
4443 11
4444 27
4445 27
4446 22
4447 46
4448 43
4449 49
4450 42
4451 34
4452 43
4453 47
4454 42
4455 3
4456 74
4457 25
4458 42
4459 44
4460 14
4461 16
4462 42
4463 7
4464 71
4465 56
4466 16
4467 15
4468 47
4469 49
4470 34
4471 71
4472 10
4473 73
4474 60
4475 42
4476 49
4477 22
4478 21
4479 5
4480 3
4481 27
4482 33
4483 52
4484 15
4485 16
4486 0
4487 13
4488 12
4489 4
4490 13
4491 42
4492 15
4493 4
4494 30
4495 17
4496 16
4497 44
4498 3
4499 42
4500 7
4501 63
4502 3
4503 47
4504 16
4505 16
4506 77
4507 32
4508 39
4509 31
4510 47
4511 3
4512 41
4513 42
4514 30
4515 16
4516 10
4517 3
4518 55
4519 64
4520 42
4521 47
4522 12
4523 10
4524 56
4525 79
4526 44
4527 22
4528 27
4529 42
4530 37
4531 15
4532 28
4533 11
4534 6
4535 42
4536 16
4537 15
4538 11
4539 8
4540 15
4541 42
4542 16
4543 35
4544 4
4545 43
4546 3
4547 18
4548 53
4549 62
4550 43
4551 11
4552 42
4553 53
4554 57
4555 53
4556 30
4557 42
4558 53
4559 22
4560 68
4561 24
4562 24
4563 31
4564 29
4565 27
4566 22
4567 5
4568 57
4569 35
4570 32
4571 18
4572 42
4573 21
4574 11
4575 42
4576 5
4577 16
4578 7
4579 47
4580 47
4581 53
4582 73
4583 20
4584 6
4585 42
4586 3
4587 39
4588 45
4589 42
4590 11
4591 42
4592 23
4593 53
4594 42
4595 35
4596 53
4597 1
4598 5
4599 40
4600 5
4601 20
4602 20
4603 42
4604 53
4605 47
4606 15
4607 3
4608 44
4609 20
4610 20
4611 3
4612 53
4613 20
4614 56
4615 66
4616 53
4617 35
4618 47
4619 53
4620 42
4621 52
4622 42
4623 53
4624 23
4625 3
4626 27
4627 42
4628 3
4629 53
4630 15
4631 3
4632 62
4633 20
4634 24
4635 6
4636 18
4637 43
4638 3
4639 1
4640 42
4641 20
4642 3
4643 20
4644 42
4645 69
4646 18
4647 16
4648 42
4649 20
4650 42
4651 53
4652 20
4653 22
4654 43
4655 42
4656 3
4657 1
4658 3
4659 3
4660 16
4661 56
4662 22
4663 3
4664 3
4665 53
4666 3
4667 24
4668 3
4669 53
4670 20
4671 57
4672 3
4673 20
4674 44
4675 14
4676 11
4677 1
4678 3
4679 3
4680 53
4681 27
4682 31
4683 4
4684 15
4685 20
4686 3
4687 3
4688 68
4689 42
4690 3
4691 38
4692 20
4693 82
4694 62
4695 59
4696 1
4697 30
4698 64
4699 71
4700 42
4701 3
4702 22
4703 6
4704 1
4705 42
4706 53
4707 20
4708 42
4709 43
4710 18
4711 18
4712 24
4713 47
4714 42
4715 27
4716 20
4717 22
4718 53
4719 18
4720 11
4721 20
4722 47
4723 43
4724 21
4725 27
4726 67
4727 56
4728 53
4729 24
4730 27
4731 16
4732 47
4733 42
4734 42
4735 24
4736 1
4737 3
4738 11
4739 42
4740 31
4741 76
4742 31
4743 56
4744 3
4745 3
4746 1
4747 53
4748 27
4749 3
4750 43
4751 27
4752 20
4753 1
4754 1
4755 42
4756 20
4757 53
4758 16
4759 42
4760 20
4761 3
4762 3
4763 56
4764 30
4765 20
4766 53
4767 20
4768 5
4769 22
4770 20
4771 17
4772 64
4773 16
4774 53
4775 43
4776 38
4777 18
4778 42
4779 3
4780 42
4781 46
4782 20
4783 53
4784 3
4785 53
4786 15
4787 42
4788 8
4789 43
4790 42
4791 53
4792 20
4793 14
4794 15
4795 14
4796 20
4797 20
4798 16
4799 6
4800 20
4801 3
4802 27
4803 78
4804 53
4805 3
4806 47
4807 17
4808 32
4809 24
4810 43
4811 49
4812 43
4813 15
4814 10
4815 22
4816 24
4817 80
4818 10
4819 3
4820 18
4821 53
4822 20
4823 20
4824 26
4825 6
4826 16
4827 20
4828 24
4829 53
4830 47
4831 20
4832 27
4833 42
4834 18
4835 71
4836 5
4837 20
4838 7
4839 16
4840 60
4841 20
4842 43
4843 3
4844 1
4845 53
4846 20
4847 42
4848 1
4849 74
4850 4
4851 20
4852 46
4853 7
4854 24
4855 53
4856 53
4857 53
4858 20
4859 42
4860 20
4861 3
4862 42
4863 44
4864 42
4865 7
4866 47
4867 53
4868 3
4869 42
4870 7
4871 43
4872 24
4873 7
4874 14
4875 16
4876 42
4877 44
4878 53
4879 11
4880 46
4881 20
4882 3
4883 20
4884 47
4885 42
4886 11
4887 3
4888 3
4889 20
4890 47
4891 7
4892 1
4893 20
4894 11
4895 66
4896 24
4897 24
4898 42
4899 1
4900 7
4901 30
4902 15
4903 43
4904 54
4905 1
4906 3
4907 11
4908 21
4909 5
4910 15
4911 42
4912 1
4913 16
4914 42
4915 15
4916 18
4917 3
4918 3
4919 7
4920 3
4921 16
4922 42
4923 19
4924 53
4925 43
4926 42
4927 20
4928 42
4929 7
4930 24
4931 20
4932 10
4933 18
4934 11
4935 18
4936 20
4937 42
4938 29
4939 20
4940 32
4941 10
4942 32
4943 55
4944 53
4945 4
4946 53
4947 7
4948 20
4949 83
4950 7
4951 53
4952 3
4953 55
4954 55
4955 34
4956 53
4957 18
4958 3
4959 23
4960 20
4961 46
4962 20
4963 46
4964 3
4965 53
4966 53
4967 7
4968 10
4969 21
4970 3
4971 1
4972 3
4973 20
4974 3
4975 11
4976 10
4977 30
4978 29
4979 1
4980 7
4981 3
4982 21
4983 53
4984 46
4985 42
4986 27
4987 53
4988 3
4989 20
4990 7
4991 20
4992 53
4993 7
4994 43
4995 42
4996 20
4997 65
4998 42
4999 30
5000 31
5001 47
5002 1
5003 21
5004 20
5005 62
5006 53
5007 10
5008 21
5009 16
5010 7
5011 10
5012 30
5013 16
5014 43
5015 34
5016 7
5017 20
5018 7
5019 11
5020 3
5021 21
5022 53
5023 30
5024 6
5025 20
5026 10
5027 6
5028 3
5029 7
5030 55
5031 15
5032 67
5033 10
5034 3
5035 24
5036 6
5037 18
5038 42
5039 7
5040 11
5041 24
5042 53
5043 6
5044 58
5045 14
5046 11
5047 7
5048 7
5049 42
5050 7
5051 3
5052 10
5053 25
5054 3
5055 3
5056 3
5057 3
5058 6
5059 20
5060 49
5061 7
5062 3
5063 20
5064 20
5065 3
5066 3
5067 10
5068 3
5069 53
5070 16
5071 18
5072 20
5073 3
5074 1
5075 3
5076 3
5077 10
5078 3
5079 46
5080 7
5081 7
5082 7
5083 53
5084 49
5085 3
5086 18
5087 16
5088 53
5089 7
5090 49
5091 42
5092 53
5093 47
5094 72
5095 42
5096 40
5097 65
5098 15
5099 53
5100 77
5101 1
5102 3
5103 7
5104 1
5105 49
5106 20
5107 45
5108 1
5109 16
5110 18
5111 42
5112 42
5113 15
5114 34
5115 20
5116 30
5117 5
5118 21
5119 1
5120 20
5121 20
5122 14
5123 20
5124 4
5125 21
5126 6
5127 1
5128 3
5129 53
5130 19
5131 7
5132 22
5133 63
5134 20
5135 7
5136 10
5137 6
5138 53
5139 26
5140 7
5141 34
5142 24
5143 21
5144 6
5145 20
5146 3
5147 24
5148 53
5149 23
5150 53
5151 3
5152 16
5153 35
5154 16
5155 17
5156 55
5157 54
5158 37
5159 18
5160 7
5161 42
5162 10
5163 1
5164 53
5165 6
5166 21
5167 42
5168 6
5169 43
5170 42
5171 43
5172 7
5173 3
5174 7
5175 53
5176 56
5177 3
5178 1
5179 18
5180 12
5181 1
5182 7
5183 7
5184 21
5185 42
5186 20
5187 53
5188 7
5189 3
5190 53
5191 31
5192 3
5193 10
5194 1
5195 16
5196 23
5197 7
5198 7
5199 64
5200 3
5201 22
5202 34
5203 10
5204 23
5205 9
5206 3
5207 4
5208 3
5209 72
5210 21
5211 7
5212 7
5213 20
5214 20
5215 53
5216 20
5217 42
5218 72
5219 3
5220 53
5221 18
5222 29
5223 81
5224 7
5225 4
5226 44
5227 56
5228 3
5229 27
5230 6
5231 53
5232 53
5233 7
5234 21
5235 44
5236 53
5237 44
5238 20
5239 23
5240 42
5241 1
5242 44
5243 3
5244 20
5245 20
5246 56
5247 3
5248 53
5249 24
5250 20
5251 42
5252 53
5253 44
5254 9
5255 24
5256 21
5257 53
5258 53
5259 23
5260 53
5261 54
5262 3
5263 6
5264 53
5265 44
5266 53
5267 3
5268 42
5269 42
5270 1
5271 1
5272 21
5273 3
5274 24
5275 44
5276 53
5277 7
5278 1
5279 44
5280 44
5281 53
5282 53
5283 60
5284 6
5285 7
5286 10
5287 43
5288 42
5289 47
5290 28
5291 20
5292 7
5293 56
5294 76
5295 43
5296 3
5297 32
5298 20
5299 51
5300 53
5301 16
5302 3
5303 20
5304 53
5305 29
5306 44
5307 10
5308 53
5309 57
5310 43
5311 53
5312 3
5313 22
5314 56
5315 76
5316 7
5317 7
5318 44
5319 20
5320 3
5321 6
5322 27
5323 3
5324 3
5325 25
5326 56
5327 56
5328 7
5329 79
5330 3
5331 45
5332 7
5333 44
5334 0
5335 53
5336 17
5337 53
5338 1
5339 27
5340 7
5341 20
5342 7
5343 30
5344 7
5345 30
5346 3
5347 3
5348 23
5349 46
5350 3
5351 23
5352 16
5353 30
5354 16
5355 44
5356 43
5357 20
5358 44
5359 42
5360 42
5361 6
5362 53
5363 3
5364 22
5365 44
5366 53
5367 21
5368 7
5369 20
5370 21
5371 22
5372 53
5373 1
5374 7
5375 7
5376 53
5377 1
5378 47
5379 3
5380 20
5381 7
5382 16
5383 7
5384 3
5385 74
5386 42
5387 43
5388 44
5389 43
5390 48
5391 42
5392 3
5393 42
5394 44
5395 53
5396 53
5397 44
5398 54
5399 53
5400 44
5401 22
5402 33
5403 66
5404 20
5405 21
5406 42
5407 34
5408 7
5409 3
5410 35
5411 6
5412 20
5413 15
5414 7
5415 56
5416 19
5417 55
5418 3
5419 42
5420 20
5421 4
5422 53
5423 42
5424 1
5425 44
5426 22
5427 20
5428 42
5429 3
5430 44
5431 7
5432 44
5433 7
5434 53
5435 42
5436 47
5437 47
5438 20
5439 5
5440 21
5441 7
5442 44
5443 53
5444 42
5445 20
5446 22
5447 24
5448 44
5449 44
5450 30
5451 53
5452 47
5453 5
5454 47
5455 20
5456 16
5457 83
5458 53
5459 20
5460 3
5461 15
5462 22
5463 20
5464 20
5465 53
5466 20
5467 42
5468 53
5469 49
5470 20
5471 20
5472 42
5473 42
5474 47
5475 44
5476 44
5477 74
5478 42
5479 71
5480 71
5481 53
5482 20
5483 2
5484 10
5485 53
5486 47
5487 15
5488 6
5489 20
5490 42
5491 20
5492 30
5493 5
5494 53
5495 7
5496 53
5497 20
5498 77
5499 47
5500 43
5501 7
5502 47
5503 42
5504 30
5505 44
5506 3
5507 42
5508 20
5509 15
5510 7
5511 3
5512 42
5513 53
5514 47
5515 20
5516 20
5517 10
5518 42
5519 10
5520 11
5521 44
5522 53
5523 47
5524 56
5525 42
5526 4
5527 42
5528 1
5529 47
5530 20
5531 42
5532 44
5533 44
5534 3
5535 5
5536 3
5537 46
5538 44
5539 3
5540 3
5541 20
5542 53
5543 3
5544 44
5545 47
5546 38
5547 20
5548 53
5549 43
5550 16
5551 7
5552 3
5553 1
5554 52
5555 53
5556 1
5557 17
5558 53
5559 20
5560 65
5561 3
5562 38
5563 9
5564 44
5565 53
5566 29
5567 20
5568 42
5569 1
5570 11
5571 42
5572 3
5573 7
5574 18
5575 15
5576 42
5577 3
5578 20
5579 24
5580 29
5581 42
5582 52
5583 53
5584 42
5585 25
5586 53
5587 34
5588 27
5589 7
5590 22
5591 41
5592 16
5593 7
5594 20
5595 27
5596 20
5597 20
5598 7
5599 20
5600 53
5601 27
5602 44
5603 9
5604 47
5605 24
5606 42
5607 16
5608 47
5609 20
5610 15
5611 53
5612 7
5613 47
5614 23
5615 27
5616 15
5617 11
5618 44
5619 3
5620 27
5621 42
5622 47
5623 16
5624 27
5625 47
5626 7
5627 27
5628 52
5629 44
5630 63
5631 3
5632 47
5633 23
5634 27
5635 23
5636 47
5637 53
5638 3
5639 24
5640 7
5641 75
5642 47
5643 44
5644 12
5645 3
5646 39
5647 7
5648 47
5649 53
5650 7
5651 27
5652 1
5653 3
5654 20
5655 11
5656 18
5657 44
5658 42
5659 16
5660 51
5661 20
5662 15
5663 3
5664 7
5665 47
5666 42
5667 7
5668 3
5669 54
5670 1
5671 47
5672 42
5673 7
5674 47
5675 20
5676 55
5677 15
5678 53
5679 49
5680 27
5681 3
5682 41
5683 23
5684 37
5685 44
5686 27
5687 53
5688 53
5689 42
5690 3
5691 53
5692 61
5693 42
5694 47
5695 20
5696 18
5697 53
5698 7
5699 42
5700 44
5701 20
5702 27
5703 47
5704 43
5705 20
5706 7
5707 7
5708 10
5709 44
5710 7
5711 23
5712 53
5713 18
5714 24
5715 47
5716 47
5717 43
5718 42
5719 47
5720 44
5721 20
5722 4
5723 53
5724 0
5725 7
5726 42
5727 43
5728 15
5729 27
5730 42
5731 27
5732 7
5733 43
5734 38
5735 47
5736 47
5737 53
5738 66
5739 44
5740 32
5741 53
5742 53
5743 31
5744 7
5745 27
5746 42
5747 44
5748 27
5749 44
5750 49
5751 58
5752 3
5753 20
5754 6
5755 42
5756 47
5757 15
5758 3
5759 53
5760 20
5761 23
5762 44
5763 13
5764 20
5765 7
5766 43
5767 46
5768 53
5769 7
5770 43
5771 47
5772 47
5773 47
5774 47
5775 53
5776 3
5777 79
5778 27
5779 47
5780 42
5781 40
5782 20
5783 44
5784 44
5785 7
5786 53
5787 42
5788 47
5789 7
5790 20
5791 53
5792 44
5793 47
5794 14
5795 15
5796 44
5797 20
5798 7
5799 20
5800 27
5801 42
5802 7
5803 53
5804 53
5805 27
5806 44
5807 47
5808 42
5809 53
5810 27
5811 3
5812 44
5813 47
5814 3
5815 27
5816 20
5817 47
5818 47
5819 22
5820 67
5821 53
5822 7
5823 44
5824 44
5825 47
5826 3
5827 23
5828 29
5829 47
5830 20
5831 47
5832 27
5833 7
5834 43
5835 47
5836 44
5837 73
5838 7
5839 16
5840 53
5841 43
5842 29
5843 0
5844 27
5845 44
5846 20
5847 47
5848 24
5849 7
5850 44
5851 44
5852 47
5853 3
5854 43
5855 24
5856 20
5857 43
5858 53
5859 3
5860 43
5861 16
5862 53
5863 11
5864 27
5865 27
5866 43
5867 7
5868 44
5869 16
5870 44
5871 7
5872 7
5873 16
5874 3
5875 75
5876 5
5877 44
5878 3
5879 53
5880 41
5881 43
5882 43
5883 53
5884 43
5885 27
5886 3
5887 53
5888 44
5889 77
5890 17
5891 50
5892 47
5893 18
5894 42
5895 42
5896 53
5897 42
5898 27
5899 1
5900 53
5901 16
5902 33
5903 29
5904 3
5905 20
5906 3
5907 81
5908 20
5909 43
5910 42
5911 44
5912 27
5913 42
5914 18
5915 53
5916 63
5917 42
5918 42
5919 3
5920 44
5921 43
5922 53
5923 0
5924 44
5925 47
5926 53
5927 47
5928 47
5929 27
5930 11
5931 44
5932 27
5933 42
5934 20
5935 53
5936 20
5937 7
5938 7
5939 53
5940 21
5941 7
5942 3
5943 24
5944 20
5945 47
5946 20
5947 7
5948 27
5949 7
5950 43
5951 7
5952 20
5953 18
5954 43
5955 53
5956 7
5957 53
5958 7
5959 7
5960 44
5961 7
5962 7
5963 14
5964 43
5965 7
5966 7
5967 44
5968 27
5969 3
5970 43
5971 1
5972 45
5973 47
5974 3
5975 7
5976 9
5977 47
5978 42
5979 3
5980 27
5981 7
5982 20
5983 16
5984 20
5985 24
5986 44
5987 27
5988 21
5989 42
5990 16
5991 16
5992 42
5993 3
5994 20
5995 7
5996 20
5997 44
5998 3
5999 53
6000 27
6001 27
6002 4
6003 42
6004 16
6005 21
6006 7
6007 18
6008 42
6009 20
6010 43
6011 9
6012 7
6013 44
6014 42
6015 72
6016 32
6017 3
6018 14
6019 7
6020 3
6021 22
6022 7
6023 3
6024 7
6025 44
6026 7
6027 53
6028 43
6029 53
6030 16
6031 27
6032 20
6033 27
6034 27
6035 42
6036 2
6037 7
6038 7
6039 43
6040 20
6041 16
6042 43
6043 47
6044 3
6045 16
6046 42
6047 16
6048 47
6049 5
6050 43
6051 43
6052 53
6053 21
6054 27
6055 7
6056 1
6057 43
6058 48
6059 3
6060 21
6061 53
6062 44
6063 20
6064 21
6065 24
6066 16
6067 43
6068 47
6069 7
6070 27
6071 16
6072 44
6073 7
6074 44
6075 44
6076 16
6077 7
6078 53
6079 24
6080 42
6081 42
6082 27
6083 16
6084 34
6085 81
6086 43
6087 43
6088 27
6089 27
6090 44
6091 3
6092 20
6093 44
6094 21
6095 43
6096 34
6097 24
6098 47
6099 16
6100 7
6101 29
6102 27
6103 10
6104 16
6105 16
6106 52
6107 43
6108 15
6109 47
6110 27
6111 47
6112 47
6113 47
6114 29
6115 44
6116 49
6117 44
6118 20
6119 53
6120 47
6121 53
6122 47
6123 47
6124 43
6125 44
6126 3
6127 43
6128 53
6129 42
6130 20
6131 44
6132 42
6133 42
6134 16
6135 18
6136 20
6137 82
6138 16
6139 7
6140 53
6141 3
6142 42
6143 21
6144 47
6145 16
6146 6
6147 24
6148 43
6149 21
6150 8
6151 16
6152 16
6153 18
6154 42
6155 7
6156 41
6157 20
6158 27
6159 6
6160 44
6161 27
6162 23
6163 16
6164 34
6165 27
6166 42
6167 15
6168 16
6169 53
6170 3
6171 43
6172 20
6173 47
6174 47
6175 7
6176 27
6177 44
6178 16
6179 34
6180 68
6181 23
6182 27
6183 35
6184 42
6185 27
6186 44
6187 16
6188 44
6189 7
6190 10
6191 40
6192 42
6193 56
6194 1
6195 6
6196 42
6197 43
6198 35
6199 64
6200 10
6201 2
6202 42
6203 44
6204 40
6205 16
6206 3
6207 65
6208 34
6209 42
6210 11
6211 42
6212 27
6213 20
6214 56
6215 42
6216 16
6217 7
6218 43
6219 5
6220 19
6221 0
6222 27
6223 38
6224 34
6225 53
6226 24
6227 10
6228 16
6229 44
6230 10
6231 26
6232 27
6233 16
6234 53
6235 43
6236 42
6237 44
6238 34
6239 82
6240 20
6241 45
6242 7
6243 21
6244 24
6245 20
6246 43
6247 79
6248 16
6249 21
6250 3
6251 31
6252 38
6253 10
6254 42
6255 47
6256 26
6257 20
6258 42
6259 44
6260 27
6261 46
6262 42
6263 32
6264 21
6265 47
6266 7
6267 41
6268 43
6269 16
6270 7
6271 61
6272 16
6273 42
6274 42
6275 56
6276 52
6277 27
6278 5
6279 27
6280 43
6281 0
6282 51
6283 18
6284 11
6285 6
6286 47
6287 52
6288 21
6289 42
6290 10
6291 7
6292 34
6293 7
6294 5
6295 27
6296 2
6297 34
6298 5
6299 0
6300 42
6301 32
6302 82
6303 25
6304 42
6305 5
6306 0
6307 44
6308 65
6309 47
6310 46
6311 42
6312 20
6313 42
6314 6
6315 1
6316 34
6317 57
6318 42
6319 5
6320 42
6321 47
6322 28
6323 12
6324 30
6325 22
6326 33
6327 53
6328 44
6329 47
6330 22
6331 47
6332 16
6333 16
6334 22
6335 11
6336 47
6337 56
6338 5
6339 42
6340 42
6341 16
6342 10
6343 16
6344 22
6345 30
6346 42
6347 38
6348 43
6349 10
6350 10
6351 16
6352 61
6353 79
6354 39
6355 5
6356 35
6357 11
6358 47
6359 5
6360 21
6361 24
6362 33
6363 43
6364 34
6365 5
6366 47
6367 16
6368 22
6369 1
6370 61
6371 42
6372 48
6373 42
6374 16
6375 50
6376 25
6377 11
6378 16
6379 74
6380 23
6381 30
6382 0
6383 25
6384 3
6385 22
6386 27
6387 66
6388 34
6389 3
6390 43
6391 20
6392 17
6393 6
6394 42
6395 47
6396 17
6397 23
6398 14
6399 43
6400 47
6401 75
6402 42
6403 38
6404 45
6405 29
6406 28
6407 20
6408 22
6409 20
6410 30
6411 7
6412 44
6413 25
6414 14
6415 22
6416 43
6417 40
6418 5
6419 6
6420 5
6421 10
6422 42
6423 49
6424 34
6425 47
6426 7
6427 44
6428 6
6429 5
6430 80
6431 22
6432 0
6433 16
6434 15
6435 42
6436 6
6437 43
6438 16
6439 13
6440 5
6441 62
6442 40
6443 47
6444 12
6445 49
6446 47
6447 16
6448 4
6449 27
6450 78
6451 23
6452 49
6453 5
6454 22
6455 47
6456 34
6457 5
6458 10
6459 15
6460 30
6461 4
6462 47
6463 5
6464 42
6465 21
6466 69
6467 5
6468 47
6469 42
6470 47
6471 27
6472 58
6473 49
6474 23
6475 73
6476 4
6477 14
6478 49
6479 54
6480 44
6481 16
6482 18
6483 6
6484 36
6485 27
6486 72
6487 43
6488 27
6489 0
6490 42
6491 3
6492 44
6493 5
6494 17
6495 31
6496 4
6497 34
6498 6
6499 43
6500 42
6501 10
6502 47
6503 47
6504 49
6505 21
6506 44
6507 3
6508 27
6509 44
6510 31
6511 15
6512 16
6513 73
6514 41
6515 38
6516 69
6517 7
6518 42
6519 10
6520 32
6521 42
6522 42
6523 16
6524 27
6525 62
6526 38
6527 34
6528 3
6529 10
6530 42
6531 11
6532 52
6533 15
6534 71
6535 42
6536 3
6537 42
6538 23
6539 36
6540 15
6541 44
6542 14
6543 15
6544 7
6545 11
6546 5
6547 42
6548 15
6549 3
6550 22
6551 6
6552 50
6553 56
6554 3
6555 42
6556 56
6557 49
6558 42
6559 82
6560 41
6561 44
6562 30
6563 22
6564 3
6565 42
6566 3
6567 11
6568 42
6569 76
6570 43
6571 27
6572 62
6573 16
6574 51
6575 34
6576 63
6577 7
6578 42
6579 77
6580 25
6581 3
6582 28
6583 7
6584 21
6585 16
6586 5
6587 65
6588 25
6589 49
6590 44
6591 3
6592 50
6593 42
6594 3
6595 75
6596 49
6597 24
6598 24
6599 76
6600 18
6601 61
6602 53
6603 25
6604 50
6605 33
6606 53
6607 3
6608 44
6609 24
6610 24
6611 3
6612 19
6613 47
6614 21
6615 11
6616 3
6617 1
6618 24
6619 29
6620 65
6621 12
6622 27
6623 53
6624 31
6625 42
6626 27
6627 53
6628 3
6629 42
6630 20
6631 16
6632 20
6633 17
6634 3
6635 33
6636 3
6637 1
6638 18
6639 1
6640 3
6641 53
6642 5
6643 47
6644 47
6645 53
6646 42
6647 53
6648 53
6649 9
6650 1
6651 15
6652 29
6653 61
6654 1
6655 53
6656 53
6657 18
6658 24
6659 54
6660 42
6661 47
6662 47
6663 11
6664 43
6665 53
6666 20
6667 42
6668 53
6669 24
6670 42
6671 3
6672 18
6673 10
6674 20
6675 53
6676 48
6677 20
6678 53
6679 42
6680 63
6681 12
6682 1
6683 24
6684 6
6685 23
6686 24
6687 20
6688 42
6689 1
6690 20
6691 53
6692 53
6693 27
6694 20
6695 3
6696 1
6697 3
6698 53
6699 3
6700 3
6701 1
6702 16
6703 58
6704 3
6705 42
6706 53
6707 42
6708 57
6709 12
6710 42
6711 11
6712 56
6713 53
6714 33
6715 24
6716 53
6717 20
6718 53
6719 27
6720 51
6721 1
6722 53
6723 3
6724 16
6725 24
6726 0
6727 53
6728 8
6729 56
6730 20
6731 3
6732 20
6733 0
6734 42
6735 43
6736 20
6737 3
6738 3
6739 38
6740 61
6741 3
6742 43
6743 27
6744 42
6745 3
6746 20
6747 42
6748 56
6749 38
6750 20
6751 15
6752 53
6753 42
6754 34
6755 46
6756 81
6757 74
6758 42
6759 20
6760 3
6761 20
6762 16
6763 24
6764 42
6765 53
6766 42
6767 16
6768 3
6769 23
6770 3
6771 42
6772 53
6773 71
6774 1
6775 61
6776 5
6777 16
6778 47
6779 16
6780 20
6781 46
6782 4
6783 43
6784 0
6785 44
6786 53
6787 41
6788 23
6789 23
6790 53
6791 1
6792 16
6793 23
6794 0
6795 43
6796 63
6797 1
6798 38
6799 22
6800 17
6801 20
6802 42
6803 4
6804 44
6805 27
6806 16
6807 34
6808 16
6809 20
6810 42
6811 49
6812 19
6813 42
6814 20
6815 52
6816 53
6817 52
6818 1
6819 44
6820 43
6821 30
6822 3
6823 11
6824 0
6825 20
6826 42
6827 15
6828 43
6829 20
6830 20
6831 53
6832 53
6833 14
6834 20
6835 42
6836 20
6837 30
6838 16
6839 42
6840 11
6841 3
6842 43
6843 69
6844 53
6845 0
6846 43
6847 10
6848 42
6849 3
6850 44
6851 37
6852 23
6853 22
6854 10
6855 20
6856 20
6857 53
6858 16
6859 3
6860 10
6861 20
6862 69
6863 20
6864 63
6865 10
6866 45
6867 1
6868 8
6869 20
6870 53
6871 3
6872 53
6873 30
6874 3
6875 18
6876 7
6877 1
6878 42
6879 13
6880 41
6881 1
6882 3
6883 10
6884 7
6885 46
6886 53
6887 18
6888 7
6889 22
6890 53
6891 16
6892 43
6893 22
6894 10
6895 7
6896 53
6897 27
6898 3
6899 42
6900 24
6901 64
6902 3
6903 7
6904 1
6905 7
6906 69
6907 20
6908 46
6909 53
6910 7
6911 20
6912 53
6913 75
6914 1
6915 56
6916 0
6917 29
6918 53
6919 42
6920 53
6921 42
6922 7
6923 16
6924 18
6925 16
6926 20
6927 42
6928 7
6929 4
6930 53
6931 1
6932 27
6933 7
6934 7
6935 1
6936 24
6937 11
6938 76
6939 20
6940 27
6941 42
6942 20
6943 3
6944 20
6945 1
6946 49
6947 24
6948 53
6949 11
6950 43
6951 27
6952 34
6953 43
6954 3
6955 7
6956 1
6957 3
6958 7
6959 43
6960 3
6961 7
6962 20
6963 21
6964 7
6965 43
6966 42
6967 0
6968 1
6969 42
6970 27
6971 4
6972 1
6973 40
6974 24
6975 43
6976 7
6977 20
6978 11
6979 27
6980 10
6981 60
6982 21
6983 3
6984 53
6985 3
6986 11
6987 27
6988 7
6989 7
6990 20
6991 15
6992 42
6993 15
6994 20
6995 21
6996 53
6997 53
6998 30
6999 17
7000 25
7001 20
7002 10
7003 42
7004 42
7005 3
7006 39
7007 1
7008 7
7009 7
7010 29
7011 42
7012 7
7013 34
7014 47
7015 43
7016 7
7017 3
7018 46
7019 43
7020 44
7021 10
7022 53
7023 42
7024 47
7025 42
7026 53
7027 72
7028 3
7029 20
7030 42
7031 3
7032 53
7033 53
7034 53
7035 10
7036 53
7037 42
7038 16
7039 43
7040 1
7041 16
7042 53
7043 59
7044 4
7045 7
7046 5
7047 42
7048 41
7049 24
7050 6
7051 62
7052 7
7053 1
7054 43
7055 31
7056 15
7057 16
7058 10
7059 21
7060 3
7061 47
7062 42
7063 16
7064 53
7065 20
7066 24
7067 53
7068 16
7069 42
7070 77
7071 42
7072 3
7073 49
7074 3
7075 18
7076 7
7077 20
7078 34
7079 53
7080 34
7081 20
7082 53
7083 3
7084 41
7085 3
7086 34
7087 20
7088 24
7089 53
7090 7
7091 42
7092 20
7093 53
7094 10
7095 7
7096 3
7097 7
7098 42
7099 10
7100 20
7101 0
7102 3
7103 4
7104 6
7105 34
7106 53
7107 43
7108 53
7109 3
7110 42
7111 3
7112 10
7113 3
7114 3
7115 30
7116 20
7117 20
7118 65
7119 27
7120 16
7121 33
7122 53
7123 67
7124 49
7125 34
7126 49
7127 3
7128 53
7129 20
7130 20
7131 20
7132 6
7133 42
7134 7
7135 3
7136 53
7137 42
7138 3
7139 43
7140 21
7141 3
7142 7
7143 43
7144 6
7145 7
7146 20
7147 16
7148 53
7149 18
7150 3
7151 34
7152 53
7153 21
7154 42
7155 4
7156 3
7157 53
7158 3
7159 18
7160 33
7161 3
7162 52
7163 1
7164 3
7165 1
7166 3
7167 42
7168 1
7169 34
7170 3
7171 20
7172 57
7173 7
7174 20
7175 34
7176 3
7177 3
7178 18
7179 7
7180 16
7181 23
7182 62
7183 70
7184 43
7185 43
7186 53
7187 18
7188 7
7189 34
7190 35
7191 53
7192 1
7193 53
7194 53
7195 20
7196 55
7197 61
7198 3
7199 53
7200 7
7201 47
7202 42
7203 18
7204 20
7205 43
7206 20
7207 15
7208 4
7209 11
7210 12
7211 27
7212 16
7213 3
7214 58
7215 6
7216 53
7217 29
7218 3
7219 53
7220 18
7221 3
7222 38
7223 18
7224 61
7225 53
7226 20
7227 53
7228 1
7229 1
7230 41
7231 20
7232 6
7233 42
7234 21
7235 20
7236 7
7237 10
7238 24
7239 83
7240 29
7241 11
7242 20
7243 76
7244 56
7245 3
7246 65
7247 53
7248 53
7249 7
7250 53
7251 42
7252 6
7253 27
7254 12
7255 53
7256 53
7257 34
7258 7
7259 58
7260 3
7261 83
7262 20
7263 38
7264 5
7265 3
7266 17
7267 28
7268 53
7269 10
7270 34
7271 24
7272 24
7273 43
7274 20
7275 44
7276 44
7277 6
7278 43
7279 21
7280 3
7281 44
7282 53
7283 10
7284 3
7285 46
7286 16
7287 53
7288 50
7289 3
7290 11
7291 18
7292 53
7293 44
7294 32
7295 45
7296 24
7297 46
7298 2
7299 42
7300 3
7301 10
7302 7
7303 53
7304 20
7305 42
7306 43
7307 78
7308 7
7309 44
7310 1
7311 44
7312 7
7313 5
7314 42
7315 42
7316 30
7317 62
7318 30
7319 29
7320 18
7321 3
7322 20
7323 3
7324 34
7325 3
7326 3
7327 10
7328 7
7329 44
7330 10
7331 25
7332 83
7333 21
7334 7
7335 6
7336 20
7337 5
7338 44
7339 53
7340 56
7341 52
7342 69
7343 44
7344 53
7345 21
7346 20
7347 46
7348 42
7349 44
7350 31
7351 44
7352 22
7353 7
7354 53
7355 3
7356 53
7357 31
7358 53
7359 43
7360 27
7361 60
7362 23
7363 10
7364 42
7365 3
7366 42
7367 42
7368 44
7369 1
7370 16
7371 5
7372 56
7373 44
7374 3
7375 30
7376 43
7377 3
7378 3
7379 44
7380 56
7381 30
7382 5
7383 22
7384 44
7385 69
7386 3
7387 46
7388 20
7389 20
7390 20
7391 3
7392 44
7393 42
7394 20
7395 11
7396 20
7397 3
7398 78
7399 53
7400 43
7401 42
7402 22
7403 38
7404 7
7405 44
7406 53
7407 20
7408 50
7409 20
7410 53
7411 2
7412 42
7413 40
7414 42
7415 44
7416 7
7417 7
7418 10
7419 29
7420 61
7421 20
7422 44
7423 44
7424 22
7425 35
7426 21
7427 42
7428 20
7429 35
7430 20
7431 21
7432 3
7433 44
7434 21
7435 5
7436 42
7437 53
7438 22
7439 20
7440 82
7441 5
7442 7
7443 4
7444 53
7445 3
7446 46
7447 49
7448 16
7449 44
7450 53
7451 53
7452 7
7453 3
7454 22
7455 76
7456 58
7457 34
7458 44
7459 3
7460 42
7461 3
7462 60
7463 38
7464 52
7465 22
7466 20
7467 57
7468 44
7469 44
7470 20
7471 20
7472 1
7473 53
7474 3
7475 53
7476 42
7477 6
7478 6
7479 3
7480 7
7481 3
7482 38
7483 42
7484 7
7485 3
7486 47
7487 53
7488 35
7489 3
7490 47
7491 21
7492 42
7493 3
7494 5
7495 7
7496 47
7497 14
7498 20
7499 53
7500 42
7501 3
7502 47
7503 47
7504 24
7505 47
7506 42
7507 53
7508 7
7509 21
7510 44
7511 20
7512 9
7513 44
7514 7
7515 49
7516 53
7517 27
7518 20
7519 3
7520 7
7521 20
7522 5
7523 44
7524 3
7525 42
7526 16
7527 35
7528 67
7529 18
7530 53
7531 42
7532 47
7533 14
7534 42
7535 42
7536 44
7537 7
7538 2
7539 7
7540 6
7541 7
7542 20
7543 50
7544 44
7545 7
7546 4
7547 42
7548 42
7549 42
7550 47
7551 15
7552 0
7553 47
7554 20
7555 44
7556 42
7557 53
7558 20
7559 53
7560 49
7561 5
7562 74
7563 47
7564 17
7565 44
7566 20
7567 44
7568 7
7569 53
7570 42
7571 20
7572 34
7573 72
7574 56
7575 16
7576 10
7577 7
7578 63
7579 44
7580 44
7581 56
7582 44
7583 57
7584 23
7585 47
7586 16
7587 53
7588 30
7589 31
7590 7
7591 4
7592 12
7593 7
7594 47
7595 25
7596 7
7597 20
7598 42
7599 6
7600 42
7601 22
7602 47
7603 44
7604 1
7605 52
7606 31
7607 53
7608 42
7609 44
7610 47
7611 47
7612 53
7613 3
7614 7
7615 34
7616 69
7617 64
7618 3
7619 53
7620 21
7621 69
7622 27
7623 47
7624 53
7625 43
7626 47
7627 27
7628 7
7629 22
7630 7
7631 20
7632 64
7633 27
7634 27
7635 27
7636 53
7637 16
7638 3
7639 1
7640 47
7641 11
7642 47
7643 44
7644 53
7645 5
7646 53
7647 7
7648 7
7649 22
7650 66
7651 20
7652 57
7653 47
7654 44
7655 42
7656 3
7657 44
7658 79
7659 42
7660 53
7661 7
7662 44
7663 20
7664 53
7665 30
7666 53
7667 44
7668 3
7669 27
7670 23
7671 7
7672 3
7673 16
7674 7
7675 53
7676 42
7677 47
7678 44
7679 23
7680 53
7681 3
7682 27
7683 7
7684 7
7685 48
7686 48
7687 44
7688 7
7689 20
7690 7
7691 3
7692 25
7693 27
7694 42
7695 4
7696 41
7697 53
7698 27
7699 3
7700 23
7701 42
7702 47
7703 3
7704 11
7705 7
7706 15
7707 47
7708 53
7709 47
7710 20
7711 47
7712 24
7713 3
7714 14
7715 53
7716 7
7717 3
7718 48
7719 20
7720 47
7721 27
7722 7
7723 42
7724 6
7725 27
7726 44
7727 10
7728 53
7729 42
7730 3
7731 47
7732 42
7733 56
7734 47
7735 27
7736 11
7737 53
7738 42
7739 47
7740 14
7741 15
7742 34
7743 79
7744 20
7745 44
7746 3
7747 44
7748 43
7749 7
7750 27
7751 3
7752 47
7753 27
7754 44
7755 20
7756 44
7757 43
7758 24
7759 43
7760 42
7761 16
7762 51
7763 43
7764 3
7765 53
7766 20
7767 20
7768 31
7769 21
7770 53
7771 44
7772 43
7773 53
7774 5
7775 43
7776 20
7777 0
7778 43
7779 7
7780 29
7781 53
7782 20
7783 53
7784 24
7785 3
7786 24
7787 31
7788 3
7789 43
7790 47
7791 43
7792 43
7793 27
7794 10
7795 20
7796 47
7797 3
7798 7
7799 47
7800 44
7801 20
7802 27
7803 20
7804 3
7805 42
7806 44
7807 53
7808 42
7809 47
7810 42
7811 18
7812 22
7813 3
7814 47
7815 9
7816 1
7817 11
7818 15
7819 43
7820 51
7821 42
7822 44
7823 7
7824 47
7825 53
7826 30
7827 47
7828 27
7829 3
7830 44
7831 47
7832 44
7833 20
7834 47
7835 6
7836 53
7837 44
7838 20
7839 42
7840 44
7841 23
7842 27
7843 53
7844 3
7845 47
7846 43
7847 27
7848 30
7849 13
7850 21
7851 42
7852 43
7853 50
7854 47
7855 27
7856 1
7857 27
7858 3
7859 42
7860 3
7861 20
7862 27
7863 20
7864 3
7865 11
7866 48
7867 27
7868 44
7869 53
7870 1
7871 10
7872 43
7873 7
7874 24
7875 47
7876 51
7877 24
7878 27
7879 10
7880 7
7881 3
7882 16
7883 3
7884 47
7885 43
7886 47
7887 5
7888 23
7889 20
7890 15
7891 16
7892 43
7893 47
7894 43
7895 47
7896 3
7897 44
7898 7
7899 20
7900 27
7901 25
7902 53
7903 43
7904 53
7905 3
7906 41
7907 20
7908 42
7909 16
7910 3
7911 16
7912 72
7913 30
7914 53
7915 16
7916 10
7917 42
7918 7
7919 44
7920 7
7921 82
7922 42
7923 16
7924 7
7925 10
7926 27
7927 3
7928 53
7929 16
7930 44
7931 13
7932 43
7933 7
7934 16
7935 53
7936 3
7937 22
7938 53
7939 3
7940 30
7941 43
7942 20
7943 20
7944 47
7945 42
7946 16
7947 10
7948 27
7949 47
7950 27
7951 18
7952 44
7953 47
7954 44
7955 42
7956 47
7957 20
7958 43
7959 42
7960 44
7961 43
7962 47
7963 53
7964 4
7965 16
7966 43
7967 53
7968 44
7969 53
7970 27
7971 30
7972 47
7973 47
7974 43
7975 43
7976 7
7977 27
7978 20
7979 42
7980 43
7981 20
7982 53
7983 20
7984 16
7985 27
7986 7
7987 53
7988 21
7989 53
7990 43
7991 53
7992 16
7993 3
7994 43
7995 3
7996 16
7997 44
7998 16
7999 20
8000 7
8001 44
8002 44
8003 20
8004 31
8005 41
8006 43
8007 43
8008 20
8009 46
8010 20
8011 3
8012 27
8013 47
8014 3
8015 3
8016 53
8017 27
8018 27
8019 3
8020 20
8021 16
8022 24
8023 55
8024 53
8025 3
8026 47
8027 27
8028 27
8029 45
8030 20
8031 44
8032 16
8033 16
8034 47
8035 11
8036 44
8037 47
8038 42
8039 44
8040 16
8041 43
8042 16
8043 47
8044 44
8045 18
8046 60
8047 44
8048 30
8049 42
8050 30
8051 24
8052 42
8053 64
8054 21
8055 7
8056 53
8057 53
8058 12
8059 42
8060 1
8061 7
8062 43
8063 7
8064 44
8065 44
8066 44
8067 20
8068 53
8069 20
8070 42
8071 27
8072 44
8073 53
8074 27
8075 3
8076 16
8077 27
8078 44
8079 20
8080 6
8081 53
8082 50
8083 53
8084 47
8085 53
8086 7
8087 7
8088 4
8089 21
8090 20
8091 42
8092 50
8093 53
8094 3
8095 27
8096 47
8097 16
8098 43
8099 30
8100 14
8101 47
8102 43
8103 53
8104 10
8105 42
8106 7
8107 53
8108 55
8109 16
8110 42
8111 20
8112 44
8113 16
8114 3
8115 43
8116 44
8117 6
8118 42
8119 7
8120 20
8121 27
8122 7
8123 43
8124 43
8125 53
8126 47
8127 42
8128 24
8129 43
8130 3
8131 47
8132 53
8133 47
8134 20
8135 3
8136 16
8137 20
8138 16
8139 25
8140 53
8141 7
8142 44
8143 10
8144 44
8145 34
8146 47
8147 43
8148 20
8149 47
8150 53
8151 27
8152 43
8153 7
8154 42
8155 27
8156 53
8157 3
8158 15
8159 44
8160 43
8161 44
8162 7
8163 6
8164 16
8165 80
8166 43
8167 3
8168 53
8169 11
8170 10
8171 43
8172 1
8173 7
8174 34
8175 44
8176 7
8177 7
8178 42
8179 44
8180 42
8181 3
8182 7
8183 43
8184 44
8185 3
8186 7
8187 20
8188 21
8189 77
8190 27
8191 43
8192 1
8193 29
8194 24
8195 1
8196 42
8197 34
8198 16
8199 23
8200 21
8201 7
8202 42
8203 34
8204 43
8205 27
8206 75
8207 42
8208 7
8209 35
8210 11
8211 41
8212 16
8213 21
8214 16
8215 26
8216 14
8217 7
8218 24
8219 6
8220 21
8221 42
8222 16
8223 25
8224 34
8225 43
8226 12
8227 42
8228 43
8229 6
8230 43
8231 27
8232 82
8233 51
8234 0
8235 44
8236 42
8237 20
8238 44
8239 44
8240 43
8241 24
8242 27
8243 27
8244 69
8245 25
8246 57
8247 42
8248 7
8249 6
8250 18
8251 79
8252 6
8253 27
8254 47
8255 16
8256 34
8257 82
8258 61
8259 49
8260 44
8261 10
8262 31
8263 33
8264 7
8265 21
8266 7
8267 79
8268 0
8269 28
8270 43
8271 27
8272 79
8273 43
8274 33
8275 56
8276 42
8277 0
8278 34
8279 21
8280 20
8281 7
8282 27
8283 6
8284 27
8285 32
8286 73
8287 43
8288 42
8289 34
8290 47
8291 5
8292 7
8293 16
8294 24
8295 25
8296 66
8297 42
8298 47
8299 38
8300 42
8301 47
8302 42
8303 3
8304 35
8305 23
8306 32
8307 42
8308 7
8309 16
8310 23
8311 27
8312 42
8313 38
8314 10
8315 69
8316 42
8317 27
8318 18
8319 3
8320 54
8321 24
8322 23
8323 5
8324 23
8325 0
8326 7
8327 23
8328 56
8329 42
8330 56
8331 6
8332 7
8333 27
8334 21
8335 42
8336 5
8337 49
8338 3
8339 15
8340 53
8341 43
8342 22
8343 16
8344 27
8345 5
8346 0
8347 0
8348 16
8349 10
8350 30
8351 17
8352 10
8353 47
8354 31
8355 47
8356 46
8357 42
8358 41
8359 38
8360 38
8361 42
8362 43
8363 10
8364 64
8365 20
8366 42
8367 25
8368 22
8369 27
8370 20
8371 38
8372 16
8373 21
8374 42
8375 53
8376 3
8377 42
8378 12
8379 21
8380 42
8381 10
8382 73
8383 43
8384 6
8385 18
8386 34
8387 47
8388 34
8389 12
8390 81
8391 42
8392 30
8393 20
8394 47
8395 5
8396 43
8397 42
8398 14
8399 44
8400 22
8401 47
8402 46
8403 42
8404 42
8405 57
8406 27
8407 34
8408 10
8409 34
8410 16
8411 5
8412 44
8413 68
8414 44
8415 33
8416 43
8417 56
8418 16
8419 42
8420 10
8421 71
8422 69
8423 49
8424 25
8425 16
8426 42
8427 42
8428 17
8429 5
8430 47
8431 22
8432 42
8433 7
8434 57
8435 20
8436 34
8437 30
8438 36
8439 27
8440 42
8441 47
8442 27
8443 16
8444 7
8445 61
8446 7
8447 46
8448 17
8449 7
8450 44
8451 10
8452 27
8453 7
8454 7
8455 23
8456 42
8457 53
8458 5
8459 1
8460 53
8461 22
8462 5
8463 22
8464 25
8465 47
8466 44
8467 35
8468 42
8469 14
8470 47
8471 20
8472 70
8473 7
8474 5
8475 43
8476 15
8477 81
8478 30
8479 42
8480 68
8481 47
8482 30
8483 42
8484 17
8485 47
8486 27
8487 38
8488 22
8489 78
8490 27
8491 47
8492 37
8493 16
8494 22
8495 17
8496 27
8497 26
8498 14
8499 42
8500 27
8501 42
8502 34
8503 42
8504 22
8505 14
8506 55
8507 24
8508 57
8509 63
8510 27
8511 6
8512 38
8513 33
8514 58
8515 1
8516 8
8517 22
8518 42
8519 14
8520 31
8521 27
8522 42
8523 43
8524 49
8525 14
8526 83
8527 56
8528 11
8529 43
8530 7
8531 27
8532 39
8533 42
8534 77
8535 76
8536 16
8537 42
8538 34
8539 5
8540 35
8541 16
8542 5
8543 42
8544 35
8545 42
8546 49
8547 7
8548 16
8549 34
8550 20
8551 44
8552 61
8553 79
8554 27
8555 46
8556 30
8557 22
8558 16
8559 15
8560 18
8561 42
8562 16
8563 44
8564 20
8565 44
8566 42
8567 41
8568 42
8569 49
8570 53
8571 6
8572 15
8573 3
8574 5
8575 3
8576 66
8577 10
8578 17
8579 42
8580 43
8581 56
8582 32
8583 30
8584 49
8585 3
8586 43
8587 44
8588 43
8589 47
8590 0
8591 76
8592 65
8593 11
8594 3
8595 43
8596 52
8597 58
8598 3
8599 42
8600 43
8601 54
8602 3
8603 76
8604 8
8605 57
8606 27
8607 21
8608 56
8609 42
8610 42
8611 42
8612 58
8613 38
8614 16
8615 79
8616 44
8617 49
8618 42
8619 43
8620 11
8621 15
8622 75
8623 30
8624 42
8625 43
8626 64
8627 10
8628 50
8629 69
8630 11
8631 52
8632 42
8633 34
8634 42
8635 42
8636 15
8637 6
8638 1
8639 43
8640 54
8641 21
8642 47
8643 42
8644 4
8645 56
8646 42
8647 53
8648 34
8649 53
8650 16
8651 51
8652 24
8653 21
8654 53
8655 42
8656 33
8657 53
8658 45
8659 53
8660 22
8661 27
8662 42
8663 47
8664 16
8665 1
8666 53
8667 11
8668 53
8669 41
8670 42
8671 20
8672 18
8673 53
8674 35
8675 42
8676 23
8677 42
8678 16
8679 24
8680 20
8681 53
8682 16
8683 29
8684 44
8685 3
8686 20
8687 16
8688 38
8689 75
8690 53
8691 11
8692 20
8693 3
8694 42
8695 7
8696 33
8697 15
8698 3
8699 43
8700 11
8701 74
8702 42
8703 53
8704 44
8705 77
8706 53
8707 16
8708 43
8709 49
8710 16
8711 42
8712 27
8713 42
8714 43
8715 42
8716 53
8717 53
8718 13
8719 24
8720 11
8721 53
8722 42
8723 43
8724 16
8725 25
8726 1
8727 43
8728 53
8729 49
8730 18
8731 20
8732 3
8733 53
8734 3
8735 3
8736 20
8737 20
8738 10
8739 20
8740 60
8741 5
8742 27
8743 53
8744 44
8745 3
8746 3
8747 1
8748 68
8749 18
8750 1
8751 1
8752 53
8753 53
8754 42
8755 3
8756 1
8757 3
8758 20
8759 3
8760 42
8761 42
8762 53
8763 52
8764 3
8765 4
8766 3
8767 53
8768 43
8769 53
8770 42
8771 1
8772 16
8773 42
8774 42
8775 3
8776 42
8777 20
8778 56
8779 42
8780 15
8781 42
8782 3
8783 3
8784 53
8785 42
8786 3
8787 20
8788 18
8789 3
8790 43
8791 0
8792 24
8793 5
8794 5
8795 3
8796 24
8797 3
8798 47
8799 3
8800 53
8801 46
8802 3
8803 49
8804 42
8805 3
8806 27
8807 1
8808 18
8809 20
8810 53
8811 11
8812 31
8813 5
8814 42
8815 11
8816 44
8817 53
8818 31
8819 5
8820 38
8821 53
8822 42
8823 38
8824 1
8825 24
8826 5
8827 54
8828 16
8829 15
8830 44
8831 42
8832 20
8833 27
8834 20
8835 44
8836 42
8837 56
8838 43
8839 53
8840 10
8841 38
8842 16
8843 27
8844 24
8845 3
8846 11
8847 11
8848 35
8849 42
8850 3
8851 43
8852 16
8853 53
8854 53
8855 20
8856 42
8857 58
8858 42
8859 46
8860 53
8861 47
8862 41
8863 8
8864 3
8865 11
8866 56
8867 46
8868 52
8869 3
8870 42
8871 3
8872 44
8873 28
8874 53
8875 20
8876 24
8877 16
8878 20
8879 30
8880 15
8881 43
8882 41
8883 27
8884 20
8885 20
8886 43
8887 1
8888 3
8889 3
8890 20
8891 42
8892 20
8893 43
8894 16
8895 53
8896 30
8897 15
8898 16
8899 43
8900 16
8901 43
8902 29
8903 3
8904 6
8905 53
8906 23
8907 3
8908 42
8909 76
8910 18
8911 3
8912 17
8913 49
8914 3
8915 53
8916 20
8917 53
8918 42
8919 38
8920 30
8921 10
8922 16
8923 38
8924 20
8925 24
8926 3
8927 16
8928 67
8929 20
8930 7
8931 16
8932 3
8933 43
8934 3
8935 56
8936 3
8937 69
8938 42
8939 1
8940 3
8941 42
8942 7
8943 42
8944 20
8945 42
8946 41
8947 3
8948 53
8949 7
8950 20
8951 1
8952 22
8953 30
8954 53
8955 56
8956 20
8957 15
8958 1
8959 11
8960 23
8961 16
8962 11
8963 16
8964 43
8965 10
8966 0
8967 7
8968 3
8969 1
8970 10
8971 10
8972 41
8973 47
8974 1
8975 3
8976 66
8977 42
8978 47
8979 56
8980 10
8981 3
8982 24
8983 42
8984 18
8985 42
8986 53
8987 20
8988 53
8989 7
8990 44
8991 53
8992 3
8993 3
8994 11
8995 69
8996 53
8997 51
8998 7
8999 42
9000 53
9001 42
9002 25
9003 43
9004 43
9005 15
9006 25
9007 14
9008 66
9009 42
9010 27
9011 5
9012 21
9013 20
9014 65
9015 16
9016 27
9017 38
9018 53
9019 3
9020 64
9021 32
9022 10
9023 20
9024 7
9025 0
9026 1
9027 79
9028 40
9029 7
9030 42
9031 11
9032 20
9033 53
9034 53
9035 10
9036 11
9037 21
9038 27
9039 1
9040 3
9041 24
9042 1
9043 16
9044 53
9045 47
9046 15
9047 24
9048 31
9049 49
9050 7
9051 53
9052 23
9053 7
9054 47
9055 3
9056 7
9057 4
9058 7
9059 20
9060 14
9061 21
9062 38
9063 20
9064 42
9065 7
9066 3
9067 7
9068 3
9069 3
9070 3
9071 20
9072 42
9073 42
9074 1
9075 20
9076 3
9077 27
9078 1
9079 47
9080 20
9081 1
9082 18
9083 10
9084 31
9085 50
9086 10
9087 3
9088 50
9089 18
9090 30
9091 7
9092 42
9093 42
9094 42
9095 6
9096 3
9097 24
9098 3
9099 15
9100 8
9101 49
9102 53
9103 6
9104 20
9105 18
9106 42
9107 53
9108 42
9109 3
9110 3
9111 21
9112 24
9113 43
9114 45
9115 42
9116 11
9117 5
9118 12
9119 42
9120 20
9121 50
9122 35
9123 21
9124 21
9125 24
9126 7
9127 53
9128 6
9129 6
9130 24
9131 3
9132 42
9133 27
9134 24
9135 27
9136 7
9137 7
9138 6
9139 53
9140 3
9141 3
9142 42
9143 49
9144 81
9145 53
9146 7
9147 18
9148 20
9149 43
9150 3
9151 53
9152 3
9153 53
9154 6
9155 42
9156 20
9157 1
9158 7
9159 21
9160 7
9161 58
9162 82
9163 42
9164 21
9165 43
9166 7
9167 34
9168 3
9169 22
9170 16
9171 42
9172 21
9173 47
9174 18
9175 53
9176 53
9177 53
9178 34
9179 53
9180 53
9181 7
9182 7
9183 42
9184 20
9185 3
9186 4
9187 42
9188 16
9189 53
9190 53
9191 18
9192 7
9193 42
9194 53
9195 20
9196 20
9197 7
9198 35
9199 3
9200 1
9201 20
9202 3
9203 3
9204 20
9205 11
9206 6
9207 28
9208 69
9209 42
9210 23
9211 7
9212 56
9213 3
9214 1
9215 10
9216 6
9217 16
9218 15
9219 42
9220 24
9221 42
9222 7
9223 20
9224 20
9225 3
9226 3
9227 53
9228 42
9229 43
9230 53
9231 42
9232 17
9233 20
9234 20
9235 20
9236 10
9237 3
9238 53
9239 34
9240 42
9241 21
9242 6
9243 21
9244 3
9245 10
9246 21
9247 14
9248 43
9249 1
9250 10
9251 52
9252 7
9253 3
9254 49
9255 3
9256 6
9257 7
9258 0
9259 7
9260 3
9261 53
9262 42
9263 3
9264 38
9265 10
9266 34
9267 7
9268 43
9269 53
9270 20
9271 53
9272 3
9273 10
9274 53
9275 53
9276 21
9277 53
9278 1
9279 27
9280 11
9281 20
9282 43
9283 10
9284 7
9285 27
9286 42
9287 7
9288 1
9289 42
9290 20
9291 24
9292 42
9293 15
9294 7
9295 10
9296 83
9297 49
9298 69
9299 3
9300 24
9301 0
9302 5
9303 3
9304 42
9305 27
9306 53
9307 7
9308 3
9309 9
9310 53
9311 18
9312 1
9313 7
9314 7
9315 56
9316 46
9317 21
9318 42
9319 53
9320 34
9321 44
9322 38
9323 7
9324 44
9325 46
9326 37
9327 53
9328 5
9329 21
9330 7
9331 7
9332 61
9333 11
9334 7
9335 56
9336 7
9337 42
9338 53
9339 3
9340 63
9341 5
9342 71
9343 3
9344 7
9345 23
9346 14
9347 53
9348 3
9349 38
9350 3
9351 44
9352 47
9353 34
9354 6
9355 53
9356 17
9357 20
9358 44
9359 24
9360 7
9361 42
9362 42
9363 7
9364 53
9365 7
9366 42
9367 47
9368 38
9369 44
9370 27
9371 6
9372 5
9373 7
9374 44
9375 45
9376 80
9377 7
9378 44
9379 44
9380 43
9381 24
9382 5
9383 14
9384 53
9385 46
9386 3
9387 15
9388 44
9389 42
9390 44
9391 7
9392 53
9393 44
9394 50
9395 7
9396 20
9397 53
9398 0
9399 3
9400 20
9401 8
9402 53
9403 3
9404 7
9405 44
9406 43
9407 44
9408 3
9409 44
9410 7
9411 51
9412 44
9413 10
9414 20
9415 5
9416 3
9417 53
9418 46
9419 42
9420 3
9421 21
9422 42
9423 20
9424 44
9425 7
9426 22
9427 7
9428 53
9429 44
9430 16
9431 69
9432 42
9433 44
9434 17
9435 44
9436 6
9437 30
9438 44
9439 20
9440 20
9441 21
9442 44
9443 31
9444 53
9445 53
9446 44
9447 20
9448 53
9449 53
9450 43
9451 61
9452 23
9453 44
9454 1
9455 30
9456 3
9457 56
9458 38
9459 5
9460 74
9461 37
9462 21
9463 17
9464 42
9465 42
9466 36
9467 46
9468 20
9469 47
9470 3
9471 3
9472 44
9473 56
9474 7
9475 8
9476 56
9477 5
9478 42
9479 6
9480 53
9481 44
9482 44
9483 22
9484 3
9485 20
9486 29
9487 4
9488 44
9489 7
9490 43
9491 16
9492 38
9493 7
9494 10
9495 10
9496 44
9497 1
9498 53
9499 7
9500 65
9501 14
9502 56
9503 19
9504 74
9505 44
9506 7
9507 40
9508 7
9509 7
9510 42
9511 56
9512 44
9513 35
9514 44
9515 9
9516 53
9517 36
9518 20
9519 3
9520 43
9521 44
9522 44
9523 44
9524 44
9525 3
9526 31
9527 42
9528 7
9529 5
9530 49
9531 20
9532 20
9533 31
9534 0
9535 34
9536 47
9537 42
9538 46
9539 16
9540 42
9541 42
9542 44
9543 65
9544 47
9545 6
9546 15
9547 4
9548 53
9549 42
9550 44
9551 53
9552 1
9553 47
9554 53
9555 53
9556 47
9557 44
9558 47
9559 47
9560 21
9561 42
9562 4
9563 20
9564 42
9565 7
9566 7
9567 44
9568 22
9569 27
9570 0
9571 23
9572 61
9573 47
9574 20
9575 7
9576 3
9577 44
9578 44
9579 42
9580 30
9581 22
9582 68
9583 47
9584 7
9585 53
9586 47
9587 3
9588 42
9589 20
9590 15
9591 7
9592 44
9593 47
9594 44
9595 44
9596 10
9597 53
9598 3
9599 35
9600 7
9601 7
9602 50
9603 7
9604 20
9605 42
9606 42
9607 44
9608 44
9609 34
9610 5
9611 3
9612 83
9613 7
9614 53
9615 20
9616 47
9617 44
9618 20
9619 20
9620 11
9621 42
9622 53
9623 76
9624 41
9625 7
9626 74
9627 15
9628 44
9629 20
9630 42
9631 3
9632 49
9633 25
9634 3
9635 42
9636 3
9637 42
9638 53
9639 42
9640 1
9641 7
9642 41
9643 53
9644 22
9645 20
9646 42
9647 42
9648 14
9649 74
9650 44
9651 20
9652 56
9653 47
9654 44
9655 53
9656 5
9657 42
9658 7
9659 7
9660 44
9661 44
9662 20
9663 51
9664 30
9665 47
9666 53
9667 7
9668 47
9669 20
9670 27
9671 27
9672 68
9673 47
9674 24
9675 53
9676 53
9677 7
9678 3
9679 53
9680 44
9681 20
9682 45
9683 49
9684 53
9685 47
9686 53
9687 44
9688 53
9689 7
9690 27
9691 21
9692 47
9693 1
9694 16
9695 44
9696 50
9697 7
9698 5
9699 42
9700 47
9701 4
9702 5
9703 21
9704 53
9705 39
9706 53
9707 20
9708 47
9709 23
9710 20
9711 15
9712 1
9713 27
9714 20
9715 20
9716 27
9717 53
9718 3
9719 42
9720 20
9721 4
9722 53
9723 24
9724 72
9725 56
9726 47
9727 15
9728 20
9729 53
9730 3
9731 53
9732 20
9733 42
9734 53
9735 25
9736 7
9737 27
9738 44
9739 53
9740 3
9741 42
9742 44
9743 20
9744 44
9745 44
9746 23
9747 47
9748 7
9749 44
9750 20
9751 3
9752 16
9753 40
9754 20
9755 50
9756 53
9757 42
9758 3
9759 42
9760 7
9761 24
9762 42
9763 4
9764 58
9765 43
9766 72
9767 6
9768 53
9769 3
9770 53
9771 47
9772 44
9773 47
9774 44
9775 3
9776 23
9777 6
9778 27
9779 42
9780 44
9781 57
9782 3
9783 9
9784 7
9785 42
9786 7
9787 27
9788 26
9789 27
9790 7
9791 20
9792 47
9793 4
9794 66
9795 31
9796 53
9797 47
9798 44
9799 43
9800 47
9801 27
9802 20
9803 44
9804 42
9805 42
9806 20
9807 59
9808 27
9809 43
9810 7
9811 3
9812 80
9813 47
9814 43
9815 7
9816 45
9817 43
9818 53
9819 20
9820 44
9821 47
9822 43
9823 75
9824 3
9825 53
9826 43
9827 47
9828 20
9829 7
9830 27
9831 3
9832 3
9833 1
9834 69
9835 53
9836 43
9837 20
9838 53
9839 20
9840 7
9841 20
9842 53
9843 27
9844 43
9845 83
9846 47
9847 27
9848 1
9849 76
9850 27
9851 23
9852 27
9853 27
9854 47
9855 53
9856 3
9857 44
9858 43
9859 3
9860 27
9861 42
9862 42
9863 3
9864 43
9865 43
9866 43
9867 42
9868 70
9869 53
9870 3
9871 27
9872 17
9873 44
9874 53
9875 44
9876 54
9877 53
9878 43
9879 74
9880 20
9881 17
9882 20
9883 80
9884 47
9885 1
9886 44
9887 3
9888 27
9889 20
9890 18
9891 42
9892 24
9893 53
9894 20
9895 58
9896 3
9897 53
9898 27
9899 43
9900 27
9901 35
9902 53
9903 76
9904 7
9905 42
9906 20
9907 50
9908 43
9909 7
9910 20
9911 27
9912 44
9913 3
9914 24
9915 44
9916 42
9917 27
9918 47
9919 43
9920 27
9921 36
9922 44
9923 53
9924 44
9925 43
9926 27
9927 53
9928 53
9929 20
9930 28
9931 7
9932 43
9933 53
9934 10
9935 42
9936 27
9937 53
9938 53
9939 42
9940 53
9941 47
9942 53
9943 24
9944 44
9945 43
9946 3
9947 81
9948 7
9949 17
9950 57
9951 53
9952 7
9953 16
9954 16
9955 20
9956 24
9957 27
9958 3
9959 53
9960 47
9961 3
9962 47
9963 44
9964 53
9965 47
9966 50
9967 44
9968 30
9969 47
9970 16
9971 68
9972 16
9973 7
9974 47
9975 44
9976 20
9977 42
9978 71
9979 10
9980 20
9981 15
9982 42
9983 15
9984 27
9985 47
9986 43
9987 7
9988 27
9989 73
9990 3
9991 16
9992 7
9993 3
9994 47
9995 7
9996 3
9997 47
9998 20
9999 7
