0 0
1 1
2 2
3 3
4 4
5 5
6 6
7 7
8 8
9 9
10 10
11 11
12 12
13 13
14 11
15 1
16 14
17 12
18 15
19 16
20 5
21 17
22 18
23 19
24 15
25 20
26 15
27 21
28 22
29 21
30 19
31 23
32 4
33 16
34 24
35 25
36 26
37 27
38 28
39 15
40 19
41 29
42 30
43 22
44 2
45 31
46 30
47 32
48 27
49 33
50 34
51 28
52 35
53 26
54 15
55 17
56 20
57 31
58 31
59 35
60 19
61 27
62 1
63 2
64 5
65 18
66 36
67 22
68 24
69 24
70 20
71 14
72 19
73 35
74 14
75 22
76 37
77 1
78 38
79 13
80 39
81 34
82 4
83 40
84 19
85 40
86 34
87 41
88 15
89 6
90 28
91 4
92 15
93 4
94 34
95 27
96 42
97 17
98 34
99 5
100 12
101 16
102 19
103 2
104 6
105 1
106 40
107 36
108 5
109 2
110 43
111 6
112 24
113 28
114 6
115 44
116 5
117 45
118 8
119 34
120 2
121 5
122 18
123 4
124 18
125 17
126 18
127 19
128 36
129 1
130 23
131 6
132 42
133 28
134 36
135 26
136 22
137 17
138 1
139 34
140 17
141 22
142 27
143 30
144 27
145 31
146 19
147 1
148 18
149 34
150 2
151 28
152 30
153 25
154 6
155 27
156 19
157 9
158 18
159 45
160 5
161 20
162 22
163 46
164 34
165 39
166 4
167 32
168 15
169 17
170 28
171 30
172 6
173 19
174 5
175 18
176 6
177 40
178 27
179 5
180 1
181 22
182 5
183 22
184 2
185 5
186 15
187 17
188 34
189 15
190 4
191 5
192 18
193 22
194 47
195 15
196 7
197 18
198 20
199 36
200 40
201 0
202 19
203 16
204 31
205 17
206 27
207 17
208 2
209 35
210 28
211 5
212 48
213 18
214 36
215 45
216 1
217 22
218 2
219 45
220 5
221 42
222 30
223 17
224 1
225 22
226 34
227 30
228 32
229 19
230 38
231 24
232 36
233 42
234 30
235 22
236 30
237 34
238 17
239 40
240 38
241 36
242 17
243 36
244 5
245 22
246 49
247 16
248 28
249 18
250 17
251 15
252 2
253 45
254 6
255 1
256 25
257 20
258 15
259 1
260 5
261 34
262 2
263 19
264 50
265 36
266 6
267 33
268 15
269 45
270 5
271 20
272 15
273 50
274 1
275 37
276 2
277 18
278 6
279 17
280 30
281 17
282 2
283 18
284 10
285 18
286 30
287 38
288 0
289 21
290 27
291 32
292 41
293 30
294 51
295 43
296 36
297 39
298 15
299 22
300 14
301 16
302 1
303 14
304 32
305 6
306 1
307 52
308 20
309 46
310 3
311 1
312 48
313 36
314 5
315 5
316 39
317 2
318 22
319 44
320 19
321 17
322 26
323 7
324 34
325 2
326 2
327 2
328 14
329 17
330 43
331 24
332 52
333 22
334 31
335 5
336 20
337 2
338 26
339 6
340 17
341 34
342 34
343 14
344 0
345 15
346 30
347 5
348 2
349 15
350 22
351 21
352 30
353 17
354 14
355 20
356 2
357 19
358 26
359 17
360 14
361 22
362 34
363 22
364 22
365 26
366 36
367 26
368 4
369 2
370 35
371 0
372 17
373 2
374 16
375 34
376 14
377 19
378 19
379 15
380 18
381 15
382 30
383 18
384 33
385 12
386 40
387 15
388 14
389 32
390 2
391 2
392 31
393 24
394 38
395 53
396 19
397 1
398 24
399 2
400 4
401 19
402 31
403 12
404 2
405 36
406 30
407 36
408 36
409 41
410 28
411 2
412 4
413 17
414 17
415 35
416 28
417 4
418 25
419 34
420 40
421 24
422 22
423 4
424 49
425 15
426 15
427 18
428 18
429 20
430 44
431 20
432 37
433 28
434 15
435 2
436 37
437 36
438 46
439 22
440 34
441 22
442 48
443 4
444 38
445 15
446 24
447 7
448 15
449 1
450 26
451 4
452 34
453 5
454 15
455 1
456 28
457 22
458 45
459 1
460 34
461 47
462 4
463 15
464 30
465 26
466 52
467 18
468 32
469 43
470 19
471 28
472 24
473 5
474 5
475 51
476 3
477 2
478 3
479 17
480 14
481 30
482 14
483 14
484 4
485 5
486 1
487 15
488 15
489 5
490 41
491 14
492 28
493 15
494 1
495 33
496 34
497 5
498 46
499 24
500 43
501 43
502 50
503 28
504 18
505 2
506 28
507 30
508 14
509 4
510 34
511 15
512 29
513 28
514 15
515 5
516 2
517 14
518 41
519 25
520 19
521 4
522 4
523 17
524 14
525 19
526 28
527 2
528 17
529 2
530 1
531 1
532 5
533 1
534 2
535 38
536 19
537 24
538 45
539 54
540 28
541 6
542 18
543 26
544 13
545 24
546 0
547 22
548 11
549 25
550 15
551 10
552 22
553 20
554 22
555 27
556 2
557 13
558 18
559 1
560 7
561 2
562 7
563 4
564 28
565 26
566 14
567 34
568 15
569 40
570 29
571 27
572 17
573 30
574 18
575 20
576 28
577 40
578 30
579 4
580 15
581 1
582 34
583 23
584 36
585 28
586 30
587 19
588 19
589 15
590 22
591 39
592 22
593 28
594 5
595 5
596 17
597 24
598 30
599 1
600 36
601 5
602 19
603 17
604 1
605 30
606 28
607 15
608 14
609 30
610 40
611 19
612 36
613 27
614 5
615 40
616 27
617 24
618 30
619 22
620 34
621 1
622 5
623 19
624 49
625 25
626 12
627 30
628 5
629 1
630 19
631 14
632 27
633 54
634 19
635 15
636 28
637 17
638 45
639 19
640 42
641 45
642 34
643 30
644 1
645 22
646 24
647 19
648 14
649 22
650 1
651 24
652 30
653 22
654 4
655 2
656 6
657 19
658 55
659 34
660 4
661 40
662 2
663 19
664 2
665 15
666 2
667 51
668 20
669 5
670 27
671 1
672 15
673 2
674 50
675 28
676 34
677 1
678 45
679 42
680 2
681 19
682 19
683 14
684 2
685 36
686 14
687 38
688 34
689 17
690 34
691 34
692 2
693 54
694 28
695 28
696 41
697 40
698 4
699 5
700 15
701 1
702 40
703 5
704 2
705 34
706 49
707 27
708 5
709 45
710 45
711 14
712 1
713 30
714 19
715 22
716 4
717 40
718 22
719 30
720 27
721 30
722 7
723 27
724 5
725 18
726 5
727 17
728 17
729 40
730 40
731 1
732 17
733 14
734 5
735 22
736 1
737 36
738 53
739 5
740 5
741 40
742 27
743 0
744 5
745 30
746 46
747 8
748 32
749 30
750 28
751 22
752 14
753 2
754 5
755 19
756 16
757 22
758 25
759 17
760 22
761 5
762 42
763 2
764 40
765 2
766 34
767 10
768 3
769 15
770 4
771 20
772 28
773 19
774 19
775 30
776 1
777 2
778 0
779 1
780 5
781 17
782 2
783 22
784 2
785 15
786 17
787 43
788 26
789 40
790 45
791 5
792 2
793 19
794 30
795 15
796 32
797 24
798 15
799 28
800 2
801 5
802 5
803 26
804 30
805 41
806 2
807 28
808 30
809 16
810 2
811 26
812 17
813 24
814 2
815 28
816 17
817 1
818 32
819 5
820 14
821 17
822 16
823 43
824 22
825 4
826 55
827 4
828 17
829 5
830 1
831 2
832 5
833 38
834 16
835 1
836 19
837 14
838 30
839 17
840 19
841 4
842 1
843 24
844 20
845 35
846 24
847 1
848 2
849 17
850 34
851 21
852 4
853 5
854 28
855 12
856 6
857 1
858 5
859 49
860 31
861 15
862 2
863 22
864 29
865 1
866 34
867 19
868 44
869 5
870 24
871 5
872 24
873 4
874 1
875 4
876 5
877 15
878 2
879 24
880 28
881 28
882 14
883 17
884 19
885 14
886 28
887 24
888 45
889 22
890 35
891 7
892 19
893 15
894 4
895 2
896 9
897 2
898 51
899 43
900 1
901 14
902 8
903 1
904 15
905 45
906 37
907 1
908 0
909 1
910 19
911 46
912 4
913 17
914 19
915 28
916 26
917 31
918 4
919 1
920 19
921 2
922 21
923 5
924 22
925 5
926 30
927 49
928 19
929 30
930 30
931 1
932 5
933 4
934 45
935 19
936 5
937 32
938 22
939 1
940 46
941 19
942 30
943 2
944 15
945 1
946 1
947 4
948 5
949 2
950 5
951 19
952 45
953 5
954 2
955 5
956 19
957 30
958 30
959 32
960 31
961 1
962 6
963 17
964 5
965 22
966 20
967 19
968 28
969 10
970 19
971 1
972 51
973 18
974 6
975 43
976 1
977 28
978 13
979 5
980 30
981 4
982 19
983 17
984 17
985 5
986 19
987 1
988 20
989 36
990 2
991 19
992 5
993 1
994 0
995 2
996 4
997 18
998 5
999 17
1000 30
1001 15
1002 5
1003 1
1004 17
1005 30
1006 7
1007 0
1008 5
1009 6
1010 20
1011 4
1012 19
1013 41
1014 16
1015 34
1016 44
1017 37
1018 6
1019 9
1020 30
1021 30
1022 6
1023 30
1024 1
1025 29
1026 15
1027 0
1028 6
1029 46
1030 30
1031 19
1032 22
1033 4
1034 17
1035 17
1036 1
1037 15
1038 1
1039 19
1040 19
1041 40
1042 19
1043 1
1044 17
1045 30
1046 53
1047 28
1048 17
1049 22
1050 19
1051 25
1052 32
1053 1
1054 1
1055 2
1056 19
1057 17
1058 42
1059 6
1060 49
1061 4
1062 22
1063 15
1064 1
1065 4
1066 1
1067 18
1068 6
1069 18
1070 40
1071 0
1072 1
1073 4
1074 17
1075 7
1076 3
1077 9
1078 18
1079 30
1080 17
1081 17
1082 4
1083 5
1084 40
1085 4
1086 17
1087 22
1088 30
1089 23
1090 5
1091 30
1092 1
1093 5
1094 5
1095 19
1096 20
1097 50
1098 27
1099 17
1100 31
1101 17
1102 12
1103 5
1104 6
1105 19
1106 17
1107 5
1108 4
1109 1
1110 1
1111 17
1112 5
1113 37
1114 5
1115 30
1116 49
1117 19
1118 17
1119 34
1120 17
1121 28
1122 19
1123 19
1124 2
1125 19
1126 17
1127 37
1128 20
1129 17
1130 19
1131 6
1132 1
1133 2
1134 1
1135 2
1136 16
1137 15
1138 18
1139 30
1140 4
1141 6
1142 19
1143 34
1144 30
1145 1
1146 14
1147 1
1148 28
1149 33
1150 45
1151 34
1152 36
1153 17
1154 19
1155 17
1156 15
1157 20
1158 19
1159 45
1160 19
1161 17
1162 0
1163 23
1164 20
1165 1
1166 31
1167 18
1168 22
1169 21
1170 14
1171 1
1172 18
1173 30
1174 22
1175 19
1176 5
1177 28
1178 17
1179 34
1180 31
1181 17
1182 42
1183 46
1184 28
1185 30
1186 20
1187 47
1188 5
1189 22
1190 42
1191 14
1192 34
1193 5
1194 40
1195 1
1196 17
1197 30
1198 34
1199 19
1200 19
1201 52
1202 32
1203 30
1204 30
1205 20
1206 15
1207 15
1208 4
1209 2
1210 7
1211 2
1212 4
1213 30
1214 5
1215 17
1216 2
1217 1
1218 30
1219 51
1220 20
1221 40
1222 34
1223 20
1224 36
1225 13
1226 34
1227 30
1228 1
1229 6
1230 52
1231 34
1232 2
1233 20
1234 43
1235 5
1236 34
1237 5
1238 4
1239 4
1240 27
1241 30
1242 17
1243 36
1244 1
1245 5
1246 45
1247 17
1248 15
1249 34
1250 27
1251 6
1252 5
1253 34
1254 45
1255 20
1256 5
1257 19
1258 43
1259 30
1260 19
1261 33
1262 19
1263 45
1264 18
1265 25
1266 18
1267 45
1268 22
1269 19
1270 1
1271 8
1272 34
1273 4
1274 16
1275 17
1276 19
1277 5
1278 6
1279 5
1280 51
1281 20
1282 34
1283 14
1284 17
1285 19
1286 16
1287 31
1288 30
1289 36
1290 34
1291 1
1292 34
1293 5
1294 30
1295 18
1296 28
1297 34
1298 5
1299 5
1300 5
1301 30
1302 17
1303 23
1304 2
1305 1
1306 30
1307 33
1308 34
1309 17
1310 17
1311 32
1312 24
1313 30
1314 46
1315 1
1316 4
1317 19
1318 4
1319 6
1320 5
1321 4
1322 2
1323 34
1324 17
1325 17
1326 1
1327 2
1328 5
1329 2
1330 19
1331 6
1332 26
1333 4
1334 5
1335 1
1336 30
1337 24
1338 19
1339 34
1340 28
1341 1
1342 36
1343 26
1344 26
1345 2
1346 17
1347 4
1348 14
1349 34
1350 30
1351 1
1352 2
1353 26
1354 34
1355 35
1356 40
1357 55
1358 34
1359 1
1360 37
1361 19
1362 8
1363 5
1364 6
1365 19
1366 2
1367 5
1368 30
1369 30
1370 19
1371 4
1372 4
1373 5
1374 9
1375 2
1376 30
1377 14
1378 1
1379 5
1380 2
1381 36
1382 4
1383 5
1384 2
1385 20
1386 4
1387 36
1388 19
1389 26
1390 17
1391 1
1392 9
1393 19
1394 17
1395 18
1396 1
1397 19
1398 1
1399 19
1400 19
1401 2
1402 34
1403 24
1404 3
1405 17
1406 19
1407 5
1408 31
1409 36
1410 5
1411 23
1412 34
1413 20
1414 5
1415 8
1416 17
1417 30
1418 27
1419 20
1420 34
1421 8
1422 24
1423 17
1424 5
1425 24
1426 5
1427 26
1428 2
1429 5
1430 5
1431 45
1432 24
1433 37
1434 25
1435 19
1436 14
1437 49
1438 20
1439 4
1440 51
1441 21
1442 31
1443 4
1444 1
1445 2
1446 36
1447 17
1448 15
1449 1
1450 14
1451 4
1452 5
1453 38
1454 37
1455 20
1456 26
1457 5
1458 17
1459 34
1460 14
1461 6
1462 5
1463 17
1464 30
1465 30
1466 30
1467 15
1468 17
1469 45
1470 4
1471 38
1472 38
1473 4
1474 5
1475 32
1476 5
1477 26
1478 34
1479 2
1480 38
1481 1
1482 24
1483 1
1484 30
1485 31
1486 26
1487 51
1488 16
1489 2
1490 36
1491 43
1492 19
1493 30
1494 46
1495 17
1496 19
1497 24
1498 41
1499 36
1500 34
1501 34
1502 5
1503 14
1504 2
1505 2
1506 30
1507 5
1508 30
1509 22
1510 4
1511 37
1512 20
1513 17
1514 35
1515 5
1516 35
1517 5
1518 17
1519 36
1520 28
1521 17
1522 15
1523 20
1524 17
1525 30
1526 19
1527 9
1528 14
1529 5
1530 4
1531 53
1532 44
1533 34
1534 30
1535 19
1536 19
1537 28
1538 34
1539 4
1540 2
1541 1
1542 17
1543 2
1544 2
1545 45
1546 7
1547 30
1548 5
1549 43
1550 22
1551 20
1552 38
1553 15
1554 1
1555 2
1556 40
1557 4
1558 20
1559 2
1560 14
1561 6
1562 30
1563 5
1564 4
1565 22
1566 5
1567 30
1568 22
1569 26
1570 16
1571 17
1572 52
1573 28
1574 20
1575 15
1576 4
1577 31
1578 15
1579 22
1580 4
1581 30
1582 4
1583 2
1584 31
1585 28
1586 35
1587 36
1588 30
1589 28
1590 15
1591 5
1592 30
1593 30
1594 22
1595 18
1596 25
1597 34
1598 22
1599 2
1600 42
1601 2
1602 1
1603 0
1604 5
1605 24
1606 17
1607 40
1608 25
1609 4
1610 5
1611 25
1612 22
1613 15
1614 34
1615 19
1616 22
1617 22
1618 1
1619 4
1620 2
1621 17
1622 15
1623 22
1624 2
1625 1
1626 22
1627 34
1628 22
1629 15
1630 5
1631 34
1632 15
1633 19
1634 22
1635 17
1636 2
1637 22
1638 15
1639 40
1640 22
1641 5
1642 22
1643 2
1644 31
1645 14
1646 28
1647 19
1648 17
1649 26
1650 30
1651 34
1652 37
1653 5
1654 22
1655 17
1656 30
1657 22
1658 17
1659 15
1660 19
1661 28
1662 14
1663 19
1664 17
1665 26
1666 28
1667 19
1668 30
1669 19
1670 2
1671 5
1672 19
1673 1
1674 5
1675 19
1676 17
1677 4
1678 47
1679 15
1680 19
1681 4
1682 29
1683 17
1684 2
1685 30
1686 30
1687 19
1688 35
1689 47
1690 34
1691 19
1692 19
1693 27
1694 5
1695 19
1696 15
1697 37
1698 30
1699 15
1700 19
1701 17
1702 26
1703 2
1704 16
1705 2
1706 4
1707 22
1708 5
1709 5
1710 5
1711 30
1712 19
1713 15
1714 19
1715 17
1716 26
1717 22
1718 40
1719 32
1720 35
1721 17
1722 15
1723 34
1724 17
1725 19
1726 19
1727 53
1728 34
1729 23
1730 22
1731 50
1732 5
1733 50
1734 2
1735 2
1736 27
1737 2
1738 37
1739 41
1740 17
1741 27
1742 1
1743 19
1744 30
1745 22
1746 4
1747 30
1748 26
1749 28
1750 34
1751 36
1752 1
1753 14
1754 18
1755 2
1756 15
1757 2
1758 19
1759 32
1760 5
1761 2
1762 30
1763 27
1764 26
1765 2
1766 19
1767 1
1768 0
1769 12
1770 14
1771 15
1772 15
1773 7
1774 15
1775 31
1776 24
1777 30
1778 41
1779 31
1780 2
1781 5
1782 13
1783 2
1784 22
1785 5
1786 5
1787 17
1788 4
1789 28
1790 34
1791 7
1792 49
1793 17
1794 30
1795 5
1796 15
1797 30
1798 5
1799 19
1800 17
1801 17
1802 27
1803 31
1804 2
1805 17
1806 1
1807 15
1808 19
1809 15
1810 15
1811 25
1812 2
1813 30
1814 14
1815 4
1816 5
1817 28
1818 17
1819 27
1820 19
1821 30
1822 30
1823 17
1824 2
1825 5
1826 17
1827 22
1828 22
1829 5
1830 30
1831 5
1832 24
1833 1
1834 34
1835 30
1836 2
1837 19
1838 4
1839 17
1840 4
1841 1
1842 19
1843 17
1844 1
1845 17
1846 30
1847 2
1848 28
1849 15
1850 47
1851 16
1852 18
1853 22
1854 22
1855 2
1856 22
1857 2
1858 19
1859 22
1860 7
1861 12
1862 1
1863 15
1864 19
1865 17
1866 28
1867 28
1868 5
1869 30
1870 4
1871 28
1872 20
1873 49
1874 17
1875 28
1876 17
1877 5
1878 5
1879 28
1880 15
1881 30
1882 30
1883 30
1884 15
1885 1
1886 13
1887 26
1888 35
1889 24
1890 19
1891 19
1892 5
1893 17
1894 34
1895 19
1896 19
1897 25
1898 28
1899 34
1900 7
1901 22
1902 2
1903 5
1904 34
1905 15
1906 5
1907 5
1908 24
1909 24
1910 4
1911 30
1912 32
1913 2
1914 4
1915 2
1916 19
1917 17
1918 18
1919 14
1920 2
1921 4
1922 30
1923 7
1924 17
1925 19
1926 48
1927 22
1928 1
1929 19
1930 4
1931 5
1932 17
1933 1
1934 28
1935 5
1936 1
1937 22
1938 34
1939 4
1940 22
1941 30
1942 34
1943 5
1944 24
1945 19
1946 13
1947 15
1948 5
1949 24
1950 15
1951 5
1952 20
1953 15
1954 30
1955 20
1956 34
1957 1
1958 49
1959 22
1960 19
1961 5
1962 5
1963 5
1964 34
1965 5
1966 5
1967 51
1968 27
1969 2
1970 2
1971 17
1972 2
1973 34
1974 22
1975 30
1976 15
1977 19
1978 38
1979 15
1980 28
1981 2
1982 30
1983 22
1984 17
1985 10
1986 15
1987 22
1988 15
1989 18
1990 17
1991 2
1992 1
1993 5
1994 22
1995 2
1996 6
1997 30
1998 19
1999 20
2000 30
2001 19
2002 45
2003 19
2004 20
2005 1
2006 19
2007 28
2008 46
2009 4
2010 2
2011 2
2012 43
2013 4
2014 15
2015 34
2016 2
2017 34
2018 17
2019 15
2020 6
2021 22
2022 18
2023 31
2024 22
2025 1
2026 5
2027 40
2028 5
2029 2
2030 15
2031 19
2032 15
2033 4
2034 24
2035 34
2036 5
2037 34
2038 48
2039 19
2040 20
2041 44
2042 22
2043 22
2044 34
2045 17
2046 15
2047 17
2048 19
2049 45
2050 22
2051 28
2052 18
2053 30
2054 20
2055 22
2056 6
2057 2
2058 15
2059 22
2060 20
2061 22
2062 34
2063 30
2064 43
2065 15
2066 31
2067 18
2068 34
2069 22
2070 12
2071 22
2072 5
2073 17
2074 30
2075 1
2076 24
2077 2
2078 6
2079 1
2080 39
2081 45
2082 15
2083 20
2084 18
2085 17
2086 5
2087 15
2088 4
2089 30
2090 2
2091 44
2092 18
2093 17
2094 24
2095 5
2096 18
2097 2
2098 2
2099 15
2100 5
2101 4
2102 2
2103 22
2104 15
2105 34
2106 19
2107 30
2108 22
2109 22
2110 30
2111 19
2112 22
2113 27
2114 34
2115 2
2116 18
2117 24
2118 17
2119 5
2120 22
2121 14
2122 27
2123 6
2124 0
2125 47
2126 17
2127 19
2128 6
2129 5
2130 18
2131 30
2132 36
2133 7
2134 19
2135 22
2136 34
2137 22
2138 27
2139 24
2140 34
2141 28
2142 5
2143 14
2144 20
2145 22
2146 20
2147 22
2148 4
2149 1
2150 42
2151 30
2152 40
2153 17
2154 20
2155 49
2156 32
2157 42
2158 34
2159 20
2160 22
2161 20
2162 36
2163 35
2164 34
2165 30
2166 8
2167 19
2168 19
2169 42
2170 45
2171 2
2172 40
2173 2
2174 2
2175 19
2176 2
2177 17
2178 27
2179 0
2180 20
2181 20
2182 42
2183 33
2184 5
2185 40
2186 15
2187 34
2188 24
2189 20
2190 6
2191 43
2192 5
2193 1
2194 6
2195 1
2196 20
2197 18
2198 34
2199 37
2200 19
2201 17
2202 34
2203 5
2204 42
2205 1
2206 0
2207 53
2208 47
2209 27
2210 2
2211 8
2212 1
2213 6
2214 6
2215 30
2216 34
2217 40
2218 15
2219 19
2220 6
2221 16
2222 20
2223 30
2224 35
2225 51
2226 22
2227 34
2228 1
2229 1
2230 55
2231 30
2232 22
2233 45
2234 22
2235 5
2236 19
2237 19
2238 6
2239 22
2240 15
2241 36
2242 9
2243 30
2244 24
2245 17
2246 40
2247 42
2248 43
2249 27
2250 6
2251 34
2252 28
2253 28
2254 45
2255 18
2256 19
2257 30
2258 42
2259 22
2260 40
2261 22
2262 15
2263 34
2264 20
2265 32
2266 1
2267 19
2268 2
2269 6
2270 6
2271 15
2272 34
2273 20
2274 17
2275 16
2276 20
2277 5
2278 17
2279 10
2280 34
2281 17
2282 1
2283 22
2284 17
2285 5
2286 18
2287 16
2288 22
2289 22
2290 20
2291 1
2292 22
2293 15
2294 6
2295 36
2296 29
2297 18
2298 30
2299 36
2300 5
2301 5
2302 16
2303 15
2304 2
2305 1
2306 22
2307 20
2308 45
2309 22
2310 24
2311 6
2312 17
2313 36
2314 2
2315 36
2316 42
2317 5
2318 28
2319 0
2320 8
2321 45
2322 48
2323 19
2324 22
2325 22
2326 1
2327 32
2328 2
2329 2
2330 36
2331 5
2332 19
2333 4
2334 2
2335 48
2336 20
2337 5
2338 6
2339 2
2340 2
2341 2
2342 51
2343 2
2344 22
2345 38
2346 52
2347 8
2348 2
2349 1
2350 2
2351 2
2352 49
2353 7
2354 38
2355 18
2356 22
2357 4
2358 22
2359 49
2360 1
2361 26
2362 34
2363 26
2364 20
2365 28
2366 50
2367 29
2368 15
2369 37
2370 14
2371 34
2372 36
2373 22
2374 15
2375 34
2376 45
2377 7
2378 30
2379 1
2380 45
2381 28
2382 22
2383 20
2384 26
2385 26
2386 20
2387 34
2388 10
2389 5
2390 22
2391 2
2392 34
2393 36
2394 17
2395 22
2396 20
2397 35
2398 23
2399 15
2400 13
2401 7
2402 30
2403 24
2404 20
2405 2
2406 5
2407 14
2408 30
2409 32
2410 17
2411 15
2412 31
2413 3
2414 34
2415 30
2416 19
2417 18
2418 24
2419 1
2420 30
2421 22
2422 22
2423 22
2424 1
2425 8
2426 14
2427 50
2428 22
2429 22
2430 17
2431 19
2432 22
2433 30
2434 5
2435 40
2436 35
2437 35
2438 52
2439 22
2440 24
2441 5
2442 30
2443 1
2444 22
2445 2
2446 17
2447 6
2448 1
2449 30
2450 22
2451 4
2452 2
2453 14
2454 43
2455 17
2456 27
2457 22
2458 26
2459 22
2460 17
2461 24
2462 28
2463 23
2464 22
2465 14
2466 5
2467 8
2468 26
2469 30
2470 22
2471 5
2472 4
2473 4
2474 30
2475 14
2476 7
2477 26
2478 20
2479 38
2480 35
2481 7
2482 4
2483 34
2484 15
2485 15
2486 53
2487 5
2488 1
2489 26
2490 15
2491 24
2492 2
2493 18
2494 42
2495 30
2496 30
2497 18
2498 34
2499 24
2500 5
2501 18
2502 22
2503 18
2504 36
2505 16
2506 14
2507 17
2508 4
2509 19
2510 4
2511 26
2512 24
2513 34
2514 18
2515 14
2516 5
2517 14
2518 34
2519 34
2520 2
2521 28
2522 5
2523 7
2524 37
2525 49
2526 36
2527 17
2528 39
2529 2
2530 17
2531 17
2532 4
2533 22
2534 43
2535 5
2536 5
2537 34
2538 24
2539 34
2540 26
2541 1
2542 17
2543 36
2544 2
2545 36
2546 5
2547 39
2548 0
2549 3
2550 30
2551 29
2552 17
2553 53
2554 4
2555 14
2556 15
2557 5
2558 4
2559 36
2560 15
2561 30
2562 15
2563 26
2564 17
2565 28
2566 16
2567 49
2568 19
2569 19
2570 19
2571 24
2572 4
2573 14
2574 1
2575 30
2576 5
2577 20
2578 30
2579 45
2580 20
2581 19
2582 0
2583 30
2584 34
2585 34
2586 30
2587 5
2588 5
2589 5
2590 17
2591 15
2592 22
2593 17
2594 5
2595 30
2596 5
2597 17
2598 31
2599 15
2600 30
2601 22
2602 4
2603 17
2604 20
2605 27
2606 19
2607 5
2608 1
2609 2
2610 28
2611 2
2612 5
2613 4
2614 1
2615 19
2616 2
2617 19
2618 22
2619 4
2620 15
2621 28
2622 37
2623 4
2624 28
2625 4
2626 1
2627 5
2628 30
2629 30
2630 17
2631 4
2632 24
2633 5
2634 5
2635 30
2636 5
2637 30
2638 5
2639 26
2640 24
2641 1
2642 2
2643 5
2644 40
2645 22
2646 2
2647 19
2648 15
2649 19
2650 26
2651 19
2652 4
2653 2
2654 5
2655 40
2656 30
2657 5
2658 35
2659 4
2660 8
2661 5
2662 2
2663 36
2664 4
2665 2
2666 2
2667 30
2668 19
2669 34
2670 30
2671 26
2672 1
2673 43
2674 30
2675 40
2676 5
2677 2
2678 30
2679 15
2680 53
2681 30
2682 19
2683 17
2684 24
2685 5
2686 30
2687 27
2688 45
2689 19
2690 1
2691 15
2692 45
2693 2
2694 22
2695 0
2696 25
2697 22
2698 4
2699 4
2700 5
2701 2
2702 35
2703 16
2704 41
2705 1
2706 30
2707 30
2708 45
2709 15
2710 4
2711 5
2712 4
2713 9
2714 28
2715 45
2716 17
2717 0
2718 30
2719 14
2720 19
2721 19
2722 8
2723 42
2724 28
2725 22
2726 22
2727 5
2728 19
2729 1
2730 31
2731 4
2732 22
2733 34
2734 20
2735 28
2736 0
2737 19
2738 22
2739 22
2740 15
2741 1
2742 19
2743 27
2744 4
2745 4
2746 14
2747 19
2748 22
2749 1
2750 30
2751 4
2752 28
2753 28
2754 5
2755 15
2756 19
2757 14
2758 4
2759 5
2760 30
2761 15
2762 4
2763 0
2764 50
2765 45
2766 30
2767 27
2768 16
2769 31
2770 28
2771 37
2772 28
2773 33
2774 12
2775 20
2776 28
2777 34
2778 1
2779 17
2780 19
2781 0
2782 17
2783 42
2784 17
2785 17
2786 1
2787 1
2788 22
2789 55
2790 19
2791 27
2792 17
2793 19
2794 5
2795 36
2796 19
2797 19
2798 5
2799 19
2800 9
2801 34
2802 45
2803 15
2804 5
2805 2
2806 17
2807 32
2808 5
2809 17
2810 4
2811 2
2812 19
2813 4
2814 28
2815 1
2816 1
2817 15
2818 45
2819 23
2820 4
2821 4
2822 4
2823 50
2824 4
2825 26
2826 26
2827 4
2828 4
2829 17
2830 19
2831 15
2832 50
2833 5
2834 45
2835 1
2836 7
2837 28
2838 5
2839 5
2840 4
2841 1
2842 0
2843 30
2844 4
2845 40
2846 1
2847 40
2848 2
2849 2
2850 5
2851 54
2852 1
2853 26
2854 30
2855 17
2856 24
2857 27
2858 5
2859 34
2860 22
2861 17
2862 30
2863 17
2864 5
2865 17
2866 19
2867 4
2868 26
2869 5
2870 4
2871 5
2872 15
2873 17
2874 28
2875 1
2876 13
2877 29
2878 26
2879 4
2880 24
2881 5
2882 5
2883 1
2884 15
2885 19
2886 28
2887 34
2888 37
2889 4
2890 17
2891 5
2892 20
2893 4
2894 15
2895 1
2896 11
2897 30
2898 5
2899 14
2900 22
2901 20
2902 15
2903 32
2904 5
2905 17
2906 19
2907 30
2908 5
2909 20
2910 4
2911 53
2912 2
2913 5
2914 10
2915 19
2916 1
2917 17
2918 1
2919 45
2920 5
2921 17
2922 1
2923 31
2924 22
2925 17
2926 1
2927 46
2928 22
2929 16
2930 42
2931 45
2932 30
2933 5
2934 4
2935 9
2936 19
2937 14
2938 9
2939 24
2940 5
2941 30
2942 5
2943 30
2944 19
2945 4
2946 20
2947 4
2948 22
2949 5
2950 32
2951 5
2952 37
2953 17
2954 5
2955 19
2956 36
2957 30
2958 28
2959 40
2960 20
2961 20
2962 40
2963 17
2964 40
2965 19
2966 30
2967 17
2968 5
2969 17
2970 15
2971 1
2972 1
2973 20
2974 10
2975 20
2976 40
2977 30
2978 4
2979 30
2980 19
2981 5
2982 22
2983 5
2984 19
2985 4
2986 5
2987 42
2988 19
2989 46
2990 19
2991 36
2992 30
2993 5
2994 1
2995 5
2996 47
2997 14
2998 5
2999 18
3000 4
3001 17
3002 5
3003 5
3004 5
3005 1
3006 5
3007 20
3008 30
3009 18
3010 4
3011 19
3012 17
3013 30
3014 5
3015 4
3016 4
3017 5
3018 4
3019 14
3020 17
3021 5
3022 52
3023 47
3024 22
3025 17
3026 17
3027 28
3028 30
3029 17
3030 4
3031 1
3032 4
3033 5
3034 1
3035 31
3036 1
3037 17
3038 5
3039 30
3040 30
3041 46
3042 1
3043 17
3044 20
3045 4
3046 6
3047 17
3048 30
3049 1
3050 12
3051 19
3052 15
3053 28
3054 5
3055 8
3056 4
3057 6
3058 5
3059 38
3060 19
3061 5
3062 5
3063 19
3064 5
3065 19
3066 38
3067 22
3068 6
3069 40
3070 22
3071 1
3072 4
3073 19
3074 41
3075 40
3076 30
3077 28
3078 22
3079 25
3080 28
3081 5
3082 17
3083 17
3084 4
3085 5
3086 1
3087 15
3088 20
3089 28
3090 15
3091 17
3092 28
3093 11
3094 50
3095 17
3096 4
3097 22
3098 30
3099 4
3100 31
3101 1
3102 14
3103 1
3104 5
3105 30
3106 2
3107 17
3108 1
3109 0
3110 26
3111 5
3112 28
3113 30
3114 6
3115 30
3116 17
3117 20
3118 19
3119 1
3120 1
3121 28
3122 23
3123 19
3124 15
3125 20
3126 1
3127 6
3128 17
3129 30
3130 29
3131 5
3132 1
3133 16
3134 17
3135 49
3136 50
3137 19
3138 20
3139 16
3140 17
3141 27
3142 30
3143 1
3144 30
3145 47
3146 42
3147 30
3148 6
3149 19
3150 30
3151 27
3152 28
3153 5
3154 17
3155 4
3156 1
3157 17
3158 1
3159 10
3160 4
3161 23
3162 19
3163 2
3164 24
3165 4
3166 8
3167 19
3168 6
3169 8
3170 22
3171 17
3172 5
3173 19
3174 26
3175 30
3176 19
3177 40
3178 28
3179 5
3180 20
3181 22
3182 30
3183 30
3184 4
3185 19
3186 0
3187 26
3188 22
3189 1
3190 1
3191 45
3192 30
3193 1
3194 53
3195 28
3196 34
3197 19
3198 4
3199 17
3200 17
3201 36
3202 30
3203 29
3204 17
3205 15
3206 5
3207 19
3208 4
3209 4
3210 20
3211 30
3212 17
3213 0
3214 17
3215 17
3216 1
3217 30
3218 17
3219 16
3220 5
3221 17
3222 6
3223 30
3224 45
3225 30
3226 27
3227 17
3228 19
3229 2
3230 49
3231 0
3232 10
3233 17
3234 49
3235 20
3236 19
3237 5
3238 20
3239 1
3240 17
3241 2
3242 4
3243 34
3244 45
3245 4
3246 5
3247 22
3248 3
3249 4
3250 34
3251 4
3252 38
3253 4
3254 45
3255 18
3256 48
3257 19
3258 34
3259 17
3260 17
3261 17
3262 17
3263 37
3264 26
3265 15
3266 7
3267 5
3268 17
3269 17
3270 36
3271 19
3272 34
3273 5
3274 5
3275 34
3276 35
3277 17
3278 19
3279 20
3280 19
3281 4
3282 34
3283 30
3284 20
3285 19
3286 34
3287 36
3288 36
3289 4
3290 1
3291 1
3292 17
3293 5
3294 42
3295 17
3296 34
3297 0
3298 24
3299 4
3300 17
3301 34
3302 30
3303 4
3304 19
3305 1
3306 5
3307 4
3308 36
3309 19
3310 5
3311 3
3312 20
3313 34
3314 30
3315 4
3316 19
3317 34
3318 32
3319 5
3320 4
3321 5
3322 1
3323 19
3324 1
3325 16
3326 5
3327 30
3328 15
3329 23
3330 17
3331 51
3332 4
3333 36
3334 1
3335 5
3336 19
3337 4
3338 22
3339 19
3340 40
3341 1
3342 5
3343 34
3344 30
3345 34
3346 40
3347 30
3348 1
3349 5
3350 1
3351 4
3352 38
3353 2
3354 2
3355 36
3356 30
3357 34
3358 34
3359 17
3360 2
3361 41
3362 1
3363 14
3364 34
3365 19
3366 30
3367 19
3368 42
3369 2
3370 1
3371 36
3372 30
3373 27
3374 17
3375 17
3376 2
3377 2
3378 1
3379 17
3380 17
3381 5
3382 4
3383 44
3384 47
3385 1
3386 6
3387 22
3388 2
3389 2
3390 19
3391 30
3392 22
3393 14
3394 31
3395 18
3396 1
3397 1
3398 34
3399 35
3400 16
3401 34
3402 4
3403 2
3404 4
3405 5
3406 35
3407 19
3408 19
3409 1
3410 30
3411 16
3412 41
3413 20
3414 15
3415 30
3416 32
3417 8
3418 17
3419 5
3420 1
3421 2
3422 19
3423 31
3424 2
3425 5
3426 4
3427 19
3428 24
3429 2
3430 26
3431 34
3432 2
3433 17
3434 19
3435 19
3436 34
3437 5
3438 30
3439 1
3440 1
3441 17
3442 20
3443 34
3444 15
3445 5
3446 17
3447 14
3448 22
3449 32
3450 5
3451 17
3452 22
3453 14
3454 34
3455 5
3456 4
3457 17
3458 5
3459 19
3460 30
3461 10
3462 5
3463 4
3464 7
3465 34
3466 4
3467 47
3468 19
3469 19
3470 46
3471 2
3472 19
3473 40
3474 2
3475 19
3476 4
3477 34
3478 32
3479 30
3480 17
3481 18
3482 5
3483 15
3484 16
3485 17
3486 19
3487 20
3488 49
3489 5
3490 17
3491 8
3492 2
3493 30
3494 33
3495 19
3496 34
3497 7
3498 39
3499 5
3500 35
3501 2
3502 38
3503 2
3504 17
3505 34
3506 53
3507 1
3508 5
3509 5
3510 5
3511 2
3512 30
3513 15
3514 2
3515 2
3516 19
3517 6
3518 2
3519 17
3520 30
3521 30
3522 17
3523 5
3524 4
3525 15
3526 17
3527 19
3528 17
3529 2
3530 17
3531 1
3532 15
3533 36
3534 22
3535 2
3536 28
3537 17
3538 34
3539 38
3540 17
3541 2
3542 1
3543 15
3544 30
3545 5
3546 1
3547 28
3548 5
3549 31
3550 22
3551 19
3552 18
3553 2
3554 28
3555 1
3556 19
3557 22
3558 1
3559 19
3560 19
3561 2
3562 34
3563 34
3564 30
3565 30
3566 17
3567 2
3568 19
3569 19
3570 4
3571 19
3572 30
3573 51
3574 22
3575 34
3576 35
3577 5
3578 0
3579 17
3580 15
3581 34
3582 2
3583 45
3584 2
3585 17
3586 5
3587 4
3588 2
3589 8
3590 26
3591 5
3592 24
3593 19
3594 19
3595 3
3596 5
3597 34
3598 19
3599 4
3600 2
3601 4
3602 30
3603 0
3604 22
3605 52
3606 17
3607 17
3608 15
3609 34
3610 5
3611 20
3612 24
3613 22
3614 1
3615 17
3616 19
3617 19
3618 26
3619 4
3620 5
3621 4
3622 22
3623 2
3624 22
3625 2
3626 31
3627 34
3628 2
3629 17
3630 17
3631 2
3632 31
3633 2
3634 19
3635 17
3636 26
3637 4
3638 1
3639 5
3640 22
3641 29
3642 22
3643 17
3644 2
3645 15
3646 34
3647 19
3648 1
3649 15
3650 22
3651 28
3652 34
3653 2
3654 27
3655 3
3656 34
3657 20
3658 14
3659 12
3660 19
3661 22
3662 20
3663 22
3664 15
3665 43
3666 1
3667 35
3668 0
3669 19
3670 1
3671 55
3672 22
3673 20
3674 14
3675 4
3676 30
3677 15
3678 34
3679 15
3680 22
3681 5
3682 4
3683 19
3684 22
3685 34
3686 5
3687 34
3688 17
3689 4
3690 30
3691 15
3692 34
3693 40
3694 2
3695 4
3696 5
3697 35
3698 17
3699 30
3700 2
3701 19
3702 2
3703 0
3704 6
3705 4
3706 28
3707 19
3708 30
3709 2
3710 15
3711 4
3712 19
3713 17
3714 36
3715 34
3716 41
3717 5
3718 4
3719 17
3720 30
3721 5
3722 30
3723 30
3724 15
3725 30
3726 49
3727 19
3728 5
3729 17
3730 4
3731 30
3732 22
3733 4
3734 22
3735 20
3736 5
3737 15
3738 36
3739 17
3740 53
3741 34
3742 28
3743 45
3744 34
3745 51
3746 40
3747 30
3748 5
3749 4
3750 4
3751 12
3752 34
3753 34
3754 2
3755 20
3756 22
3757 5
3758 14
3759 17
3760 19
3761 34
3762 5
3763 19
3764 22
3765 19
3766 49
3767 32
3768 22
3769 5
3770 19
3771 26
3772 4
3773 22
3774 30
3775 34
3776 5
3777 42
3778 1
3779 24
3780 15
3781 1
3782 7
3783 52
3784 17
3785 34
3786 15
3787 28
3788 22
3789 34
3790 15
3791 15
3792 20
3793 5
3794 30
3795 15
3796 1
3797 22
3798 5
3799 15
3800 2
3801 32
3802 22
3803 2
3804 5
3805 19
3806 17
3807 1
3808 2
3809 17
3810 27
3811 5
3812 30
3813 22
3814 14
3815 4
3816 2
3817 34
3818 2
3819 15
3820 5
3821 26
3822 16
3823 17
3824 17
3825 9
3826 22
3827 15
3828 30
3829 55
3830 15
3831 40
3832 19
3833 1
3834 17
3835 1
3836 5
3837 5
3838 22
3839 2
3840 22
3841 17
3842 30
3843 19
3844 19
3845 30
3846 5
3847 34
3848 15
3849 15
3850 34
3851 15
3852 19
3853 19
3854 30
3855 4
3856 14
3857 5
3858 22
3859 19
3860 17
3861 4
3862 24
3863 28
3864 34
3865 17
3866 19
3867 2
3868 4
3869 17
3870 4
3871 27
3872 5
3873 15
3874 54
3875 24
3876 5
3877 17
3878 4
3879 5
3880 17
3881 17
3882 17
3883 22
3884 17
3885 15
3886 17
3887 5
3888 5
3889 2
3890 34
3891 4
3892 5
3893 19
3894 15
3895 1
3896 17
3897 2
3898 32
3899 5
3900 4
3901 16
3902 34
3903 22
3904 28
3905 17
3906 19
3907 34
3908 2
3909 22
3910 5
3911 2
3912 4
3913 19
3914 22
3915 19
3916 17
3917 4
3918 5
3919 30
3920 4
3921 4
3922 8
3923 4
3924 17
3925 4
3926 15
3927 5
3928 30
3929 34
3930 0
3931 34
3932 19
3933 17
3934 15
3935 15
3936 2
3937 27
3938 15
3939 17
3940 1
3941 37
3942 4
3943 5
3944 19
3945 2
3946 28
3947 17
3948 34
3949 19
3950 22
3951 30
3952 17
3953 19
3954 5
3955 4
3956 19
3957 5
3958 2
3959 22
3960 2
3961 6
3962 15
3963 1
3964 34
3965 5
3966 2
3967 4
3968 17
3969 15
3970 2
3971 36
3972 22
3973 4
3974 17
3975 30
3976 45
3977 22
3978 19
3979 2
3980 19
3981 22
3982 2
3983 22
3984 36
3985 17
3986 17
3987 5
3988 5
3989 17
3990 49
3991 42
3992 30
3993 5
3994 44
3995 22
3996 24
3997 2
3998 19
3999 4
4000 15
4001 17
4002 22
4003 2
4004 27
4005 5
4006 34
4007 2
4008 17
4009 24
4010 30
4011 1
4012 14
4013 17
4014 4
4015 2
4016 19
4017 33
4018 30
4019 34
4020 19
4021 30
4022 5
4023 28
4024 1
4025 17
4026 5
4027 17
4028 22
4029 19
4030 22
4031 30
4032 15
4033 15
4034 7
4035 17
4036 17
4037 17
4038 22
4039 34
4040 38
4041 15
4042 19
4043 19
4044 22
4045 2
4046 18
4047 4
4048 5
4049 15
4050 34
4051 19
4052 18
4053 4
4054 5
4055 0
4056 5
4057 34
4058 15
4059 5
4060 1
4061 4
4062 6
4063 1
4064 34
4065 4
4066 30
4067 5
4068 2
4069 19
4070 17
4071 5
4072 15
4073 5
4074 4
4075 34
4076 30
4077 19
4078 17
4079 22
4080 30
4081 5
4082 17
4083 2
4084 34
4085 15
4086 2
4087 29
4088 30
4089 4
4090 34
4091 17
4092 40
4093 30
4094 6
4095 20
4096 30
4097 19
4098 17
4099 5
4100 5
4101 2
4102 15
4103 19
4104 30
4105 2
4106 9
4107 17
4108 30
4109 30
4110 28
4111 0
4112 20
4113 5
4114 19
4115 28
4116 40
4117 6
4118 6
4119 19
4120 15
4121 36
4122 1
4123 15
4124 26
4125 30
4126 5
4127 15
4128 7
4129 15
4130 28
4131 34
4132 55
4133 49
4134 15
4135 17
4136 43
4137 4
4138 52
4139 2
4140 2
4141 18
4142 34
4143 17
4144 17
4145 30
4146 21
4147 1
4148 22
4149 30
4150 44
4151 24
4152 7
4153 5
4154 0
4155 7
4156 19
4157 5
4158 5
4159 1
4160 12
4161 30
4162 15
4163 2
4164 19
4165 19
4166 17
4167 27
4168 20
4169 15
4170 30
4171 4
4172 35
4173 18
4174 35
4175 30
4176 31
4177 8
4178 2
4179 15
4180 34
4181 15
4182 47
4183 2
4184 26
4185 6
4186 4
4187 4
4188 34
4189 20
4190 15
4191 19
4192 15
4193 22
4194 17
4195 1
4196 28
4197 20
4198 30
4199 37
4200 9
4201 19
4202 15
4203 34
4204 5
4205 5
4206 12
4207 2
4208 46
4209 17
4210 40
4211 1
4212 17
4213 15
4214 4
4215 22
4216 17
4217 30
4218 15
4219 1
4220 17
4221 5
4222 22
4223 1
4224 15
4225 1
4226 27
4227 47
4228 30
4229 15
4230 1
4231 4
4232 27
4233 45
4234 28
4235 15
4236 45
4237 1
4238 30
4239 1
4240 30
4241 20
4242 2
4243 6
4244 19
4245 40
4246 15
4247 22
4248 28
4249 5
4250 37
4251 45
4252 45
4253 5
4254 24
4255 51
4256 28
4257 15
4258 43
4259 18
4260 9
4261 5
4262 55
4263 22
4264 35
4265 15
4266 42
4267 30
4268 15
4269 34
4270 30
4271 2
4272 30
4273 17
4274 6
4275 18
4276 9
4277 42
4278 17
4279 5
4280 2
4281 36
4282 36
4283 4
4284 22
4285 2
4286 28
4287 7
4288 45
4289 17
4290 17
4291 2
4292 8
4293 34
4294 1
4295 19
4296 1
4297 4
4298 22
4299 30
4300 30
4301 18
4302 34
4303 17
4304 22
4305 19
4306 49
4307 34
4308 7
4309 34
4310 36
4311 20
4312 22
4313 45
4314 51
4315 15
4316 15
4317 1
4318 19
4319 19
4320 36
4321 2
4322 42
4323 19
4324 30
4325 15
4326 36
4327 18
4328 19
4329 34
4330 43
4331 22
4332 22
4333 4
4334 17
4335 8
4336 22
4337 2
4338 34
4339 30
4340 34
4341 22
4342 30
4343 32
4344 7
4345 18
4346 22
4347 2
4348 36
4349 20
4350 20
4351 15
4352 20
4353 42
4354 6
4355 15
4356 36
4357 41
4358 18
4359 27
4360 36
4361 38
4362 17
4363 0
4364 36
4365 29
4366 26
4367 7
4368 12
4369 36
4370 15
4371 43
4372 7
4373 30
4374 46
4375 17
4376 45
4377 2
4378 15
4379 20
4380 22
4381 16
4382 34
4383 16
4384 2
4385 4
4386 17
4387 30
4388 22
4389 41
4390 22
4391 17
4392 30
4393 53
4394 32
4395 30
4396 44
4397 30
4398 34
4399 14
4400 17
4401 4
4402 2
4403 50
4404 30
4405 36
4406 15
4407 5
4408 34
4409 7
4410 20
4411 14
4412 20
4413 15
4414 19
4415 30
4416 40
4417 22
4418 30
4419 28
4420 15
4421 34
4422 2
4423 19
4424 2
4425 2
4426 15
4427 22
4428 5
4429 30
4430 42
4431 4
4432 14
4433 5
4434 22
4435 5
4436 22
4437 3
4438 27
4439 30
4440 27
4441 22
4442 20
4443 6
4444 15
4445 30
4446 30
4447 15
4448 26
4449 32
4450 7
4451 26
4452 24
4453 1
4454 2
4455 36
4456 2
4457 2
4458 19
4459 22
4460 36
4461 30
4462 2
4463 36
4464 20
4465 32
4466 36
4467 30
4468 17
4469 46
4470 17
4471 9
4472 34
4473 25
4474 2
4475 16
4476 15
4477 21
4478 18
4479 34
4480 5
4481 22
4482 15
4483 30
4484 4
4485 31
4486 28
4487 4
4488 22
4489 30
4490 36
4491 26
4492 35
4493 2
4494 46
4495 22
4496 22
4497 22
4498 1
4499 30
4500 1
4501 34
4502 20
4503 5
4504 1
4505 4
4506 1
4507 6
4508 15
4509 33
4510 4
4511 55
4512 11
4513 4
4514 15
4515 30
4516 51
4517 30
4518 2
4519 19
4520 34
4521 36
4522 35
4523 1
4524 22
4525 30
4526 30
4527 5
4528 8
4529 4
4530 5
4531 17
4532 8
4533 15
4534 37
4535 15
4536 24
4537 1
4538 30
4539 24
4540 4
4541 37
4542 15
4543 22
4544 4
4545 24
4546 45
4547 4
4548 43
4549 23
4550 5
4551 5
4552 34
4553 15
4554 4
4555 27
4556 30
4557 1
4558 20
4559 17
4560 31
4561 1
4562 14
4563 36
4564 5
4565 5
4566 22
4567 20
4568 4
4569 30
4570 5
4571 4
4572 19
4573 1
4574 28
4575 26
4576 29
4577 15
4578 28
4579 34
4580 18
4581 1
4582 2
4583 12
4584 1
4585 1
4586 48
4587 30
4588 1
4589 36
4590 49
4591 4
4592 2
4593 31
4594 37
4595 4
4596 23
4597 28
4598 17
4599 30
4600 28
4601 2
4602 2
4603 17
4604 13
4605 19
4606 5
4607 1
4608 4
4609 34
4610 0
4611 2
4612 1
4613 31
4614 19
4615 22
4616 15
4617 5
4618 14
4619 19
4620 24
4621 1
4622 4
4623 22
4624 30
4625 5
4626 5
4627 1
4628 19
4629 1
4630 19
4631 22
4632 1
4633 22
4634 4
4635 19
4636 30
4637 30
4638 5
4639 14
4640 30
4641 5
4642 1
4643 1
4644 28
4645 22
4646 4
4647 19
4648 4
4649 5
4650 26
4651 4
4652 33
4653 49
4654 29
4655 31
4656 31
4657 5
4658 5
4659 14
4660 17
4661 22
4662 6
4663 4
4664 20
4665 15
4666 5
4667 1
4668 19
4669 19
4670 4
4671 15
4672 2
4673 28
4674 26
4675 30
4676 4
4677 2
4678 27
4679 4
4680 31
4681 22
4682 28
4683 5
4684 1
4685 5
4686 42
4687 45
4688 19
4689 5
4690 7
4691 20
4692 4
4693 42
4694 1
4695 1
4696 22
4697 4
4698 5
4699 42
4700 40
4701 5
4702 28
4703 5
4704 19
4705 8
4706 8
4707 34
4708 4
4709 22
4710 5
4711 6
4712 15
4713 14
4714 14
4715 1
4716 1
4717 15
4718 2
4719 19
4720 15
4721 18
4722 1
4723 15
4724 4
4725 19
4726 1
4727 45
4728 34
4729 28
4730 31
4731 26
4732 4
4733 5
4734 19
4735 12
4736 4
4737 1
4738 14
4739 15
4740 17
4741 19
4742 5
4743 4
4744 5
4745 28
4746 28
4747 4
4748 42
4749 17
4750 35
4751 22
4752 7
4753 5
4754 27
4755 5
4756 0
4757 27
4758 5
4759 34
4760 1
4761 4
4762 40
4763 17
4764 6
4765 5
4766 5
4767 45
4768 5
4769 49
4770 30
4771 47
4772 15
4773 5
4774 36
4775 28
4776 22
4777 1
4778 4
4779 30
4780 5
4781 15
4782 2
4783 42
4784 28
4785 23
4786 15
4787 1
4788 19
4789 4
4790 1
4791 1
4792 15
4793 4
4794 30
4795 26
4796 5
4797 19
4798 19
4799 22
4800 23
4801 1
4802 30
4803 1
4804 4
4805 19
4806 5
4807 45
4808 4
4809 17
4810 22
4811 19
4812 43
4813 22
4814 19
4815 19
4816 28
4817 13
4818 34
4819 40
4820 17
4821 5
4822 4
4823 42
4824 19
4825 17
4826 29
4827 45
4828 14
4829 5
4830 40
4831 18
4832 19
4833 8
4834 4
4835 5
4836 5
4837 17
4838 27
4839 17
4840 34
4841 2
4842 17
4843 1
4844 5
4845 17
4846 1
4847 17
4848 5
4849 5
4850 5
4851 15
4852 43
4853 19
4854 22
4855 15
4856 17
4857 4
4858 22
4859 17
4860 5
4861 30
4862 30
4863 17
4864 15
4865 4
4866 15
4867 46
4868 4
4869 19
4870 40
4871 30
4872 17
4873 30
4874 40
4875 4
4876 5
4877 17
4878 30
4879 4
4880 0
4881 19
4882 4
4883 5
4884 4
4885 42
4886 38
4887 19
4888 19
4889 28
4890 4
4891 1
4892 17
4893 5
4894 19
4895 15
4896 30
4897 19
4898 17
4899 38
4900 4
4901 55
4902 14
4903 5
4904 14
4905 0
4906 42
4907 5
4908 5
4909 2
4910 4
4911 30
4912 19
4913 18
4914 5
4915 4
4916 5
4917 4
4918 22
4919 30
4920 49
4921 5
4922 5
4923 17
4924 3
4925 22
4926 15
4927 28
4928 19
4929 5
4930 7
4931 49
4932 4
4933 2
4934 42
4935 5
4936 37
4937 15
4938 1
4939 30
4940 25
4941 4
4942 47
4943 4
4944 30
4945 30
4946 20
4947 4
4948 24
4949 43
4950 19
4951 5
4952 19
4953 5
4954 19
4955 6
4956 26
4957 1
4958 5
4959 26
4960 4
4961 1
4962 1
4963 20
4964 41
4965 24
4966 46
4967 1
4968 17
4969 17
4970 45
4971 17
4972 20
4973 22
4974 1
4975 5
4976 30
4977 17
4978 18
4979 31
4980 1
4981 19
4982 4
4983 16
4984 17
4985 1
4986 1
4987 28
4988 19
4989 40
4990 30
4991 19
4992 15
4993 5
4994 1
4995 17
4996 22
4997 45
4998 17
4999 17
5000 5
5001 5
5002 26
5003 15
5004 15
5005 15
5006 19
5007 19
5008 31
5009 8
5010 22
5011 36
5012 5
5013 51
5014 15
5015 2
5016 5
5017 9
5018 14
5019 15
5020 14
5021 15
5022 1
5023 5
5024 46
5025 5
5026 4
5027 20
5028 28
5029 5
5030 1
5031 4
5032 2
5033 4
5034 4
5035 30
5036 4
5037 19
5038 2
5039 16
5040 24
5041 42
5042 30
5043 19
5044 42
5045 5
5046 28
5047 17
5048 50
5049 27
5050 16
5051 45
5052 1
5053 31
5054 30
5055 5
5056 30
5057 22
5058 8
5059 5
5060 28
5061 5
5062 6
5063 17
5064 17
5065 14
5066 4
5067 16
5068 4
5069 15
5070 28
5071 7
5072 19
5073 19
5074 19
5075 6
5076 20
5077 18
5078 5
5079 1
5080 28
5081 19
5082 28
5083 38
5084 30
5085 5
5086 18
5087 4
5088 19
5089 12
5090 15
5091 36
5092 5
5093 31
5094 5
5095 28
5096 20
5097 5
5098 31
5099 20
5100 0
5101 4
5102 30
5103 22
5104 30
5105 6
5106 30
5107 19
5108 17
5109 22
5110 41
5111 16
5112 20
5113 4
5114 4
5115 28
5116 0
5117 4
5118 4
5119 19
5120 18
5121 17
5122 22
5123 28
5124 19
5125 22
5126 46
5127 2
5128 12
5129 19
5130 37
5131 29
5132 19
5133 14
5134 30
5135 19
5136 5
5137 30
5138 5
5139 4
5140 22
5141 22
5142 4
5143 17
5144 4
5145 1
5146 8
5147 20
5148 19
5149 19
5150 5
5151 5
5152 18
5153 38
5154 5
5155 21
5156 2
5157 5
5158 49
5159 40
5160 2
5161 30
5162 2
5163 30
5164 30
5165 40
5166 30
5167 34
5168 20
5169 17
5170 29
5171 17
5172 53
5173 4
5174 7
5175 19
5176 2
5177 18
5178 6
5179 19
5180 30
5181 4
5182 19
5183 6
5184 18
5185 30
5186 17
5187 1
5188 17
5189 30
5190 17
5191 22
5192 35
5193 24
5194 4
5195 38
5196 15
5197 17
5198 4
5199 1
5200 1
5201 30
5202 5
5203 17
5204 17
5205 30
5206 5
5207 8
5208 8
5209 30
5210 30
5211 22
5212 18
5213 41
5214 17
5215 5
5216 50
5217 4
5218 4
5219 4
5220 17
5221 37
5222 17
5223 19
5224 19
5225 19
5226 27
5227 34
5228 19
5229 1
5230 5
5231 19
5232 17
5233 30
5234 20
5235 16
5236 19
5237 19
5238 17
5239 28
5240 28
5241 19
5242 26
5243 28
5244 5
5245 5
5246 23
5247 12
5248 46
5249 36
5250 17
5251 30
5252 47
5253 19
5254 34
5255 1
5256 17
5257 19
5258 51
5259 21
5260 10
5261 5
5262 5
5263 34
5264 0
5265 30
5266 34
5267 5
5268 23
5269 30
5270 36
5271 17
5272 17
5273 19
5274 34
5275 34
5276 22
5277 5
5278 1
5279 45
5280 14
5281 20
5282 19
5283 1
5284 1
5285 17
5286 5
5287 7
5288 17
5289 34
5290 36
5291 4
5292 34
5293 1
5294 15
5295 34
5296 26
5297 49
5298 20
5299 40
5300 17
5301 1
5302 14
5303 5
5304 5
5305 17
5306 32
5307 34
5308 34
5309 4
5310 34
5311 5
5312 4
5313 1
5314 17
5315 4
5316 4
5317 7
5318 5
5319 5
5320 34
5321 5
5322 28
5323 36
5324 17
5325 44
5326 1
5327 6
5328 17
5329 24
5330 19
5331 45
5332 34
5333 2
5334 6
5335 34
5336 34
5337 6
5338 5
5339 5
5340 17
5341 45
5342 5
5343 1
5344 34
5345 31
5346 1
5347 55
5348 15
5349 4
5350 19
5351 17
5352 14
5353 22
5354 19
5355 12
5356 19
5357 4
5358 17
5359 42
5360 17
5361 34
5362 19
5363 17
5364 8
5365 30
5366 42
5367 5
5368 19
5369 17
5370 34
5371 29
5372 19
5373 19
5374 22
5375 20
5376 17
5377 17
5378 17
5379 30
5380 17
5381 17
5382 34
5383 5
5384 1
5385 9
5386 49
5387 19
5388 2
5389 34
5390 30
5391 36
5392 30
5393 19
5394 2
5395 45
5396 36
5397 5
5398 5
5399 4
5400 5
5401 14
5402 30
5403 17
5404 5
5405 17
5406 32
5407 5
5408 19
5409 34
5410 17
5411 19
5412 49
5413 19
5414 19
5415 15
5416 34
5417 34
5418 17
5419 2
5420 45
5421 1
5422 17
5423 4
5424 2
5425 28
5426 16
5427 5
5428 16
5429 19
5430 18
5431 34
5432 17
5433 4
5434 5
5435 5
5436 14
5437 1
5438 2
5439 32
5440 26
5441 17
5442 5
5443 17
5444 2
5445 17
5446 19
5447 19
5448 18
5449 5
5450 19
5451 26
5452 2
5453 2
5454 16
5455 30
5456 19
5457 1
5458 17
5459 12
5460 17
5461 30
5462 34
5463 2
5464 17
5465 1
5466 19
5467 34
5468 19
5469 5
5470 15
5471 17
5472 34
5473 36
5474 30
5475 19
5476 24
5477 30
5478 19
5479 22
5480 27
5481 24
5482 5
5483 34
5484 30
5485 14
5486 21
5487 15
5488 20
5489 4
5490 4
5491 12
5492 22
5493 1
5494 47
5495 5
5496 2
5497 5
5498 34
5499 19
5500 4
5501 22
5502 30
5503 5
5504 36
5505 17
5506 30
5507 4
5508 1
5509 12
5510 4
5511 30
5512 2
5513 26
5514 19
5515 17
5516 34
5517 27
5518 30
5519 43
5520 17
5521 4
5522 4
5523 34
5524 19
5525 12
5526 17
5527 4
5528 26
5529 34
5530 19
5531 5
5532 17
5533 19
5534 36
5535 14
5536 34
5537 19
5538 27
5539 4
5540 22
5541 4
5542 2
5543 14
5544 39
5545 53
5546 24
5547 45
5548 17
5549 6
5550 17
5551 14
5552 17
5553 5
5554 19
5555 30
5556 2
5557 4
5558 14
5559 30
5560 19
5561 17
5562 14
5563 4
5564 2
5565 5
5566 54
5567 34
5568 15
5569 1
5570 34
5571 30
5572 2
5573 8
5574 5
5575 19
5576 17
5577 19
5578 4
5579 24
5580 30
5581 1
5582 34
5583 5
5584 28
5585 30
5586 2
5587 15
5588 2
5589 6
5590 28
5591 26
5592 4
5593 28
5594 4
5595 19
5596 34
5597 4
5598 29
5599 10
5600 15
5601 36
5602 19
5603 15
5604 22
5605 2
5606 17
5607 5
5608 4
5609 15
5610 6
5611 18
5612 26
5613 15
5614 26
5615 30
5616 19
5617 2
5618 5
5619 17
5620 17
5621 24
5622 15
5623 5
5624 19
5625 17
5626 2
5627 4
5628 2
5629 5
5630 31
5631 5
5632 30
5633 1
5634 2
5635 22
5636 22
5637 30
5638 28
5639 17
5640 17
5641 30
5642 17
5643 15
5644 36
5645 25
5646 15
5647 19
5648 17
5649 37
5650 14
5651 20
5652 40
5653 5
5654 22
5655 17
5656 18
5657 30
5658 15
5659 34
5660 11
5661 14
5662 2
5663 12
5664 4
5665 34
5666 5
5667 5
5668 22
5669 30
5670 22
5671 34
5672 34
5673 0
5674 19
5675 19
5676 40
5677 45
5678 18
5679 4
5680 34
5681 34
5682 30
5683 2
5684 30
5685 34
5686 40
5687 34
5688 24
5689 4
5690 4
5691 17
5692 22
5693 15
5694 19
5695 34
5696 19
5697 1
5698 2
5699 2
5700 30
5701 1
5702 17
5703 19
5704 34
5705 34
5706 34
5707 30
5708 19
5709 17
5710 2
5711 22
5712 4
5713 2
5714 2
5715 26
5716 3
5717 20
5718 5
5719 5
5720 19
5721 15
5722 5
5723 5
5724 0
5725 22
5726 15
5727 22
5728 34
5729 1
5730 5
5731 22
5732 0
5733 19
5734 19
5735 15
5736 42
5737 4
5738 17
5739 5
5740 19
5741 22
5742 46
5743 1
5744 19
5745 17
5746 12
5747 17
5748 22
5749 17
5750 2
5751 2
5752 20
5753 19
5754 5
5755 34
5756 4
5757 2
5758 5
5759 5
5760 22
5761 17
5762 45
5763 17
5764 34
5765 22
5766 14
5767 30
5768 34
5769 2
5770 19
5771 20
5772 5
5773 34
5774 30
5775 30
5776 34
5777 18
5778 17
5779 2
5780 22
5781 4
5782 1
5783 22
5784 5
5785 5
5786 34
5787 37
5788 42
5789 22
5790 22
5791 5
5792 34
5793 2
5794 28
5795 19
5796 19
5797 5
5798 22
5799 5
5800 22
5801 30
5802 34
5803 15
5804 24
5805 5
5806 17
5807 2
5808 30
5809 17
5810 22
5811 5
5812 34
5813 15
5814 28
5815 22
5816 36
5817 1
5818 22
5819 17
5820 34
5821 2
5822 19
5823 4
5824 39
5825 19
5826 45
5827 2
5828 20
5829 2
5830 34
5831 19
5832 34
5833 14
5834 19
5835 15
5836 22
5837 28
5838 19
5839 4
5840 28
5841 23
5842 17
5843 5
5844 30
5845 34
5846 5
5847 2
5848 44
5849 19
5850 28
5851 4
5852 28
5853 15
5854 28
5855 5
5856 30
5857 5
5858 5
5859 15
5860 17
5861 2
5862 31
5863 5
5864 34
5865 15
5866 17
5867 1
5868 4
5869 17
5870 5
5871 5
5872 17
5873 34
5874 22
5875 34
5876 5
5877 17
5878 22
5879 34
5880 34
5881 19
5882 5
5883 2
5884 19
5885 19
5886 4
5887 24
5888 4
5889 34
5890 19
5891 1
5892 30
5893 2
5894 5
5895 34
5896 19
5897 37
5898 22
5899 40
5900 17
5901 2
5902 4
5903 2
5904 34
5905 40
5906 30
5907 22
5908 22
5909 19
5910 26
5911 34
5912 2
5913 22
5914 5
5915 4
5916 19
5917 28
5918 40
5919 19
5920 40
5921 34
5922 1
5923 2
5924 17
5925 7
5926 19
5927 22
5928 22
5929 4
5930 5
5931 15
5932 40
5933 15
5934 4
5935 30
5936 5
5937 2
5938 15
5939 1
5940 1
5941 2
5942 28
5943 45
5944 15
5945 34
5946 26
5947 2
5948 7
5949 5
5950 15
5951 34
5952 19
5953 15
5954 34
5955 17
5956 4
5957 45
5958 19
5959 15
5960 20
5961 34
5962 17
5963 15
5964 19
5965 15
5966 30
5967 17
5968 4
5969 2
5970 31
5971 2
5972 34
5973 17
5974 5
5975 4
5976 30
5977 17
5978 32
5979 2
5980 22
5981 26
5982 19
5983 15
5984 15
5985 5
5986 19
5987 22
5988 15
5989 12
5990 17
5991 4
5992 30
5993 17
5994 19
5995 4
5996 34
5997 34
5998 5
5999 2
6000 2
6001 19
6002 43
6003 2
6004 17
6005 5
6006 35
6007 19
6008 45
6009 22
6010 19
6011 5
6012 15
6013 4
6014 33
6015 17
6016 20
6017 15
6018 1
6019 15
6020 15
6021 22
6022 15
6023 42
6024 2
6025 22
6026 2
6027 4
6028 14
6029 14
6030 5
6031 45
6032 2
6033 28
6034 5
6035 30
6036 34
6037 4
6038 22
6039 34
6040 5
6041 22
6042 30
6043 4
6044 14
6045 30
6046 17
6047 22
6048 22
6049 30
6050 32
6051 5
6052 49
6053 22
6054 22
6055 2
6056 2
6057 5
6058 1
6059 34
6060 2
6061 1
6062 24
6063 15
6064 45
6065 19
6066 5
6067 4
6068 36
6069 17
6070 17
6071 34
6072 34
6073 4
6074 15
6075 2
6076 5
6077 17
6078 19
6079 17
6080 34
6081 1
6082 6
6083 15
6084 17
6085 19
6086 28
6087 1
6088 22
6089 15
6090 30
6091 4
6092 34
6093 2
6094 22
6095 22
6096 5
6097 17
6098 27
6099 17
6100 34
6101 18
6102 19
6103 22
6104 30
6105 5
6106 19
6107 5
6108 30
6109 15
6110 17
6111 22
6112 17
6113 15
6114 19
6115 18
6116 5
6117 34
6118 5
6119 30
6120 5
6121 17
6122 30
6123 12
6124 30
6125 34
6126 34
6127 22
6128 30
6129 15
6130 34
6131 15
6132 1
6133 5
6134 15
6135 34
6136 22
6137 2
6138 22
6139 2
6140 2
6141 8
6142 4
6143 22
6144 15
6145 23
6146 22
6147 22
6148 15
6149 1
6150 17
6151 20
6152 51
6153 8
6154 0
6155 17
6156 6
6157 15
6158 30
6159 15
6160 30
6161 30
6162 20
6163 22
6164 15
6165 30
6166 51
6167 5
6168 38
6169 5
6170 28
6171 38
6172 14
6173 49
6174 30
6175 6
6176 30
6177 30
6178 2
6179 38
6180 22
6181 30
6182 2
6183 18
6184 22
6185 36
6186 1
6187 30
6188 17
6189 17
6190 18
6191 22
6192 22
6193 5
6194 20
6195 4
6196 30
6197 17
6198 33
6199 15
6200 30
6201 30
6202 19
6203 20
6204 37
6205 1
6206 22
6207 15
6208 30
6209 35
6210 34
6211 30
6212 20
6213 0
6214 14
6215 51
6216 5
6217 6
6218 29
6219 37
6220 17
6221 2
6222 30
6223 1
6224 40
6225 28
6226 1
6227 30
6228 42
6229 35
6230 17
6231 14
6232 17
6233 17
6234 19
6235 22
6236 30
6237 6
6238 30
6239 30
6240 38
6241 34
6242 4
6243 24
6244 2
6245 4
6246 17
6247 30
6248 34
6249 24
6250 1
6251 4
6252 27
6253 27
6254 19
6255 47
6256 15
6257 17
6258 30
6259 6
6260 34
6261 42
6262 15
6263 15
6264 22
6265 22
6266 15
6267 2
6268 17
6269 6
6270 18
6271 19
6272 1
6273 30
6274 25
6275 5
6276 20
6277 24
6278 27
6279 30
6280 26
6281 15
6282 6
6283 35
6284 4
6285 46
6286 19
6287 15
6288 28
6289 22
6290 2
6291 20
6292 18
6293 30
6294 17
6295 30
6296 11
6297 30
6298 30
6299 37
6300 27
6301 22
6302 30
6303 45
6304 17
6305 22
6306 30
6307 15
6308 26
6309 5
6310 18
6311 34
6312 30
6313 15
6314 30
6315 32
6316 15
6317 45
6318 34
6319 17
6320 17
6321 2
6322 20
6323 18
6324 30
6325 27
6326 30
6327 1
6328 1
6329 45
6330 5
6331 34
6332 34
6333 20
6334 19
6335 28
6336 17
6337 40
6338 7
6339 2
6340 18
6341 6
6342 5
6343 18
6344 15
6345 15
6346 30
6347 15
6348 5
6349 20
6350 40
6351 41
6352 8
6353 45
6354 55
6355 31
6356 17
6357 32
6358 20
6359 17
6360 38
6361 40
6362 40
6363 30
6364 48
6365 18
6366 1
6367 17
6368 22
6369 22
6370 15
6371 40
6372 6
6373 43
6374 6
6375 54
6376 17
6377 22
6378 18
6379 7
6380 4
6381 19
6382 5
6383 19
6384 5
6385 28
6386 2
6387 22
6388 1
6389 36
6390 32
6391 6
6392 1
6393 53
6394 23
6395 51
6396 5
6397 36
6398 28
6399 38
6400 30
6401 15
6402 5
6403 7
6404 1
6405 5
6406 36
6407 2
6408 5
6409 42
6410 36
6411 30
6412 15
6413 15
6414 34
6415 49
6416 20
6417 17
6418 15
6419 1
6420 2
6421 30
6422 22
6423 6
6424 55
6425 30
6426 30
6427 2
6428 18
6429 2
6430 14
6431 43
6432 34
6433 29
6434 17
6435 2
6436 15
6437 34
6438 1
6439 30
6440 45
6441 41
6442 22
6443 20
6444 22
6445 45
6446 5
6447 2
6448 22
6449 27
6450 4
6451 34
6452 1
6453 47
6454 34
6455 36
6456 1
6457 18
6458 2
6459 30
6460 30
6461 19
6462 47
6463 34
6464 32
6465 36
6466 26
6467 17
6468 30
6469 20
6470 14
6471 1
6472 42
6473 26
6474 22
6475 19
6476 11
6477 50
6478 41
6479 22
6480 28
6481 30
6482 30
6483 20
6484 17
6485 30
6486 47
6487 32
6488 39
6489 30
6490 28
6491 1
6492 24
6493 24
6494 47
6495 51
6496 24
6497 24
6498 16
6499 35
6500 12
6501 1
6502 20
6503 33
6504 10
6505 46
6506 7
6507 40
6508 16
6509 5
6510 30
6511 14
6512 6
6513 15
6514 0
6515 8
6516 26
6517 46
6518 30
6519 17
6520 31
6521 17
6522 24
6523 4
6524 30
6525 43
6526 5
6527 14
6528 25
6529 20
6530 9
6531 4
6532 17
6533 14
6534 24
6535 4
6536 34
6537 24
6538 26
6539 37
6540 15
6541 26
6542 34
6543 23
6544 22
6545 24
6546 15
6547 1
6548 2
6549 2
6550 26
6551 14
6552 26
6553 5
6554 5
6555 30
6556 20
6557 49
6558 15
6559 22
6560 20
6561 15
6562 30
6563 53
6564 17
6565 37
6566 28
6567 30
6568 4
6569 37
6570 30
6571 18
6572 23
6573 15
6574 22
6575 30
6576 18
6577 38
6578 22
6579 20
6580 14
6581 30
6582 1
6583 4
6584 5
6585 17
6586 4
6587 5
6588 2
6589 24
6590 4
6591 30
6592 2
6593 5
6594 4
6595 22
6596 4
6597 30
6598 1
6599 36
6600 14
6601 1
6602 43
6603 25
6604 1
6605 38
6606 5
6607 14
6608 5
6609 17
6610 24
6611 2
6612 38
6613 41
6614 1
6615 4
6616 28
6617 5
6618 46
6619 15
6620 10
6621 2
6622 27
6623 2
6624 52
6625 36
6626 4
6627 14
6628 2
6629 1
6630 5
6631 1
6632 4
6633 38
6634 23
6635 15
6636 28
6637 5
6638 14
6639 4
6640 5
6641 17
6642 27
6643 26
6644 51
6645 36
6646 0
6647 30
6648 4
6649 19
6650 19
6651 15
6652 34
6653 5
6654 4
6655 4
6656 19
6657 4
6658 17
6659 4
6660 28
6661 15
6662 30
6663 1
6664 5
6665 19
6666 19
6667 52
6668 19
6669 5
6670 5
6671 40
6672 28
6673 1
6674 30
6675 19
6676 5
6677 30
6678 17
6679 30
6680 20
6681 26
6682 5
6683 45
6684 36
6685 18
6686 5
6687 4
6688 19
6689 30
6690 4
6691 19
6692 30
6693 13
6694 18
6695 28
6696 28
6697 2
6698 40
6699 31
6700 15
6701 4
6702 19
6703 45
6704 30
6705 49
6706 5
6707 4
6708 15
6709 1
6710 30
6711 5
6712 1
6713 40
6714 1
6715 30
6716 19
6717 19
6718 22
6719 15
6720 19
6721 4
6722 2
6723 26
6724 5
6725 5
6726 24
6727 30
6728 22
6729 19
6730 4
6731 19
6732 26
6733 19
6734 4
6735 34
6736 4
6737 15
6738 19
6739 15
6740 24
6741 5
6742 30
6743 19
6744 40
6745 13
6746 24
6747 22
6748 35
6749 5
6750 1
6751 26
6752 1
6753 34
6754 22
6755 2
6756 15
6757 19
6758 36
6759 4
6760 17
6761 19
6762 28
6763 46
6764 15
6765 26
6766 2
6767 34
6768 17
6769 2
6770 37
6771 42
6772 19
6773 5
6774 24
6775 1
6776 5
6777 36
6778 14
6779 5
6780 28
6781 22
6782 22
6783 1
6784 45
6785 28
6786 5
6787 22
6788 1
6789 22
6790 45
6791 2
6792 15
6793 37
6794 51
6795 45
6796 15
6797 34
6798 5
6799 4
6800 1
6801 47
6802 19
6803 5
6804 19
6805 30
6806 27
6807 22
6808 40
6809 37
6810 19
6811 19
6812 30
6813 14
6814 30
6815 39
6816 40
6817 55
6818 14
6819 5
6820 28
6821 22
6822 17
6823 19
6824 22
6825 26
6826 6
6827 31
6828 19
6829 19
6830 4
6831 17
6832 19
6833 32
6834 30
6835 40
6836 40
6837 47
6838 20
6839 19
6840 16
6841 28
6842 14
6843 28
6844 45
6845 24
6846 42
6847 24
6848 26
6849 19
6850 34
6851 17
6852 4
6853 15
6854 4
6855 33
6856 1
6857 4
6858 30
6859 5
6860 5
6861 31
6862 4
6863 5
6864 2
6865 4
6866 2
6867 2
6868 17
6869 37
6870 30
6871 17
6872 30
6873 14
6874 35
6875 1
6876 30
6877 24
6878 17
6879 30
6880 19
6881 19
6882 2
6883 17
6884 30
6885 45
6886 2
6887 15
6888 19
6889 28
6890 17
6891 1
6892 15
6893 17
6894 16
6895 34
6896 40
6897 5
6898 4
6899 17
6900 30
6901 5
6902 26
6903 17
6904 17
6905 19
6906 30
6907 34
6908 8
6909 48
6910 17
6911 46
6912 35
6913 4
6914 1
6915 1
6916 15
6917 39
6918 19
6919 4
6920 17
6921 17
6922 4
6923 2
6924 26
6925 17
6926 5
6927 5
6928 4
6929 22
6930 22
6931 1
6932 16
6933 17
6934 5
6935 17
6936 9
6937 17
6938 28
6939 5
6940 15
6941 19
6942 40
6943 4
6944 5
6945 30
6946 5
6947 15
6948 17
6949 28
6950 5
6951 17
6952 41
6953 24
6954 5
6955 5
6956 26
6957 4
6958 2
6959 28
6960 5
6961 5
6962 4
6963 15
6964 19
6965 28
6966 17
6967 5
6968 30
6969 1
6970 17
6971 5
6972 22
6973 30
6974 22
6975 17
6976 22
6977 23
6978 2
6979 14
6980 5
6981 34
6982 4
6983 24
6984 17
6985 5
6986 28
6987 17
6988 15
6989 20
6990 19
6991 20
6992 17
6993 17
6994 17
6995 5
6996 19
6997 5
6998 17
6999 52
7000 4
7001 30
7002 17
7003 19
7004 4
7005 43
7006 1
7007 2
7008 31
7009 24
7010 4
7011 30
7012 24
7013 46
7014 4
7015 43
7016 19
7017 4
7018 30
7019 0
7020 19
7021 30
7022 17
7023 5
7024 1
7025 31
7026 17
7027 15
7028 17
7029 1
7030 1
7031 17
7032 1
7033 4
7034 30
7035 34
7036 19
7037 1
7038 20
7039 19
7040 1
7041 24
7042 1
7043 22
7044 5
7045 17
7046 15
7047 30
7048 4
7049 21
7050 17
7051 10
7052 26
7053 31
7054 40
7055 5
7056 5
7057 19
7058 19
7059 5
7060 17
7061 19
7062 1
7063 15
7064 5
7065 30
7066 19
7067 22
7068 5
7069 2
7070 19
7071 47
7072 30
7073 18
7074 17
7075 5
7076 40
7077 4
7078 15
7079 20
7080 40
7081 17
7082 34
7083 1
7084 17
7085 15
7086 30
7087 31
7088 16
7089 17
7090 19
7091 17
7092 2
7093 1
7094 17
7095 3
7096 51
7097 30
7098 31
7099 5
7100 0
7101 4
7102 3
7103 19
7104 30
7105 19
7106 20
7107 1
7108 19
7109 22
7110 6
7111 19
7112 4
7113 19
7114 19
7115 18
7116 30
7117 5
7118 36
7119 28
7120 30
7121 1
7122 15
7123 19
7124 19
7125 20
7126 5
7127 14
7128 1
7129 5
7130 10
7131 5
7132 19
7133 43
7134 4
7135 19
7136 17
7137 4
7138 4
7139 17
7140 51
7141 4
7142 4
7143 20
7144 17
7145 42
7146 6
7147 30
7148 4
7149 28
7150 19
7151 2
7152 19
7153 43
7154 2
7155 2
7156 20
7157 19
7158 19
7159 5
7160 5
7161 5
7162 4
7163 5
7164 27
7165 19
7166 17
7167 28
7168 5
7169 17
7170 50
7171 4
7172 19
7173 4
7174 5
7175 24
7176 17
7177 30
7178 4
7179 31
7180 18
7181 19
7182 51
7183 4
7184 1
7185 19
7186 4
7187 5
7188 34
7189 30
7190 17
7191 36
7192 21
7193 22
7194 5
7195 30
7196 15
7197 4
7198 5
7199 5
7200 14
7201 1
7202 17
7203 17
7204 26
7205 28
7206 4
7207 17
7208 17
7209 29
7210 1
7211 28
7212 4
7213 14
7214 4
7215 19
7216 19
7217 27
7218 52
7219 18
7220 20
7221 4
7222 22
7223 27
7224 17
7225 17
7226 22
7227 1
7228 30
7229 28
7230 6
7231 30
7232 30
7233 4
7234 17
7235 17
7236 22
7237 37
7238 41
7239 19
7240 15
7241 41
7242 1
7243 1
7244 1
7245 30
7246 30
7247 35
7248 17
7249 1
7250 20
7251 2
7252 19
7253 5
7254 5
7255 17
7256 17
7257 17
7258 27
7259 17
7260 19
7261 42
7262 19
7263 19
7264 19
7265 30
7266 19
7267 5
7268 36
7269 45
7270 30
7271 19
7272 30
7273 1
7274 16
7275 0
7276 1
7277 1
7278 1
7279 30
7280 19
7281 15
7282 17
7283 43
7284 17
7285 37
7286 30
7287 1
7288 2
7289 17
7290 55
7291 17
7292 29
7293 42
7294 22
7295 5
7296 22
7297 28
7298 19
7299 2
7300 5
7301 19
7302 34
7303 6
7304 5
7305 20
7306 17
7307 19
7308 5
7309 34
7310 1
7311 24
7312 26
7313 4
7314 8
7315 34
7316 5
7317 1
7318 34
7319 34
7320 34
7321 19
7322 12
7323 19
7324 6
7325 17
7326 1
7327 16
7328 5
7329 34
7330 18
7331 6
7332 20
7333 34
7334 17
7335 36
7336 19
7337 34
7338 19
7339 47
7340 34
7341 19
7342 22
7343 30
7344 17
7345 30
7346 4
7347 44
7348 4
7349 1
7350 1
7351 17
7352 5
7353 44
7354 22
7355 30
7356 19
7357 19
7358 17
7359 30
7360 5
7361 10
7362 17
7363 5
7364 17
7365 30
7366 17
7367 1
7368 20
7369 5
7370 6
7371 1
7372 4
7373 5
7374 8
7375 22
7376 4
7377 5
7378 4
7379 30
7380 5
7381 20
7382 20
7383 34
7384 19
7385 20
7386 2
7387 15
7388 17
7389 30
7390 28
7391 4
7392 20
7393 19
7394 30
7395 42
7396 52
7397 24
7398 17
7399 22
7400 17
7401 17
7402 5
7403 4
7404 34
7405 5
7406 34
7407 43
7408 19
7409 17
7410 6
7411 4
7412 6
7413 18
7414 15
7415 48
7416 47
7417 16
7418 20
7419 5
7420 29
7421 30
7422 45
7423 30
7424 15
7425 17
7426 34
7427 4
7428 7
7429 38
7430 17
7431 34
7432 34
7433 17
7434 2
7435 27
7436 15
7437 34
7438 5
7439 1
7440 34
7441 19
7442 19
7443 28
7444 4
7445 34
7446 32
7447 17
7448 2
7449 17
7450 34
7451 6
7452 30
7453 4
7454 5
7455 19
7456 2
7457 4
7458 52
7459 4
7460 5
7461 30
7462 19
7463 19
7464 30
7465 2
7466 41
7467 5
7468 30
7469 19
7470 17
7471 33
7472 30
7473 2
7474 1
7475 43
7476 17
7477 6
7478 2
7479 15
7480 42
7481 5
7482 30
7483 23
7484 4
7485 5
7486 19
7487 32
7488 16
7489 5
7490 14
7491 19
7492 26
7493 5
7494 40
7495 5
7496 26
7497 5
7498 34
7499 19
7500 18
7501 12
7502 5
7503 17
7504 34
7505 16
7506 4
7507 18
7508 30
7509 2
7510 1
7511 34
7512 17
7513 24
7514 14
7515 4
7516 19
7517 17
7518 2
7519 4
7520 52
7521 19
7522 17
7523 34
7524 34
7525 19
7526 34
7527 17
7528 4
7529 22
7530 26
7531 30
7532 30
7533 5
7534 2
7535 5
7536 12
7537 17
7538 2
7539 6
7540 17
7541 17
7542 17
7543 4
7544 19
7545 28
7546 34
7547 47
7548 30
7549 18
7550 46
7551 18
7552 2
7553 2
7554 17
7555 2
7556 46
7557 14
7558 30
7559 17
7560 19
7561 14
7562 14
7563 30
7564 2
7565 34
7566 34
7567 26
7568 4
7569 24
7570 19
7571 30
7572 37
7573 14
7574 37
7575 34
7576 34
7577 17
7578 5
7579 2
7580 22
7581 0
7582 4
7583 17
7584 36
7585 2
7586 31
7587 34
7588 5
7589 17
7590 19
7591 19
7592 2
7593 52
7594 19
7595 17
7596 5
7597 34
7598 14
7599 4
7600 2
7601 4
7602 24
7603 4
7604 32
7605 4
7606 34
7607 20
7608 2
7609 19
7610 34
7611 14
7612 5
7613 2
7614 15
7615 19
7616 1
7617 34
7618 30
7619 34
7620 34
7621 33
7622 17
7623 19
7624 5
7625 15
7626 19
7627 30
7628 15
7629 17
7630 4
7631 20
7632 15
7633 17
7634 2
7635 0
7636 15
7637 32
7638 2
7639 36
7640 5
7641 37
7642 19
7643 17
7644 34
7645 2
7646 2
7647 5
7648 17
7649 23
7650 13
7651 2
7652 2
7653 22
7654 28
7655 4
7656 17
7657 2
7658 17
7659 4
7660 19
7661 28
7662 17
7663 34
7664 17
7665 17
7666 14
7667 28
7668 17
7669 2
7670 22
7671 17
7672 17
7673 22
7674 17
7675 36
7676 34
7677 19
7678 1
7679 22
7680 17
7681 17
7682 19
7683 30
7684 17
7685 15
7686 14
7687 5
7688 4
7689 17
7690 19
7691 28
7692 4
7693 1
7694 5
7695 5
7696 5
7697 6
7698 40
7699 21
7700 2
7701 15
7702 17
7703 15
7704 34
7705 17
7706 8
7707 5
7708 30
7709 2
7710 34
7711 5
7712 2
7713 34
7714 2
7715 2
7716 5
7717 2
7718 30
7719 17
7720 27
7721 4
7722 5
7723 19
7724 19
7725 19
7726 15
7727 28
7728 5
7729 22
7730 19
7731 17
7732 22
7733 30
7734 42
7735 5
7736 15
7737 2
7738 19
7739 22
7740 34
7741 16
7742 17
7743 22
7744 34
7745 4
7746 5
7747 5
7748 2
7749 34
7750 5
7751 22
7752 40
7753 15
7754 34
7755 15
7756 40
7757 1
7758 34
7759 30
7760 22
7761 30
7762 34
7763 19
7764 2
7765 4
7766 54
7767 34
7768 4
7769 1
7770 1
7771 19
7772 17
7773 30
7774 17
7775 22
7776 17
7777 4
7778 30
7779 22
7780 1
7781 22
7782 19
7783 18
7784 1
7785 22
7786 30
7787 5
7788 1
7789 2
7790 34
7791 2
7792 19
7793 15
7794 37
7795 4
7796 26
7797 28
7798 19
7799 22
7800 19
7801 34
7802 19
7803 24
7804 15
7805 17
7806 19
7807 19
7808 30
7809 15
7810 9
7811 28
7812 22
7813 5
7814 22
7815 10
7816 5
7817 19
7818 30
7819 2
7820 15
7821 19
7822 34
7823 2
7824 1
7825 2
7826 17
7827 4
7828 15
7829 30
7830 17
7831 19
7832 17
7833 22
7834 5
7835 22
7836 40
7837 17
7838 5
7839 19
7840 15
7841 19
7842 19
7843 18
7844 34
7845 0
7846 36
7847 19
7848 20
7849 34
7850 2
7851 19
7852 28
7853 4
7854 45
7855 15
7856 15
7857 10
7858 17
7859 19
7860 22
7861 15
7862 1
7863 2
7864 15
7865 55
7866 16
7867 5
7868 24
7869 22
7870 5
7871 15
7872 34
7873 19
7874 19
7875 30
7876 19
7877 2
7878 15
7879 22
7880 16
7881 34
7882 28
7883 34
7884 2
7885 1
7886 19
7887 26
7888 4
7889 15
7890 15
7891 46
7892 15
7893 25
7894 40
7895 17
7896 32
7897 2
7898 5
7899 5
7900 1
7901 19
7902 24
7903 2
7904 17
7905 19
7906 30
7907 17
7908 17
7909 0
7910 15
7911 19
7912 34
7913 19
7914 15
7915 16
7916 15
7917 5
7918 18
7919 15
7920 30
7921 19
7922 5
7923 15
7924 34
7925 17
7926 4
7927 30
7928 28
7929 17
7930 2
7931 34
7932 4
7933 30
7934 30
7935 19
7936 34
7937 26
7938 4
7939 22
7940 2
7941 4
7942 15
7943 22
7944 5
7945 34
7946 15
7947 2
7948 17
7949 34
7950 4
7951 17
7952 17
7953 45
7954 22
7955 22
7956 5
7957 5
7958 5
7959 14
7960 5
7961 5
7962 15
7963 19
7964 6
7965 4
7966 4
7967 32
7968 4
7969 19
7970 47
7971 1
7972 19
7973 1
7974 30
7975 11
7976 5
7977 17
7978 17
7979 2
7980 19
7981 30
7982 17
7983 17
7984 15
7985 17
7986 15
7987 22
7988 4
7989 5
7990 17
7991 6
7992 44
7993 35
7994 15
7995 15
7996 14
7997 34
7998 2
7999 17
8000 34
8001 4
8002 2
8003 22
8004 30
8005 17
8006 26
8007 24
8008 4
8009 5
8010 1
8011 4
8012 15
8013 17
8014 34
8015 4
8016 4
8017 19
8018 17
8019 31
8020 19
8021 17
8022 5
8023 30
8024 19
8025 1
8026 22
8027 1
8028 34
8029 30
8030 4
8031 4
8032 34
8033 2
8034 19
8035 28
8036 19
8037 5
8038 2
8039 29
8040 17
8041 17
8042 43
8043 5
8044 22
8045 15
8046 17
8047 5
8048 34
8049 17
8050 5
8051 34
8052 5
8053 15
8054 22
8055 34
8056 2
8057 17
8058 30
8059 15
8060 5
8061 0
8062 12
8063 22
8064 15
8065 28
8066 34
8067 15
8068 42
8069 2
8070 2
8071 15
8072 28
8073 19
8074 30
8075 34
8076 45
8077 17
8078 5
8079 1
8080 34
8081 15
8082 4
8083 15
8084 2
8085 5
8086 5
8087 34
8088 19
8089 22
8090 4
8091 15
8092 15
8093 17
8094 5
8095 34
8096 17
8097 19
8098 34
8099 5
8100 17
8101 34
8102 5
8103 2
8104 17
8105 52
8106 17
8107 5
8108 17
8109 4
8110 4
8111 15
8112 18
8113 5
8114 5
8115 28
8116 28
8117 22
8118 30
8119 5
8120 2
8121 1
8122 5
8123 30
8124 19
8125 17
8126 22
8127 4
8128 2
8129 2
8130 22
8131 5
8132 15
8133 2
8134 2
8135 45
8136 17
8137 2
8138 19
8139 22
8140 5
8141 30
8142 31
8143 5
8144 34
8145 5
8146 4
8147 17
8148 2
8149 19
8150 40
8151 5
8152 2
8153 22
8154 34
8155 5
8156 4
8157 17
8158 40
8159 17
8160 22
8161 20
8162 2
8163 34
8164 22
8165 5
8166 40
8167 22
8168 1
8169 22
8170 5
8171 22
8172 15
8173 4
8174 17
8175 5
8176 17
8177 5
8178 4
8179 34
8180 22
8181 1
8182 2
8183 15
8184 19
8185 14
8186 4
8187 4
8188 34
8189 19
8190 34
8191 45
8192 6
8193 24
8194 15
8195 34
8196 5
8197 30
8198 4
8199 17
8200 14
8201 18
8202 34
8203 34
8204 5
8205 30
8206 43
8207 15
8208 15
8209 22
8210 30
8211 0
8212 41
8213 9
8214 4
8215 22
8216 43
8217 22
8218 19
8219 16
8220 2
8221 5
8222 1
8223 11
8224 18
8225 19
8226 4
8227 7
8228 32
8229 5
8230 1
8231 15
8232 17
8233 19
8234 20
8235 6
8236 5
8237 28
8238 5
8239 4
8240 34
8241 1
8242 0
8243 26
8244 30
8245 34
8246 22
8247 5
8248 49
8249 18
8250 52
8251 5
8252 15
8253 34
8254 1
8255 30
8256 35
8257 1
8258 44
8259 4
8260 1
8261 45
8262 26
8263 29
8264 18
8265 17
8266 0
8267 20
8268 4
8269 2
8270 13
8271 15
8272 27
8273 5
8274 22
8275 12
8276 22
8277 30
8278 18
8279 49
8280 17
8281 6
8282 0
8283 17
8284 27
8285 27
8286 42
8287 5
8288 4
8289 22
8290 27
8291 2
8292 17
8293 34
8294 31
8295 46
8296 28
8297 22
8298 42
8299 30
8300 15
8301 34
8302 37
8303 36
8304 15
8305 18
8306 28
8307 36
8308 5
8309 36
8310 19
8311 1
8312 47
8313 30
8314 30
8315 2
8316 28
8317 18
8318 18
8319 34
8320 45
8321 36
8322 27
8323 7
8324 28
8325 34
8326 34
8327 2
8328 31
8329 34
8330 22
8331 27
8332 30
8333 2
8334 2
8335 23
8336 5
8337 22
8338 6
8339 5
8340 36
8341 0
8342 34
8343 27
8344 36
8345 20
8346 30
8347 30
8348 8
8349 1
8350 17
8351 20
8352 16
8353 15
8354 2
8355 36
8356 34
8357 28
8358 45
8359 34
8360 16
8361 1
8362 34
8363 27
8364 6
8365 45
8366 22
8367 27
8368 36
8369 14
8370 3
8371 30
8372 36
8373 1
8374 16
8375 22
8376 30
8377 17
8378 4
8379 45
8380 16
8381 42
8382 28
8383 19
8384 34
8385 18
8386 20
8387 40
8388 34
8389 46
8390 6
8391 5
8392 30
8393 43
8394 19
8395 51
8396 15
8397 43
8398 2
8399 46
8400 22
8401 30
8402 27
8403 0
8404 17
8405 30
8406 36
8407 1
8408 2
8409 30
8410 7
8411 30
8412 7
8413 36
8414 28
8415 30
8416 28
8417 38
8418 30
8419 2
8420 6
8421 15
8422 5
8423 7
8424 17
8425 5
8426 6
8427 45
8428 16
8429 5
8430 4
8431 18
8432 20
8433 6
8434 8
8435 40
8436 28
8437 30
8438 19
8439 20
8440 1
8441 1
8442 17
8443 5
8444 2
8445 42
8446 41
8447 30
8448 15
8449 51
8450 15
8451 2
8452 8
8453 5
8454 2
8455 1
8456 27
8457 6
8458 30
8459 40
8460 27
8461 34
8462 15
8463 4
8464 22
8465 43
8466 2
8467 15
8468 46
8469 40
8470 30
8471 18
8472 30
8473 5
8474 55
8475 30
8476 45
8477 38
8478 19
8479 5
8480 22
8481 27
8482 5
8483 2
8484 14
8485 28
8486 27
8487 34
8488 19
8489 32
8490 30
8491 30
8492 51
8493 18
8494 1
8495 8
8496 18
8497 30
8498 2
8499 43
8500 26
8501 30
8502 18
8503 5
8504 5
8505 14
8506 30
8507 28
8508 45
8509 22
8510 45
8511 14
8512 40
8513 47
8514 22
8515 47
8516 7
8517 36
8518 19
8519 19
8520 18
8521 2
8522 15
8523 46
8524 47
8525 12
8526 34
8527 15
8528 5
8529 37
8530 2
8531 15
8532 22
8533 24
8534 46
8535 25
8536 35
8537 32
8538 14
8539 21
8540 26
8541 18
8542 30
8543 5
8544 1
8545 45
8546 13
8547 1
8548 5
8549 15
8550 32
8551 2
8552 30
8553 5
8554 20
8555 15
8556 4
8557 2
8558 2
8559 37
8560 26
8561 15
8562 34
8563 35
8564 41
8565 27
8566 6
8567 7
8568 30
8569 27
8570 1
8571 2
8572 30
8573 15
8574 23
8575 30
8576 14
8577 5
8578 50
8579 30
8580 2
8581 34
8582 36
8583 25
8584 17
8585 42
8586 42
8587 34
8588 15
8589 27
8590 4
8591 1
8592 6
8593 22
8594 15
8595 34
8596 34
8597 2
8598 2
8599 15
8600 4
8601 30
8602 24
8603 8
8604 17
8605 26
8606 30
8607 4
8608 24
8609 36
8610 4
8611 30
8612 15
8613 30
8614 49
8615 30
8616 34
8617 5
8618 34
8619 30
8620 42
8621 34
8622 15
8623 24
8624 15
8625 31
8626 14
8627 30
8628 5
8629 22
8630 4
8631 5
8632 4
8633 34
8634 30
8635 52
8636 53
8637 4
8638 5
8639 1
8640 5
8641 30
8642 31
8643 36
8644 26
8645 8
8646 7
8647 5
8648 1
8649 20
8650 30
8651 45
8652 17
8653 5
8654 26
8655 47
8656 38
8657 5
8658 4
8659 8
8660 5
8661 24
8662 19
8663 17
8664 5
8665 22
8666 5
8667 43
8668 7
8669 5
8670 30
8671 18
8672 7
8673 43
8674 3
8675 42
8676 5
8677 6
8678 30
8679 22
8680 1
8681 1
8682 4
8683 36
8684 4
8685 14
8686 4
8687 24
8688 30
8689 24
8690 24
8691 22
8692 30
8693 1
8694 15
8695 34
8696 5
8697 4
8698 5
8699 5
8700 5
8701 28
8702 19
8703 1
8704 18
8705 20
8706 43
8707 19
8708 30
8709 4
8710 1
8711 17
8712 24
8713 34
8714 1
8715 26
8716 5
8717 19
8718 14
8719 40
8720 10
8721 4
8722 22
8723 30
8724 19
8725 0
8726 26
8727 30
8728 28
8729 1
8730 2
8731 4
8732 4
8733 19
8734 22
8735 1
8736 22
8737 54
8738 0
8739 19
8740 2
8741 1
8742 5
8743 1
8744 18
8745 19
8746 34
8747 5
8748 5
8749 19
8750 15
8751 0
8752 17
8753 40
8754 5
8755 1
8756 22
8757 0
8758 2
8759 2
8760 6
8761 14
8762 22
8763 2
8764 30
8765 19
8766 38
8767 2
8768 34
8769 17
8770 22
8771 12
8772 30
8773 5
8774 19
8775 5
8776 1
8777 1
8778 20
8779 4
8780 20
8781 28
8782 4
8783 1
8784 19
8785 1
8786 24
8787 28
8788 28
8789 37
8790 5
8791 19
8792 15
8793 5
8794 19
8795 28
8796 19
8797 19
8798 26
8799 4
8800 30
8801 2
8802 5
8803 4
8804 5
8805 1
8806 1
8807 36
8808 22
8809 4
8810 9
8811 5
8812 30
8813 17
8814 2
8815 8
8816 54
8817 2
8818 4
8819 30
8820 30
8821 5
8822 53
8823 36
8824 4
8825 34
8826 19
8827 19
8828 8
8829 36
8830 30
8831 19
8832 6
8833 30
8834 51
8835 15
8836 1
8837 5
8838 14
8839 40
8840 19
8841 15
8842 37
8843 5
8844 52
8845 19
8846 17
8847 22
8848 15
8849 30
8850 4
8851 5
8852 42
8853 40
8854 35
8855 5
8856 30
8857 5
8858 4
8859 19
8860 12
8861 50
8862 14
8863 39
8864 30
8865 14
8866 45
8867 28
8868 5
8869 19
8870 36
8871 40
8872 30
8873 27
8874 19
8875 19
8876 19
8877 26
8878 2
8879 2
8880 19
8881 23
8882 5
8883 2
8884 22
8885 17
8886 46
8887 5
8888 42
8889 15
8890 4
8891 4
8892 19
8893 2
8894 24
8895 19
8896 2
8897 5
8898 5
8899 30
8900 5
8901 1
8902 27
8903 27
8904 30
8905 30
8906 4
8907 30
8908 5
8909 36
8910 40
8911 45
8912 6
8913 15
8914 5
8915 22
8916 4
8917 19
8918 19
8919 30
8920 42
8921 42
8922 5
8923 22
8924 27
8925 2
8926 24
8927 2
8928 17
8929 17
8930 36
8931 40
8932 5
8933 1
8934 4
8935 19
8936 2
8937 26
8938 5
8939 28
8940 15
8941 19
8942 19
8943 19
8944 2
8945 45
8946 19
8947 17
8948 30
8949 34
8950 10
8951 34
8952 43
8953 5
8954 17
8955 26
8956 5
8957 38
8958 45
8959 1
8960 1
8961 1
8962 28
8963 36
8964 22
8965 14
8966 25
8967 55
8968 45
8969 36
8970 28
8971 17
8972 17
8973 51
8974 30
8975 2
8976 5
8977 4
8978 19
8979 34
8980 19
8981 17
8982 4
8983 2
8984 19
8985 15
8986 55
8987 17
8988 22
8989 5
8990 17
8991 30
8992 36
8993 16
8994 6
8995 1
8996 5
8997 14
8998 42
8999 27
9000 36
9001 4
9002 5
9003 5
9004 1
9005 4
9006 19
9007 28
9008 28
9009 17
9010 30
9011 30
9012 14
9013 17
9014 28
9015 17
9016 28
9017 4
9018 4
9019 34
9020 1
9021 4
9022 34
9023 26
9024 26
9025 5
9026 1
9027 17
9028 14
9029 19
9030 34
9031 2
9032 19
9033 20
9034 1
9035 17
9036 19
9037 42
9038 17
9039 30
9040 1
9041 1
9042 1
9043 29
9044 5
9045 5
9046 30
9047 20
9048 37
9049 5
9050 5
9051 19
9052 5
9053 19
9054 28
9055 26
9056 40
9057 28
9058 5
9059 17
9060 20
9061 4
9062 5
9063 1
9064 5
9065 19
9066 31
9067 17
9068 30
9069 7
9070 19
9071 17
9072 2
9073 4
9074 17
9075 19
9076 5
9077 19
9078 2
9079 19
9080 28
9081 7
9082 33
9083 1
9084 19
9085 2
9086 5
9087 28
9088 1
9089 5
9090 17
9091 34
9092 30
9093 5
9094 1
9095 4
9096 24
9097 22
9098 1
9099 5
9100 52
9101 8
9102 1
9103 17
9104 5
9105 30
9106 17
9107 16
9108 1
9109 17
9110 30
9111 2
9112 7
9113 4
9114 22
9115 17
9116 30
9117 19
9118 4
9119 17
9120 19
9121 30
9122 5
9123 1
9124 17
9125 5
9126 39
9127 20
9128 19
9129 5
9130 2
9131 5
9132 4
9133 28
9134 17
9135 30
9136 19
9137 19
9138 19
9139 4
9140 27
9141 21
9142 28
9143 32
9144 30
9145 1
9146 17
9147 42
9148 42
9149 35
9150 15
9151 20
9152 12
9153 5
9154 4
9155 5
9156 5
9157 5
9158 30
9159 5
9160 34
9161 45
9162 52
9163 15
9164 17
9165 19
9166 1
9167 17
9168 30
9169 4
9170 14
9171 17
9172 5
9173 17
9174 24
9175 14
9176 40
9177 5
9178 22
9179 4
9180 19
9181 1
9182 6
9183 2
9184 26
9185 30
9186 20
9187 5
9188 5
9189 30
9190 22
9191 22
9192 20
9193 5
9194 17
9195 30
9196 30
9197 20
9198 21
9199 19
9200 4
9201 22
9202 5
9203 34
9204 43
9205 25
9206 5
9207 19
9208 30
9209 14
9210 30
9211 17
9212 22
9213 14
9214 45
9215 17
9216 17
9217 30
9218 31
9219 15
9220 6
9221 38
9222 5
9223 28
9224 17
9225 31
9226 30
9227 20
9228 38
9229 40
9230 45
9231 19
9232 4
9233 17
9234 19
9235 46
9236 19
9237 30
9238 19
9239 4
9240 51
9241 15
9242 5
9243 30
9244 22
9245 28
9246 5
9247 1
9248 17
9249 19
9250 40
9251 20
9252 6
9253 4
9254 19
9255 5
9256 49
9257 5
9258 14
9259 5
9260 7
9261 45
9262 17
9263 4
9264 30
9265 5
9266 20
9267 17
9268 1
9269 19
9270 30
9271 5
9272 30
9273 0
9274 30
9275 29
9276 5
9277 30
9278 0
9279 2
9280 2
9281 17
9282 4
9283 20
9284 17
9285 16
9286 2
9287 30
9288 18
9289 17
9290 42
9291 17
9292 20
9293 14
9294 30
9295 30
9296 15
9297 17
9298 30
9299 5
9300 17
9301 27
9302 28
9303 1
9304 30
9305 17
9306 2
9307 53
9308 19
9309 20
9310 1
9311 34
9312 19
9313 27
9314 30
9315 19
9316 28
9317 4
9318 1
9319 5
9320 20
9321 1
9322 19
9323 9
9324 30
9325 5
9326 19
9327 36
9328 4
9329 27
9330 22
9331 4
9332 30
9333 36
9334 17
9335 1
9336 28
9337 30
9338 17
9339 6
9340 17
9341 46
9342 17
9343 19
9344 1
9345 30
9346 2
9347 19
9348 4
9349 28
9350 30
9351 37
9352 45
9353 34
9354 1
9355 19
9356 5
9357 35
9358 20
9359 5
9360 19
9361 15
9362 6
9363 19
9364 55
9365 34
9366 6
9367 30
9368 19
9369 39
9370 4
9371 17
9372 4
9373 5
9374 27
9375 5
9376 5
9377 30
9378 36
9379 22
9380 30
9381 19
9382 4
9383 53
9384 5
9385 8
9386 34
9387 17
9388 34
9389 19
9390 34
9391 1
9392 4
9393 42
9394 1
9395 6
9396 27
9397 30
9398 0
9399 30
9400 37
9401 34
9402 17
9403 16
9404 32
9405 1
9406 14
9407 1
9408 17
9409 40
9410 34
9411 30
9412 17
9413 19
9414 19
9415 6
9416 7
9417 15
9418 4
9419 34
9420 5
9421 7
9422 18
9423 19
9424 37
9425 7
9426 4
9427 19
9428 34
9429 5
9430 5
9431 6
9432 46
9433 4
9434 34
9435 37
9436 4
9437 27
9438 22
9439 4
9440 40
9441 17
9442 5
9443 16
9444 12
9445 26
9446 4
9447 22
9448 34
9449 22
9450 19
9451 29
9452 1
9453 8
9454 30
9455 15
9456 19
9457 16
9458 34
9459 6
9460 34
9461 17
9462 19
9463 1
9464 20
9465 21
9466 17
9467 17
9468 5
9469 5
9470 1
9471 34
9472 34
9473 19
9474 35
9475 2
9476 42
9477 42
9478 4
9479 2
9480 5
9481 19
9482 40
9483 17
9484 34
9485 30
9486 34
9487 2
9488 34
9489 43
9490 9
9491 19
9492 34
9493 34
9494 30
9495 5
9496 34
9497 17
9498 2
9499 5
9500 30
9501 5
9502 16
9503 6
9504 34
9505 2
9506 2
9507 17
9508 19
9509 52
9510 5
9511 34
9512 34
9513 4
9514 14
9515 34
9516 34
9517 5
9518 5
9519 2
9520 30
9521 17
9522 8
9523 34
9524 20
9525 19
9526 34
9527 19
9528 26
9529 4
9530 55
9531 53
9532 4
9533 27
9534 34
9535 17
9536 19
9537 17
9538 1
9539 19
9540 17
9541 36
9542 14
9543 34
9544 24
9545 4
9546 4
9547 42
9548 19
9549 30
9550 17
9551 32
9552 16
9553 22
9554 5
9555 1
9556 30
9557 5
9558 5
9559 13
9560 1
9561 47
9562 14
9563 34
9564 5
9565 26
9566 2
9567 5
9568 14
9569 19
9570 34
9571 30
9572 2
9573 5
9574 4
9575 5
9576 34
9577 19
9578 14
9579 17
9580 2
9581 14
9582 34
9583 26
9584 20
9585 2
9586 20
9587 2
9588 19
9589 4
9590 5
9591 42
9592 18
9593 14
9594 34
9595 27
9596 5
9597 5
9598 30
9599 23
9600 4
9601 2
9602 18
9603 17
9604 31
9605 34
9606 15
9607 17
9608 19
9609 17
9610 17
9611 20
9612 2
9613 5
9614 4
9615 22
9616 17
9617 34
9618 19
9619 19
9620 12
9621 19
9622 37
9623 36
9624 4
9625 30
9626 34
9627 18
9628 53
9629 6
9630 0
9631 34
9632 19
9633 39
9634 28
9635 18
9636 5
9637 17
9638 4
9639 19
9640 1
9641 24
9642 38
9643 45
9644 2
9645 17
9646 4
9647 5
9648 5
9649 17
9650 4
9651 51
9652 19
9653 17
9654 5
9655 26
9656 17
9657 1
9658 19
9659 32
9660 5
9661 1
9662 19
9663 12
9664 42
9665 5
9666 42
9667 17
9668 15
9669 0
9670 15
9671 2
9672 5
9673 19
9674 2
9675 17
9676 4
9677 38
9678 17
9679 28
9680 2
9681 15
9682 15
9683 5
9684 15
9685 14
9686 34
9687 4
9688 30
9689 36
9690 1
9691 5
9692 47
9693 30
9694 4
9695 22
9696 22
9697 31
9698 14
9699 19
9700 22
9701 22
9702 19
9703 15
9704 5
9705 30
9706 17
9707 5
9708 34
9709 28
9710 19
9711 5
9712 6
9713 17
9714 5
9715 34
9716 19
9717 15
9718 2
9719 34
9720 5
9721 30
9722 30
9723 36
9724 15
9725 12
9726 30
9727 22
9728 36
9729 28
9730 4
9731 15
9732 17
9733 46
9734 34
9735 2
9736 19
9737 2
9738 5
9739 34
9740 19
9741 34
9742 30
9743 15
9744 29
9745 24
9746 17
9747 14
9748 22
9749 15
9750 5
9751 30
9752 26
9753 15
9754 2
9755 2
9756 2
9757 4
9758 15
9759 19
9760 17
9761 55
9762 19
9763 5
9764 2
9765 34
9766 2
9767 32
9768 0
9769 2
9770 2
9771 15
9772 30
9773 17
9774 4
9775 19
9776 24
9777 21
9778 30
9779 17
9780 2
9781 2
9782 17
9783 36
9784 15
9785 2
9786 30
9787 24
9788 19
9789 22
9790 17
9791 5
9792 1
9793 4
9794 15
9795 28
9796 17
9797 17
9798 17
9799 19
9800 5
9801 4
9802 2
9803 13
9804 34
9805 22
9806 2
9807 15
9808 17
9809 1
9810 4
9811 15
9812 22
9813 19
9814 4
9815 15
9816 15
9817 19
9818 17
9819 22
9820 36
9821 22
9822 30
9823 0
9824 19
9825 4
9826 17
9827 5
9828 15
9829 41
9830 22
9831 17
9832 28
9833 48
9834 22
9835 26
9836 20
9837 2
9838 19
9839 27
9840 28
9841 2
9842 26
9843 5
9844 22
9845 2
9846 19
9847 19
9848 28
9849 22
9850 52
9851 22
9852 5
9853 22
9854 17
9855 26
9856 2
9857 34
9858 5
9859 15
9860 5
9861 30
9862 15
9863 2
9864 4
9865 19
9866 22
9867 19
9868 2
9869 34
9870 19
9871 26
9872 45
9873 22
9874 30
9875 34
9876 4
9877 30
9878 17
9879 15
9880 5
9881 5
9882 5
9883 28
9884 6
9885 4
9886 2
9887 30
9888 14
9889 22
9890 34
9891 36
9892 22
9893 5
9894 17
9895 22
9896 17
9897 34
9898 4
9899 34
9900 17
9901 27
9902 2
9903 45
9904 17
9905 36
9906 27
9907 34
9908 34
9909 34
9910 15
9911 19
9912 4
9913 34
9914 12
9915 6
9916 17
9917 15
9918 19
9919 34
9920 5
9921 1
9922 22
9923 5
9924 15
9925 32
9926 52
9927 17
9928 1
9929 44
9930 49
9931 19
9932 4
9933 2
9934 22
9935 34
9936 5
9937 2
9938 5
9939 28
9940 17
9941 34
9942 36
9943 4
9944 17
9945 5
9946 4
9947 34
9948 22
9949 5
9950 5
9951 34
9952 34
9953 17
9954 36
9955 4
9956 17
9957 15
9958 51
9959 34
9960 19
9961 42
9962 34
9963 17
9964 5
9965 22
9966 34
9967 22
9968 19
9969 34
9970 22
9971 19
9972 34
9973 42
9974 15
9975 19
9976 5
9977 27
9978 34
9979 1
9980 43
9981 19
9982 4
9983 4
9984 22
9985 2
9986 28
9987 2
9988 4
9989 37
9990 34
9991 22
9992 15
9993 29
9994 15
9995 4
9996 28
9997 40
9998 15
9999 17
