0 0
1 1
2 2
3 3
4 4
5 5
6 6
7 2
8 1
9 6
10 4
11 7
12 8
13 2
14 9
15 0
16 10
17 11
18 0
19 12
20 0
21 1
22 13
23 14
24 0
25 15
26 16
27 12
28 17
29 8
30 8
31 6
32 18
33 19
34 17
35 12
36 20
37 5
38 21
39 1
40 1
41 22
42 12
43 5
44 23
45 24
46 3
47 21
48 2
49 18
50 6
51 5
52 0
53 25
54 1
55 2
56 26
57 27
58 2
59 23
60 20
61 28
62 29
63 19
64 25
65 0
66 5
67 30
68 25
69 31
70 2
71 32
72 33
73 34
74 35
75 36
76 25
77 37
78 19
79 20
80 4
81 12
82 38
83 35
84 3
85 39
86 40
87 2
88 36
89 16
90 12
91 30
92 12
93 6
94 41
95 5
96 3
97 30
98 0
99 42
100 0
101 43
102 8
103 12
104 3
105 26
106 12
107 16
108 7
109 34
110 23
111 10
112 34
113 20
114 33
115 44
116 12
117 23
118 1
119 30
120 40
121 45
122 46
123 1
124 12
125 40
126 1
127 0
128 5
129 47
130 48
131 33
132 40
133 35
134 15
135 0
136 49
137 15
138 10
139 5
140 0
141 4
142 30
143 12
144 50
145 38
146 3
147 3
148 12
149 15
150 23
151 14
152 0
153 35
154 0
155 8
156 28
157 2
158 5
159 5
160 1
161 1
162 21
163 0
164 15
165 1
166 51
167 0
168 49
169 0
170 24
171 8
172 20
173 27
174 8
175 40
176 14
177 12
178 12
179 1
180 0
181 8
182 5
183 18
184 52
185 28
186 12
187 9
188 0
189 23
190 8
191 0
192 1
193 53
194 18
195 29
196 6
197 1
198 12
199 29
200 34
201 12
202 30
203 49
204 0
205 21
206 6
207 36
208 0
209 1
210 8
211 31
212 5
213 42
214 21
215 6
216 6
217 23
218 25
219 7
220 33
221 25
222 12
223 23
224 53
225 21
226 7
227 14
228 35
229 6
230 19
231 31
232 43
233 2
234 20
235 29
236 30
237 4
238 0
239 42
240 12
241 12
242 5
243 9
244 15
245 2
246 30
247 2
248 5
249 1
250 1
251 5
252 31
253 15
254 42
255 27
256 5
257 23
258 0
259 12
260 12
261 5
262 12
263 53
264 5
265 4
266 12
267 24
268 45
269 15
270 40
271 51
272 31
273 15
274 25
275 25
276 46
277 35
278 14
279 12
280 5
281 24
282 1
283 54
284 12
285 21
286 47
287 7
288 40
289 0
290 1
291 5
292 21
293 55
294 6
295 5
296 35
297 0
298 5
299 3
300 13
301 4
302 8
303 4
304 0
305 43
306 5
307 5
308 3
309 54
310 0
311 44
312 23
313 4
314 12
315 10
316 8
317 47
318 1
319 1
320 3
321 37
322 5
323 43
324 29
325 29
326 2
327 43
328 27
329 37
330 12
331 14
332 8
333 1
334 1
335 25
336 8
337 1
338 24
339 32
340 41
341 2
342 5
343 12
344 37
345 15
346 12
347 10
348 3
349 0
350 15
351 12
352 44
353 8
354 5
355 5
356 8
357 16
358 22
359 12
360 12
361 5
362 42
363 40
364 2
365 12
366 2
367 1
368 0
369 4
370 12
371 35
372 25
373 21
374 14
375 29
376 34
377 35
378 29
379 23
380 19
381 5
382 29
383 5
384 12
385 1
386 1
387 5
388 1
389 11
390 0
391 41
392 21
393 35
394 56
395 14
396 0
397 34
398 5
399 2
400 23
401 56
402 42
403 29
404 12
405 10
406 16
407 1
408 54
409 1
410 34
411 12
412 1
413 1
414 1
415 1
416 8
417 0
418 1
419 28
420 8
421 4
422 1
423 1
424 5
425 18
426 24
427 25
428 5
429 8
430 47
431 41
432 43
433 34
434 12
435 29
436 12
437 29
438 35
439 12
440 34
441 5
442 53
443 23
444 12
445 13
446 25
447 17
448 10
449 19
450 24
451 49
452 5
453 11
454 5
455 40
456 12
457 0
458 12
459 42
460 0
461 5
462 30
463 12
464 0
465 34
466 50
467 20
468 2
469 12
470 1
471 2
472 27
473 8
474 12
475 12
476 0
477 29
478 2
479 53
480 1
481 5
482 27
483 23
484 12
485 34
486 42
487 2
488 55
489 34
490 12
491 11
492 29
493 5
494 12
495 31
496 12
497 14
498 57
499 30
500 7
501 2
502 5
503 1
504 38
505 0
506 1
507 1
508 21
509 22
510 11
511 12
512 57
513 1
514 1
515 1
516 1
517 29
518 6
519 0
520 1
521 1
522 40
523 0
524 25
525 23
526 19
527 12
528 12
529 0
530 24
531 5
532 5
533 27
534 5
535 22
536 10
537 29
538 12
539 12
540 38
541 7
542 58
543 1
544 12
545 41
546 12
547 1
548 3
549 35
550 1
551 2
552 42
553 12
554 29
555 21
556 2
557 5
558 20
559 49
560 50
561 57
562 12
563 2
564 20
565 5
566 1
567 22
568 23
569 5
570 29
571 5
572 0
573 0
574 34
575 12
576 5
577 9
578 5
579 44
580 3
581 44
582 30
583 10
584 12
585 2
586 21
587 1
588 23
589 2
590 12
591 5
592 35
593 2
594 29
595 59
596 12
597 2
598 4
599 0
600 29
601 12
602 2
603 13
604 29
605 58
606 12
607 31
608 12
609 12
610 8
611 12
612 1
613 23
614 0
615 12
616 16
617 30
618 11
619 12
620 42
621 0
622 25
623 0
624 0
625 12
626 20
627 0
628 5
629 35
630 15
631 31
632 31
633 48
634 22
635 18
636 1
637 12
638 25
639 3
640 1
641 18
642 0
643 5
644 0
645 17
646 0
647 12
648 5
649 59
650 12
651 29
652 19
653 34
654 0
655 0
656 32
657 11
658 5
659 0
660 30
661 42
662 34
663 1
664 40
665 1
666 25
667 2
668 4
669 58
670 29
671 5
672 41
673 4
674 0
675 12
676 31
677 5
678 2
679 38
680 12
681 3
682 0
683 37
684 12
685 12
686 18
687 5
688 0
689 12
690 3
691 0
692 1
693 17
694 12
695 3
696 38
697 2
698 38
699 1
700 7
701 29
702 0
703 8
704 15
705 8
706 25
707 18
708 45
709 0
710 1
711 53
712 1
713 18
714 12
715 19
716 5
717 29
718 54
719 12
720 25
721 11
722 2
723 16
724 0
725 1
726 9
727 29
728 10
729 25
730 38
731 12
732 2
733 19
734 12
735 1
736 5
737 5
738 5
739 14
740 12
741 0
742 15
743 1
744 1
745 23
746 4
747 5
748 0
749 21
750 38
751 0
752 25
753 1
754 0
755 0
756 19
757 6
758 5
759 42
760 25
761 12
762 40
763 45
764 0
765 5
766 0
767 12
768 5
769 40
770 23
771 0
772 29
773 10
774 54
775 26
776 10
777 5
778 12
779 10
780 23
781 2
782 2
783 1
784 34
785 2
786 12
787 12
788 11
789 5
790 8
791 1
792 5
793 53
794 5
795 20
796 0
797 40
798 8
799 1
800 5
801 0
802 19
803 16
804 1
805 28
806 42
807 0
808 4
809 12
810 5
811 12
812 0
813 53
814 1
815 4
816 8
817 35
818 12
819 0
820 26
821 10
822 0
823 12
824 6
825 11
826 5
827 53
828 30
829 29
830 1
831 0
832 2
833 23
834 8
835 15
836 2
837 1
838 29
839 5
840 12
841 23
842 29
843 2
844 5
845 12
846 12
847 0
848 5
849 0
850 12
851 12
852 42
853 30
854 0
855 57
856 5
857 42
858 5
859 1
860 0
861 40
862 5
863 1
864 0
865 58
866 31
867 23
868 22
869 42
870 6
871 1
872 0
873 0
874 0
875 6
876 3
877 33
878 42
879 34
880 16
881 12
882 26
883 25
884 34
885 12
886 2
887 2
888 5
889 23
890 12
891 6
892 55
893 5
894 58
895 8
896 53
897 59
898 5
899 2
900 29
901 12
902 29
903 8
904 8
905 0
906 12
907 12
908 12
909 12
910 5
911 5
912 14
913 21
914 40
915 5
916 46
917 13
918 2
919 34
920 45
921 8
922 6
923 4
924 11
925 11
926 23
927 2
928 12
929 12
930 12
931 42
932 35
933 23
934 12
935 12
936 43
937 0
938 40
939 12
940 15
941 0
942 34
943 8
944 1
945 18
946 5
947 27
948 0
949 37
950 53
951 34
952 6
953 1
954 5
955 0
956 20
957 0
958 14
959 2
960 12
961 1
962 9
963 12
964 6
965 1
966 50
967 23
968 2
969 30
970 8
971 2
972 10
973 20
974 5
975 19
976 1
977 0
978 12
979 60
980 1
981 0
982 19
983 23
984 2
985 26
986 0
987 0
988 12
989 27
990 1
991 7
992 45
993 12
994 28
995 1
996 19
997 12
998 12
999 5
1000 20
1001 8
1002 29
1003 8
1004 1
1005 6
1006 12
1007 6
1008 11
1009 12
1010 5
1011 5
1012 26
1013 20
1014 48
1015 25
1016 1
1017 25
1018 1
1019 37
1020 2
1021 5
1022 5
1023 6
1024 5
1025 4
1026 5
1027 2
1028 23
1029 8
1030 12
1031 21
1032 22
1033 12
1034 12
1035 42
1036 12
1037 0
1038 12
1039 1
1040 1
1041 6
1042 38
1043 0
1044 6
1045 12
1046 0
1047 27
1048 2
1049 23
1050 42
1051 21
1052 5
1053 1
1054 7
1055 29
1056 61
1057 1
1058 12
1059 0
1060 37
1061 2
1062 12
1063 5
1064 42
1065 20
1066 12
1067 0
1068 46
1069 40
1070 1
1071 2
1072 1
1073 12
1074 5
1075 12
1076 31
1077 43
1078 10
1079 15
1080 30
1081 12
1082 19
1083 0
1084 19
1085 23
1086 4
1087 30
1088 2
1089 30
1090 0
1091 47
1092 41
1093 30
1094 40
1095 1
1096 25
1097 18
1098 25
1099 1
1100 5
1101 8
1102 20
1103 1
1104 35
1105 12
1106 0
1107 1
1108 40
1109 41
1110 6
1111 12
1112 12
1113 1
1114 5
1115 12
1116 53
1117 42
1118 37
1119 2
1120 23
1121 0
1122 12
1123 1
1124 1
1125 2
1126 20
1127 5
1128 2
1129 1
1130 5
1131 4
1132 12
1133 5
1134 2
1135 12
1136 9
1137 48
1138 12
1139 1
1140 2
1141 23
1142 12
1143 1
1144 0
1145 25
1146 13
1147 33
1148 0
1149 10
1150 25
1151 1
1152 1
1153 10
1154 18
1155 46
1156 26
1157 0
1158 55
1159 12
1160 2
1161 2
1162 29
1163 45
1164 0
1165 4
1166 1
1167 26
1168 2
1169 12
1170 0
1171 12
1172 1
1173 5
1174 34
1175 1
1176 12
1177 2
1178 12
1179 2
1180 5
1181 12
1182 5
1183 6
1184 5
1185 25
1186 20
1187 0
1188 3
1189 27
1190 12
1191 12
1192 23
1193 12
1194 1
1195 21
1196 0
1197 48
1198 2
1199 12
1200 0
1201 12
1202 12
1203 0
1204 25
1205 0
1206 5
1207 41
1208 5
1209 25
1210 12
1211 6
1212 2
1213 1
1214 23
1215 20
1216 21
1217 2
1218 9
1219 29
1220 5
1221 9
1222 0
1223 11
1224 27
1225 52
1226 27
1227 5
1228 27
1229 12
1230 2
1231 26
1232 0
1233 8
1234 2
1235 53
1236 8
1237 12
1238 35
1239 12
1240 29
1241 2
1242 38
1243 2
1244 2
1245 0
1246 1
1247 10
1248 0
1249 25
1250 12
1251 5
1252 0
1253 42
1254 5
1255 0
1256 5
1257 24
1258 49
1259 1
1260 10
1261 12
1262 12
1263 5
1264 5
1265 0
1266 23
1267 42
1268 12
1269 1
1270 0
1271 5
1272 1
1273 5
1274 1
1275 5
1276 0
1277 25
1278 2
1279 48
1280 6
1281 12
1282 11
1283 4
1284 12
1285 12
1286 1
1287 22
1288 1
1289 21
1290 1
1291 0
1292 43
1293 31
1294 12
1295 1
1296 5
1297 11
1298 25
1299 1
1300 27
1301 12
1302 11
1303 57
1304 53
1305 8
1306 0
1307 26
1308 5
1309 15
1310 5
1311 5
1312 5
1313 19
1314 5
1315 50
1316 5
1317 12
1318 0
1319 0
1320 35
1321 5
1322 1
1323 29
1324 25
1325 12
1326 3
1327 17
1328 21
1329 12
1330 12
1331 12
1332 4
1333 3
1334 12
1335 35
1336 43
1337 5
1338 4
1339 34
1340 5
1341 8
1342 47
1343 21
1344 43
1345 5
1346 0
1347 12
1348 1
1349 1
1350 5
1351 23
1352 12
1353 2
1354 2
1355 23
1356 12
1357 12
1358 12
1359 2
1360 4
1361 21
1362 1
1363 12
1364 27
1365 0
1366 3
1367 2
1368 0
1369 12
1370 33
1371 0
1372 12
1373 35
1374 2
1375 8
1376 1
1377 8
1378 7
1379 10
1380 12
1381 12
1382 55
1383 42
1384 6
1385 1
1386 2
1387 29
1388 12
1389 12
1390 5
1391 5
1392 0
1393 2
1394 4
1395 2
1396 1
1397 2
1398 5
1399 12
1400 44
1401 4
1402 2
1403 2
1404 1
1405 41
1406 5
1407 5
1408 1
1409 10
1410 5
1411 12
1412 2
1413 29
1414 11
1415 12
1416 22
1417 5
1418 26
1419 9
1420 29
1421 12
1422 28
1423 5
1424 5
1425 5
1426 25
1427 38
1428 8
1429 12
1430 5
1431 0
1432 29
1433 2
1434 8
1435 17
1436 0
1437 10
1438 0
1439 2
1440 11
1441 12
1442 55
1443 27
1444 1
1445 12
1446 44
1447 1
1448 53
1449 3
1450 23
1451 30
1452 15
1453 8
1454 1
1455 5
1456 1
1457 2
1458 0
1459 11
1460 11
1461 21
1462 2
1463 29
1464 5
1465 2
1466 0
1467 25
1468 10
1469 25
1470 0
1471 35
1472 30
1473 5
1474 5
1475 12
1476 0
1477 5
1478 9
1479 30
1480 1
1481 0
1482 40
1483 1
1484 1
1485 0
1486 57
1487 0
1488 5
1489 23
1490 0
1491 5
1492 26
1493 12
1494 29
1495 24
1496 6
1497 0
1498 5
1499 1
1500 12
1501 23
1502 37
1503 0
1504 5
1505 1
1506 0
1507 6
1508 8
1509 18
1510 23
1511 43
1512 8
1513 5
1514 42
1515 57
1516 5
1517 11
1518 5
1519 0
1520 20
1521 12
1522 43
1523 2
1524 26
1525 29
1526 54
1527 23
1528 5
1529 22
1530 58
1531 8
1532 2
1533 0
1534 0
1535 29
1536 1
1537 5
1538 53
1539 1
1540 5
1541 0
1542 6
1543 2
1544 40
1545 18
1546 0
1547 42
1548 8
1549 10
1550 5
1551 1
1552 1
1553 5
1554 23
1555 30
1556 55
1557 2
1558 56
1559 50
1560 30
1561 0
1562 29
1563 24
1564 48
1565 46
1566 11
1567 1
1568 5
1569 21
1570 8
1571 26
1572 0
1573 30
1574 6
1575 12
1576 1
1577 26
1578 25
1579 23
1580 12
1581 50
1582 26
1583 12
1584 12
1585 5
1586 1
1587 0
1588 7
1589 29
1590 5
1591 0
1592 35
1593 49
1594 9
1595 1
1596 2
1597 12
1598 6
1599 5
1600 34
1601 33
1602 5
1603 21
1604 2
1605 34
1606 12
1607 0
1608 9
1609 1
1610 26
1611 21
1612 7
1613 1
1614 9
1615 46
1616 1
1617 1
1618 46
1619 2
1620 21
1621 21
1622 35
1623 35
1624 23
1625 5
1626 5
1627 12
1628 5
1629 1
1630 0
1631 38
1632 12
1633 1
1634 5
1635 5
1636 25
1637 0
1638 12
1639 6
1640 12
1641 20
1642 45
1643 42
1644 25
1645 16
1646 5
1647 12
1648 21
1649 23
1650 30
1651 12
1652 16
1653 45
1654 12
1655 1
1656 5
1657 55
1658 5
1659 0
1660 35
1661 0
1662 12
1663 5
1664 5
1665 12
1666 2
1667 26
1668 25
1669 16
1670 29
1671 0
1672 40
1673 1
1674 12
1675 20
1676 0
1677 5
1678 19
1679 1
1680 0
1681 12
1682 12
1683 14
1684 12
1685 1
1686 10
1687 12
1688 6
1689 27
1690 33
1691 24
1692 12
1693 43
1694 18
1695 23
1696 5
1697 0
1698 11
1699 12
1700 2
1701 0
1702 26
1703 15
1704 12
1705 0
1706 27
1707 1
1708 5
1709 5
1710 0
1711 1
1712 5
1713 40
1714 0
1715 5
1716 12
1717 18
1718 11
1719 12
1720 51
1721 31
1722 12
1723 1
1724 43
1725 6
1726 55
1727 34
1728 1
1729 12
1730 5
1731 1
1732 12
1733 42
1734 1
1735 24
1736 10
1737 53
1738 24
1739 46
1740 18
1741 12
1742 1
1743 58
1744 5
1745 42
1746 0
1747 1
1748 2
1749 6
1750 12
1751 1
1752 44
1753 14
1754 5
1755 8
1756 12
1757 25
1758 5
1759 57
1760 12
1761 45
1762 5
1763 12
1764 0
1765 10
1766 0
1767 12
1768 25
1769 2
1770 29
1771 5
1772 20
1773 44
1774 12
1775 2
1776 8
1777 0
1778 2
1779 12
1780 24
1781 1
1782 23
1783 0
1784 12
1785 56
1786 42
1787 27
1788 13
1789 36
1790 0
1791 1
1792 0
1793 34
1794 1
1795 12
1796 47
1797 29
1798 5
1799 25
1800 5
1801 57
1802 2
1803 0
1804 24
1805 0
1806 1
1807 1
1808 8
1809 12
1810 12
1811 20
1812 1
1813 25
1814 11
1815 29
1816 5
1817 0
1818 40
1819 41
1820 20
1821 25
1822 2
1823 8
1824 5
1825 1
1826 5
1827 2
1828 1
1829 18
1830 6
1831 45
1832 34
1833 0
1834 2
1835 1
1836 23
1837 41
1838 34
1839 0
1840 2
1841 25
1842 2
1843 43
1844 42
1845 4
1846 12
1847 0
1848 1
1849 23
1850 12
1851 20
1852 1
1853 1
1854 5
1855 12
1856 1
1857 5
1858 12
1859 1
1860 0
1861 5
1862 0
1863 33
1864 37
1865 0
1866 20
1867 42
1868 5
1869 7
1870 2
1871 1
1872 12
1873 4
1874 12
1875 0
1876 1
1877 0
1878 8
1879 5
1880 5
1881 1
1882 2
1883 23
1884 5
1885 12
1886 29
1887 5
1888 12
1889 0
1890 26
1891 8
1892 12
1893 5
1894 0
1895 29
1896 5
1897 0
1898 2
1899 41
1900 1
1901 5
1902 35
1903 15
1904 0
1905 0
1906 23
1907 4
1908 12
1909 1
1910 0
1911 2
1912 0
1913 12
1914 5
1915 5
1916 3
1917 1
1918 34
1919 14
1920 23
1921 1
1922 1
1923 32
1924 5
1925 18
1926 2
1927 29
1928 42
1929 25
1930 12
1931 1
1932 22
1933 43
1934 12
1935 0
1936 10
1937 5
1938 12
1939 5
1940 21
1941 42
1942 0
1943 1
1944 0
1945 29
1946 2
1947 0
1948 23
1949 42
1950 10
1951 1
1952 5
1953 1
1954 12
1955 1
1956 12
1957 5
1958 5
1959 34
1960 8
1961 1
1962 1
1963 1
1964 30
1965 12
1966 8
1967 12
1968 25
1969 23
1970 12
1971 2
1972 0
1973 0
1974 1
1975 0
1976 5
1977 12
1978 0
1979 42
1980 5
1981 12
1982 42
1983 6
1984 6
1985 12
1986 3
1987 12
1988 1
1989 23
1990 40
1991 2
1992 1
1993 2
1994 1
1995 1
1996 6
1997 3
1998 21
1999 5
2000 3
2001 5
2002 12
2003 5
2004 2
2005 0
2006 2
2007 7
2008 0
2009 1
2010 43
2011 0
2012 1
2013 8
2014 6
2015 12
2016 29
2017 1
2018 0
2019 43
2020 39
2021 6
2022 34
2023 24
2024 8
2025 12
2026 23
2027 5
2028 8
2029 29
2030 0
2031 1
2032 42
2033 2
2034 42
2035 1
2036 12
2037 0
2038 5
2039 5
2040 3
2041 29
2042 23
2043 34
2044 2
2045 1
2046 12
2047 0
2048 12
2049 57
2050 2
2051 12
2052 29
2053 30
2054 0
2055 1
2056 15
2057 29
2058 21
2059 54
2060 11
2061 5
2062 53
2063 2
2064 43
2065 12
2066 25
2067 42
2068 46
2069 30
2070 2
2071 30
2072 26
2073 23
2074 12
2075 56
2076 15
2077 2
2078 2
2079 10
2080 1
2081 23
2082 12
2083 40
2084 50
2085 1
2086 5
2087 53
2088 12
2089 40
2090 38
2091 4
2092 53
2093 41
2094 2
2095 46
2096 30
2097 23
2098 19
2099 42
2100 12
2101 12
2102 23
2103 12
2104 5
2105 8
2106 2
2107 1
2108 2
2109 8
2110 21
2111 12
2112 0
2113 12
2114 12
2115 23
2116 47
2117 23
2118 30
2119 2
2120 19
2121 5
2122 29
2123 1
2124 0
2125 0
2126 35
2127 18
2128 25
2129 12
2130 21
2131 29
2132 35
2133 48
2134 1
2135 12
2136 2
2137 45
2138 16
2139 1
2140 21
2141 52
2142 5
2143 42
2144 6
2145 5
2146 43
2147 2
2148 5
2149 5
2150 2
2151 20
2152 7
2153 23
2154 46
2155 1
2156 0
2157 0
2158 12
2159 0
2160 5
2161 12
2162 29
2163 20
2164 1
2165 0
2166 12
2167 30
2168 25
2169 12
2170 30
2171 3
2172 15
2173 5
2174 5
2175 1
2176 39
2177 14
2178 12
2179 5
2180 15
2181 12
2182 5
2183 24
2184 27
2185 1
2186 39
2187 42
2188 0
2189 15
2190 5
2191 1
2192 16
2193 46
2194 12
2195 1
2196 5
2197 0
2198 12
2199 0
2200 10
2201 1
2202 14
2203 22
2204 38
2205 12
2206 2
2207 23
2208 50
2209 35
2210 0
2211 12
2212 24
2213 1
2214 5
2215 27
2216 12
2217 12
2218 8
2219 30
2220 1
2221 25
2222 41
2223 8
2224 20
2225 12
2226 23
2227 1
2228 1
2229 20
2230 5
2231 6
2232 15
2233 0
2234 15
2235 29
2236 7
2237 42
2238 5
2239 5
2240 19
2241 12
2242 10
2243 5
2244 1
2245 54
2246 50
2247 8
2248 26
2249 29
2250 44
2251 31
2252 25
2253 0
2254 29
2255 42
2256 10
2257 0
2258 38
2259 7
2260 1
2261 5
2262 5
2263 15
2264 42
2265 0
2266 1
2267 44
2268 62
2269 35
2270 5
2271 23
2272 1
2273 0
2274 23
2275 18
2276 5
2277 5
2278 0
2279 0
2280 4
2281 53
2282 30
2283 5
2284 3
2285 2
2286 2
2287 15
2288 19
2289 38
2290 1
2291 5
2292 5
2293 12
2294 5
2295 1
2296 0
2297 62
2298 12
2299 25
2300 12
2301 5
2302 25
2303 0
2304 19
2305 12
2306 15
2307 43
2308 45
2309 12
2310 3
2311 13
2312 56
2313 11
2314 11
2315 47
2316 5
2317 12
2318 12
2319 0
2320 13
2321 35
2322 6
2323 1
2324 4
2325 0
2326 25
2327 9
2328 1
2329 6
2330 16
2331 0
2332 23
2333 12
2334 40
2335 8
2336 0
2337 0
2338 27
2339 12
2340 12
2341 12
2342 1
2343 13
2344 1
2345 12
2346 54
2347 9
2348 25
2349 0
2350 12
2351 5
2352 12
2353 7
2354 46
2355 5
2356 12
2357 20
2358 6
2359 0
2360 12
2361 5
2362 12
2363 2
2364 20
2365 2
2366 2
2367 38
2368 35
2369 5
2370 43
2371 56
2372 1
2373 0
2374 12
2375 1
2376 25
2377 2
2378 5
2379 5
2380 2
2381 1
2382 7
2383 15
2384 45
2385 31
2386 5
2387 45
2388 4
2389 5
2390 12
2391 52
2392 35
2393 5
2394 12
2395 5
2396 3
2397 12
2398 8
2399 0
2400 58
2401 53
2402 6
2403 2
2404 0
2405 5
2406 0
2407 18
2408 12
2409 0
2410 2
2411 6
2412 14
2413 0
2414 5
2415 30
2416 8
2417 0
2418 45
2419 0
2420 1
2421 14
2422 6
2423 23
2424 5
2425 12
2426 25
2427 0
2428 9
2429 1
2430 0
2431 14
2432 12
2433 25
2434 20
2435 5
2436 1
2437 10
2438 1
2439 23
2440 4
2441 2
2442 1
2443 9
2444 0
2445 2
2446 0
2447 0
2448 40
2449 5
2450 1
2451 1
2452 1
2453 5
2454 34
2455 8
2456 62
2457 0
2458 21
2459 1
2460 14
2461 60
2462 5
2463 25
2464 47
2465 12
2466 12
2467 20
2468 25
2469 12
2470 35
2471 12
2472 1
2473 12
2474 5
2475 4
2476 6
2477 12
2478 5
2479 6
2480 19
2481 12
2482 5
2483 12
2484 12
2485 1
2486 12
2487 29
2488 8
2489 5
2490 5
2491 0
2492 0
2493 12
2494 5
2495 0
2496 1
2497 1
2498 5
2499 40
2500 5
2501 55
2502 25
2503 19
2504 5
2505 12
2506 1
2507 15
2508 5
2509 0
2510 4
2511 29
2512 12
2513 2
2514 0
2515 0
2516 5
2517 1
2518 54
2519 1
2520 1
2521 8
2522 12
2523 0
2524 5
2525 12
2526 18
2527 24
2528 0
2529 23
2530 23
2531 23
2532 30
2533 17
2534 1
2535 12
2536 5
2537 57
2538 55
2539 0
2540 2
2541 12
2542 6
2543 23
2544 1
2545 35
2546 20
2547 1
2548 1
2549 0
2550 12
2551 12
2552 1
2553 5
2554 5
2555 5
2556 5
2557 0
2558 12
2559 5
2560 54
2561 15
2562 0
2563 2
2564 1
2565 1
2566 20
2567 3
2568 5
2569 27
2570 5
2571 4
2572 0
2573 34
2574 1
2575 30
2576 38
2577 12
2578 21
2579 5
2580 5
2581 26
2582 2
2583 42
2584 0
2585 12
2586 12
2587 1
2588 18
2589 12
2590 50
2591 4
2592 31
2593 5
2594 5
2595 5
2596 2
2597 4
2598 5
2599 27
2600 8
2601 8
2602 0
2603 15
2604 31
2605 23
2606 21
2607 5
2608 12
2609 12
2610 12
2611 2
2612 31
2613 30
2614 19
2615 42
2616 31
2617 28
2618 12
2619 5
2620 1
2621 62
2622 0
2623 29
2624 8
2625 23
2626 4
2627 8
2628 44
2629 8
2630 2
2631 12
2632 12
2633 5
2634 21
2635 5
2636 0
2637 12
2638 2
2639 46
2640 1
2641 3
2642 2
2643 12
2644 40
2645 1
2646 18
2647 46
2648 12
2649 1
2650 43
2651 25
2652 2
2653 5
2654 12
2655 29
2656 5
2657 41
2658 25
2659 2
2660 5
2661 1
2662 6
2663 1
2664 1
2665 0
2666 25
2667 5
2668 0
2669 5
2670 18
2671 10
2672 1
2673 0
2674 17
2675 1
2676 1
2677 45
2678 2
2679 45
2680 0
2681 5
2682 5
2683 2
2684 8
2685 5
2686 35
2687 45
2688 37
2689 40
2690 31
2691 25
2692 2
2693 5
2694 12
2695 12
2696 1
2697 1
2698 1
2699 5
2700 1
2701 5
2702 12
2703 1
2704 12
2705 51
2706 8
2707 5
2708 50
2709 11
2710 46
2711 18
2712 2
2713 12
2714 0
2715 0
2716 5
2717 3
2718 12
2719 6
2720 30
2721 10
2722 5
2723 0
2724 12
2725 5
2726 42
2727 5
2728 27
2729 5
2730 1
2731 5
2732 2
2733 29
2734 0
2735 8
2736 41
2737 0
2738 5
2739 5
2740 0
2741 11
2742 5
2743 1
2744 9
2745 0
2746 46
2747 34
2748 12
2749 0
2750 55
2751 12
2752 12
2753 21
2754 1
2755 6
2756 5
2757 1
2758 8
2759 12
2760 5
2761 1
2762 2
2763 5
2764 12
2765 60
2766 54
2767 2
2768 5
2769 2
2770 6
2771 5
2772 1
2773 12
2774 12
2775 10
2776 12
2777 12
2778 0
2779 1
2780 5
2781 6
2782 12
2783 10
2784 29
2785 42
2786 2
2787 58
2788 0
2789 14
2790 23
2791 0
2792 1
2793 4
2794 5
2795 1
2796 35
2797 12
2798 5
2799 42
2800 28
2801 57
2802 0
2803 5
2804 25
2805 1
2806 1
2807 0
2808 23
2809 12
2810 25
2811 1
2812 24
2813 8
2814 6
2815 5
2816 1
2817 2
2818 1
2819 5
2820 4
2821 12
2822 11
2823 1
2824 12
2825 2
2826 5
2827 13
2828 35
2829 0
2830 42
2831 5
2832 51
2833 42
2834 0
2835 1
2836 6
2837 11
2838 5
2839 29
2840 5
2841 20
2842 13
2843 34
2844 0
2845 11
2846 2
2847 1
2848 1
2849 1
2850 0
2851 23
2852 0
2853 5
2854 5
2855 2
2856 0
2857 42
2858 29
2859 10
2860 12
2861 34
2862 48
2863 1
2864 31
2865 29
2866 12
2867 50
2868 5
2869 2
2870 8
2871 12
2872 1
2873 18
2874 12
2875 29
2876 0
2877 19
2878 5
2879 5
2880 29
2881 5
2882 23
2883 12
2884 1
2885 1
2886 5
2887 23
2888 1
2889 12
2890 0
2891 7
2892 5
2893 5
2894 51
2895 18
2896 4
2897 3
2898 42
2899 1
2900 29
2901 29
2902 5
2903 12
2904 29
2905 5
2906 10
2907 8
2908 1
2909 5
2910 12
2911 5
2912 8
2913 0
2914 12
2915 5
2916 12
2917 1
2918 5
2919 0
2920 1
2921 5
2922 42
2923 12
2924 5
2925 57
2926 25
2927 5
2928 0
2929 12
2930 0
2931 8
2932 54
2933 5
2934 25
2935 1
2936 0
2937 58
2938 0
2939 41
2940 1
2941 12
2942 23
2943 5
2944 12
2945 1
2946 5
2947 23
2948 1
2949 0
2950 18
2951 23
2952 42
2953 5
2954 25
2955 23
2956 29
2957 0
2958 34
2959 42
2960 18
2961 59
2962 2
2963 16
2964 18
2965 3
2966 1
2967 30
2968 0
2969 0
2970 5
2971 12
2972 18
2973 8
2974 0
2975 1
2976 0
2977 4
2978 1
2979 12
2980 1
2981 30
2982 12
2983 0
2984 5
2985 2
2986 31
2987 0
2988 19
2989 3
2990 42
2991 23
2992 4
2993 1
2994 18
2995 2
2996 3
2997 5
2998 6
2999 0
3000 12
3001 5
3002 1
3003 29
3004 24
3005 12
3006 4
3007 20
3008 1
3009 29
3010 29
3011 2
3012 4
3013 0
3014 2
3015 5
3016 2
3017 15
3018 7
3019 0
3020 27
3021 34
3022 23
3023 5
3024 48
3025 0
3026 34
3027 0
3028 12
3029 5
3030 5
3031 5
3032 18
3033 2
3034 1
3035 18
3036 53
3037 0
3038 2
3039 12
3040 54
3041 2
3042 25
3043 2
3044 5
3045 41
3046 12
3047 5
3048 12
3049 29
3050 12
3051 43
3052 42
3053 2
3054 0
3055 27
3056 12
3057 34
3058 12
3059 1
3060 12
3061 6
3062 0
3063 12
3064 0
3065 2
3066 5
3067 12
3068 0
3069 5
3070 12
3071 12
3072 28
3073 42
3074 0
3075 28
3076 5
3077 18
3078 6
3079 5
3080 12
3081 21
3082 0
3083 53
3084 5
3085 24
3086 5
3087 23
3088 31
3089 1
3090 1
3091 2
3092 30
3093 1
3094 5
3095 12
3096 2
3097 15
3098 5
3099 46
3100 0
3101 12
3102 15
3103 5
3104 31
3105 1
3106 21
3107 12
3108 12
3109 34
3110 29
3111 18
3112 30
3113 2
3114 23
3115 26
3116 12
3117 5
3118 10
3119 5
3120 12
3121 12
3122 23
3123 32
3124 22
3125 0
3126 3
3127 30
3128 42
3129 23
3130 5
3131 1
3132 0
3133 0
3134 12
3135 1
3136 0
3137 6
3138 12
3139 1
3140 12
3141 5
3142 12
3143 1
3144 2
3145 2
3146 1
3147 1
3148 0
3149 1
3150 30
3151 46
3152 2
3153 20
3154 55
3155 0
3156 2
3157 1
3158 27
3159 2
3160 2
3161 25
3162 30
3163 1
3164 1
3165 12
3166 2
3167 5
3168 1
3169 10
3170 12
3171 13
3172 20
3173 42
3174 10
3175 0
3176 25
3177 1
3178 29
3179 12
3180 43
3181 29
3182 5
3183 29
3184 31
3185 5
3186 40
3187 12
3188 15
3189 12
3190 0
3191 6
3192 12
3193 2
3194 18
3195 12
3196 3
3197 2
3198 12
3199 31
3200 12
3201 12
3202 5
3203 0
3204 3
3205 12
3206 31
3207 21
3208 0
3209 12
3210 8
3211 52
3212 29
3213 42
3214 0
3215 15
3216 8
3217 12
3218 12
3219 12
3220 51
3221 2
3222 53
3223 10
3224 0
3225 12
3226 62
3227 0
3228 0
3229 48
3230 5
3231 6
3232 5
3233 13
3234 59
3235 5
3236 12
3237 0
3238 0
3239 0
3240 0
3241 42
3242 42
3243 1
3244 0
3245 48
3246 31
3247 5
3248 5
3249 1
3250 0
3251 5
3252 2
3253 1
3254 25
3255 1
3256 0
3257 5
3258 12
3259 21
3260 23
3261 5
3262 2
3263 12
3264 5
3265 5
3266 12
3267 1
3268 1
3269 2
3270 2
3271 46
3272 1
3273 25
3274 1
3275 18
3276 1
3277 17
3278 0
3279 8
3280 5
3281 0
3282 12
3283 45
3284 44
3285 0
3286 23
3287 56
3288 12
3289 5
3290 1
3291 25
3292 12
3293 11
3294 1
3295 0
3296 30
3297 6
3298 12
3299 8
3300 1
3301 11
3302 0
3303 42
3304 25
3305 2
3306 1
3307 2
3308 5
3309 29
3310 1
3311 0
3312 61
3313 15
3314 1
3315 42
3316 5
3317 3
3318 5
3319 12
3320 15
3321 0
3322 42
3323 0
3324 0
3325 30
3326 45
3327 28
3328 42
3329 12
3330 49
3331 6
3332 0
3333 2
3334 2
3335 0
3336 5
3337 2
3338 11
3339 2
3340 10
3341 2
3342 12
3343 0
3344 53
3345 6
3346 12
3347 20
3348 8
3349 12
3350 1
3351 5
3352 12
3353 23
3354 2
3355 24
3356 12
3357 0
3358 12
3359 39
3360 42
3361 12
3362 3
3363 12
3364 27
3365 1
3366 43
3367 43
3368 42
3369 42
3370 0
3371 12
3372 4
3373 2
3374 12
3375 12
3376 34
3377 26
3378 45
3379 2
3380 0
3381 21
3382 25
3383 57
3384 26
3385 12
3386 12
3387 0
3388 15
3389 1
3390 0
3391 20
3392 19
3393 29
3394 5
3395 5
3396 27
3397 2
3398 5
3399 0
3400 12
3401 43
3402 1
3403 5
3404 44
3405 30
3406 25
3407 23
3408 0
3409 1
3410 2
3411 42
3412 13
3413 6
3414 4
3415 2
3416 8
3417 10
3418 1
3419 29
3420 18
3421 27
3422 2
3423 0
3424 0
3425 12
3426 8
3427 12
3428 42
3429 0
3430 35
3431 8
3432 5
3433 3
3434 16
3435 3
3436 48
3437 18
3438 2
3439 1
3440 34
3441 2
3442 2
3443 42
3444 17
3445 12
3446 1
3447 30
3448 45
3449 31
3450 0
3451 38
3452 34
3453 1
3454 42
3455 2
3456 8
3457 29
3458 21
3459 29
3460 42
3461 39
3462 1
3463 34
3464 12
3465 12
3466 1
3467 5
3468 8
3469 12
3470 10
3471 5
3472 8
3473 5
3474 0
3475 12
3476 2
3477 29
3478 13
3479 12
3480 6
3481 51
3482 2
3483 1
3484 12
3485 5
3486 6
3487 1
3488 19
3489 5
3490 38
3491 0
3492 6
3493 5
3494 0
3495 25
3496 43
3497 1
3498 8
3499 5
3500 12
3501 12
3502 42
3503 6
3504 0
3505 13
3506 29
3507 24
3508 6
3509 19
3510 25
3511 0
3512 12
3513 1
3514 5
3515 42
3516 29
3517 37
3518 23
3519 0
3520 0
3521 12
3522 5
3523 5
3524 0
3525 10
3526 12
3527 12
3528 0
3529 55
3530 29
3531 0
3532 0
3533 0
3534 3
3535 5
3536 1
3537 15
3538 10
3539 0
3540 1
3541 11
3542 3
3543 1
3544 35
3545 5
3546 1
3547 12
3548 23
3549 12
3550 8
3551 23
3552 0
3553 6
3554 9
3555 1
3556 29
3557 1
3558 29
3559 1
3560 0
3561 35
3562 12
3563 0
3564 2
3565 12
3566 12
3567 12
3568 0
3569 18
3570 5
3571 2
3572 0
3573 1
3574 23
3575 42
3576 48
3577 26
3578 1
3579 43
3580 5
3581 0
3582 30
3583 12
3584 31
3585 43
3586 43
3587 4
3588 8
3589 12
3590 2
3591 0
3592 12
3593 5
3594 22
3595 2
3596 12
3597 41
3598 29
3599 8
3600 5
3601 5
3602 25
3603 6
3604 5
3605 23
3606 2
3607 22
3608 26
3609 43
3610 5
3611 54
3612 6
3613 2
3614 27
3615 42
3616 4
3617 5
3618 0
3619 1
3620 10
3621 12
3622 51
3623 3
3624 1
3625 2
3626 33
3627 25
3628 5
3629 5
3630 23
3631 0
3632 0
3633 0
3634 5
3635 5
3636 42
3637 8
3638 12
3639 26
3640 8
3641 1
3642 8
3643 12
3644 46
3645 20
3646 1
3647 40
3648 0
3649 5
3650 31
3651 0
3652 2
3653 1
3654 5
3655 1
3656 5
3657 30
3658 2
3659 12
3660 12
3661 25
3662 34
3663 12
3664 6
3665 0
3666 34
3667 2
3668 55
3669 6
3670 36
3671 16
3672 12
3673 8
3674 33
3675 25
3676 6
3677 6
3678 5
3679 42
3680 5
3681 57
3682 35
3683 3
3684 0
3685 1
3686 0
3687 30
3688 5
3689 42
3690 5
3691 1
3692 12
3693 0
3694 4
3695 1
3696 0
3697 25
3698 45
3699 0
3700 0
3701 5
3702 23
3703 0
3704 12
3705 0
3706 5
3707 2
3708 53
3709 6
3710 42
3711 1
3712 2
3713 5
3714 4
3715 46
3716 15
3717 2
3718 29
3719 1
3720 35
3721 20
3722 12
3723 27
3724 12
3725 12
3726 15
3727 19
3728 50
3729 2
3730 2
3731 58
3732 21
3733 43
3734 5
3735 5
3736 1
3737 5
3738 20
3739 47
3740 1
3741 12
3742 0
3743 10
3744 1
3745 5
3746 12
3747 5
3748 42
3749 15
3750 25
3751 12
3752 55
3753 12
3754 45
3755 2
3756 5
3757 0
3758 5
3759 0
3760 6
3761 11
3762 12
3763 2
3764 27
3765 12
3766 35
3767 0
3768 20
3769 5
3770 25
3771 37
3772 1
3773 0
3774 1
3775 12
3776 0
3777 1
3778 12
3779 0
3780 29
3781 0
3782 2
3783 5
3784 12
3785 57
3786 29
3787 25
3788 0
3789 54
3790 12
3791 20
3792 0
3793 27
3794 0
3795 1
3796 5
3797 12
3798 23
3799 38
3800 6
3801 1
3802 12
3803 0
3804 12
3805 3
3806 12
3807 5
3808 5
3809 12
3810 25
3811 12
3812 5
3813 2
3814 1
3815 54
3816 4
3817 38
3818 7
3819 12
3820 5
3821 5
3822 0
3823 3
3824 5
3825 0
3826 54
3827 25
3828 1
3829 0
3830 10
3831 9
3832 1
3833 5
3834 1
3835 17
3836 12
3837 60
3838 42
3839 0
3840 6
3841 9
3842 6
3843 54
3844 10
3845 12
3846 2
3847 5
3848 6
3849 8
3850 29
3851 12
3852 5
3853 10
3854 5
3855 31
3856 5
3857 2
3858 40
3859 23
3860 2
3861 29
3862 12
3863 2
3864 29
3865 3
3866 10
3867 1
3868 21
3869 6
3870 42
3871 12
3872 1
3873 12
3874 29
3875 3
3876 42
3877 2
3878 1
3879 0
3880 12
3881 4
3882 2
3883 12
3884 38
3885 24
3886 0
3887 26
3888 2
3889 5
3890 29
3891 12
3892 42
3893 12
3894 40
3895 26
3896 12
3897 2
3898 16
3899 5
3900 23
3901 5
3902 1
3903 29
3904 25
3905 6
3906 12
3907 23
3908 12
3909 29
3910 0
3911 1
3912 0
3913 19
3914 1
3915 1
3916 41
3917 0
3918 5
3919 5
3920 5
3921 0
3922 5
3923 1
3924 43
3925 12
3926 18
3927 1
3928 12
3929 5
3930 12
3931 6
3932 12
3933 5
3934 53
3935 12
3936 0
3937 6
3938 5
3939 5
3940 12
3941 0
3942 23
3943 42
3944 12
3945 18
3946 5
3947 29
3948 11
3949 1
3950 5
3951 0
3952 2
3953 5
3954 0
3955 5
3956 29
3957 23
3958 5
3959 0
3960 0
3961 25
3962 6
3963 5
3964 7
3965 0
3966 10
3967 12
3968 5
3969 8
3970 2
3971 18
3972 8
3973 18
3974 1
3975 2
3976 29
3977 29
3978 18
3979 27
3980 0
3981 42
3982 12
3983 27
3984 0
3985 42
3986 1
3987 51
3988 23
3989 29
3990 12
3991 12
3992 42
3993 12
3994 18
3995 18
3996 0
3997 23
3998 1
3999 5
4000 1
4001 5
4002 42
4003 12
4004 0
4005 11
4006 12
4007 0
4008 30
4009 6
4010 42
4011 25
4012 42
4013 5
4014 1
4015 38
4016 42
4017 23
4018 42
4019 12
4020 10
4021 23
4022 10
4023 21
4024 1
4025 5
4026 23
4027 24
4028 5
4029 29
4030 27
4031 5
4032 1
4033 12
4034 46
4035 2
4036 12
4037 31
4038 11
4039 54
4040 23
4041 0
4042 12
4043 12
4044 55
4045 18
4046 4
4047 6
4048 5
4049 1
4050 1
4051 37
4052 0
4053 5
4054 10
4055 0
4056 5
4057 6
4058 0
4059 38
4060 5
4061 10
4062 1
4063 30
4064 23
4065 1
4066 5
4067 12
4068 53
4069 6
4070 0
4071 20
4072 5
4073 23
4074 12
4075 0
4076 5
4077 57
4078 54
4079 25
4080 34
4081 5
4082 1
4083 2
4084 12
4085 0
4086 20
4087 5
4088 31
4089 11
4090 0
4091 31
4092 23
4093 2
4094 10
4095 50
4096 42
4097 55
4098 23
4099 20
4100 22
4101 12
4102 0
4103 53
4104 42
4105 32
4106 29
4107 5
4108 5
4109 14
4110 30
4111 34
4112 4
4113 27
4114 5
4115 29
4116 12
4117 8
4118 9
4119 1
4120 30
4121 1
4122 19
4123 0
4124 33
4125 0
4126 45
4127 0
4128 28
4129 2
4130 30
4131 26
4132 53
4133 43
4134 8
4135 50
4136 1
4137 21
4138 5
4139 8
4140 7
4141 26
4142 2
4143 2
4144 5
4145 12
4146 26
4147 8
4148 47
4149 8
4150 12
4151 5
4152 1
4153 25
4154 0
4155 12
4156 54
4157 2
4158 0
4159 18
4160 5
4161 0
4162 12
4163 61
4164 39
4165 51
4166 30
4167 3
4168 0
4169 0
4170 2
4171 5
4172 53
4173 12
4174 21
4175 1
4176 55
4177 8
4178 2
4179 4
4180 12
4181 1
4182 5
4183 8
4184 5
4185 39
4186 1
4187 14
4188 12
4189 14
4190 5
4191 58
4192 45
4193 0
4194 5
4195 23
4196 43
4197 6
4198 1
4199 26
4200 0
4201 20
4202 4
4203 33
4204 12
4205 10
4206 16
4207 20
4208 45
4209 3
4210 8
4211 8
4212 9
4213 31
4214 11
4215 5
4216 6
4217 7
4218 12
4219 0
4220 40
4221 47
4222 0
4223 5
4224 12
4225 2
4226 20
4227 48
4228 5
4229 18
4230 17
4231 0
4232 1
4233 17
4234 15
4235 12
4236 25
4237 11
4238 5
4239 0
4240 27
4241 20
4242 47
4243 45
4244 5
4245 5
4246 0
4247 56
4248 30
4249 23
4250 20
4251 29
4252 14
4253 55
4254 2
4255 2
4256 62
4257 12
4258 12
4259 31
4260 5
4261 5
4262 17
4263 5
4264 12
4265 1
4266 12
4267 45
4268 25
4269 6
4270 14
4271 5
4272 5
4273 5
4274 30
4275 14
4276 12
4277 54
4278 5
4279 2
4280 3
4281 20
4282 8
4283 23
4284 12
4285 0
4286 27
4287 34
4288 5
4289 12
4290 6
4291 12
4292 15
4293 23
4294 12
4295 6
4296 12
4297 0
4298 33
4299 38
4300 5
4301 25
4302 1
4303 8
4304 12
4305 8
4306 5
4307 17
4308 3
4309 15
4310 5
4311 29
4312 19
4313 0
4314 45
4315 12
4316 20
4317 12
4318 24
4319 4
4320 7
4321 19
4322 7
4323 35
4324 13
4325 12
4326 3
4327 12
4328 2
4329 0
4330 8
4331 8
4332 0
4333 35
4334 35
4335 7
4336 14
4337 7
4338 24
4339 1
4340 25
4341 35
4342 38
4343 5
4344 32
4345 46
4346 12
4347 29
4348 35
4349 12
4350 1
4351 12
4352 35
4353 57
4354 0
4355 25
4356 0
4357 1
4358 34
4359 1
4360 2
4361 8
4362 1
4363 0
4364 12
4365 5
4366 2
4367 0
4368 45
4369 5
4370 52
4371 53
4372 13
4373 34
4374 5
4375 12
4376 52
4377 5
4378 25
4379 15
4380 19
4381 1
4382 38
4383 6
4384 1
4385 6
4386 21
4387 1
4388 8
4389 11
4390 13
4391 42
4392 15
4393 10
4394 0
4395 23
4396 42
4397 8
4398 5
4399 12
4400 1
4401 28
4402 0
4403 45
4404 26
4405 5
4406 13
4407 16
4408 1
4409 12
4410 25
4411 5
4412 1
4413 5
4414 42
4415 6
4416 12
4417 53
4418 6
4419 5
4420 23
4421 57
4422 12
4423 25
4424 1
4425 20
4426 0
4427 34
4428 29
4429 0
4430 1
4431 4
4432 15
4433 0
4434 43
4435 59
4436 26
4437 12
4438 6
4439 12
4440 12
4441 12
4442 5
4443 12
4444 5
4445 58
4446 3
4447 35
4448 62
4449 41
4450 5
4451 1
4452 5
4453 7
4454 5
4455 1
4456 48
4457 0
4458 12
4459 1
4460 42
4461 23
4462 5
4463 38
4464 5
4465 30
4466 42
4467 1
4468 8
4469 1
4470 0
4471 10
4472 34
4473 1
4474 12
4475 23
4476 10
4477 12
4478 12
4479 0
4480 0
4481 12
4482 1
4483 48
4484 0
4485 12
4486 29
4487 0
4488 5
4489 8
4490 47
4491 13
4492 12
4493 0
4494 16
4495 0
4496 23
4497 0
4498 14
4499 12
4500 4
4501 5
4502 12
4503 0
4504 12
4505 42
4506 25
4507 42
4508 12
4509 1
4510 0
4511 30
4512 45
4513 14
4514 0
4515 0
4516 5
4517 5
4518 0
4519 5
4520 61
4521 1
4522 23
4523 4
4524 29
4525 12
4526 8
4527 49
4528 1
4529 19
4530 59
4531 12
4532 23
4533 0
4534 4
4535 1
4536 6
4537 0
4538 0
4539 7
4540 2
4541 29
4542 2
4543 10
4544 5
4545 12
4546 12
4547 1
4548 4
4549 0
4550 2
4551 43
4552 5
4553 5
4554 5
4555 17
4556 25
4557 5
4558 29
4559 42
4560 12
4561 12
4562 5
4563 30
4564 1
4565 20
4566 43
4567 4
4568 0
4569 4
4570 2
4571 26
4572 5
4573 8
4574 0
4575 18
4576 17
4577 1
4578 0
4579 2
4580 57
4581 23
4582 50
4583 8
4584 1
4585 5
4586 0
4587 0
4588 30
4589 59
4590 12
4591 0
4592 2
4593 16
4594 5
4595 18
4596 42
4597 2
4598 29
4599 0
4600 24
4601 12
4602 0
4603 5
4604 2
4605 1
4606 17
4607 1
4608 50
4609 2
4610 12
4611 1
4612 29
4613 2
4614 57
4615 1
4616 1
4617 1
4618 22
4619 53
4620 18
4621 1
4622 31
4623 37
4624 34
4625 29
4626 23
4627 1
4628 4
4629 0
4630 6
4631 30
4632 30
4633 2
4634 23
4635 0
4636 27
4637 8
4638 0
4639 30
4640 1
4641 8
4642 31
4643 60
4644 12
4645 12
4646 21
4647 5
4648 10
4649 7
4650 22
4651 31
4652 19
4653 19
4654 13
4655 1
4656 56
4657 12
4658 7
4659 0
4660 5
4661 12
4662 2
4663 12
4664 12
4665 25
4666 0
4667 25
4668 5
4669 21
4670 12
4671 8
4672 18
4673 20
4674 25
4675 48
4676 0
4677 0
4678 2
4679 0
4680 46
4681 43
4682 31
4683 8
4684 26
4685 12
4686 5
4687 5
4688 33
4689 12
4690 20
4691 0
4692 5
4693 48
4694 1
4695 12
4696 1
4697 12
4698 34
4699 5
4700 12
4701 0
4702 21
4703 8
4704 12
4705 57
4706 20
4707 1
4708 21
4709 12
4710 2
4711 16
4712 12
4713 48
4714 50
4715 23
4716 29
4717 2
4718 4
4719 1
4720 2
4721 62
4722 31
4723 23
4724 27
4725 4
4726 31
4727 25
4728 21
4729 42
4730 53
4731 0
4732 1
4733 0
4734 10
4735 11
4736 6
4737 1
4738 0
4739 12
4740 5
4741 1
4742 1
4743 2
4744 3
4745 12
4746 54
4747 20
4748 2
4749 12
4750 12
4751 1
4752 0
4753 12
4754 51
4755 2
4756 5
4757 25
4758 35
4759 5
4760 46
4761 5
4762 1
4763 26
4764 1
4765 0
4766 8
4767 16
4768 53
4769 18
4770 11
4771 12
4772 10
4773 20
4774 5
4775 0
4776 1
4777 29
4778 5
4779 50
4780 1
4781 0
4782 0
4783 12
4784 0
4785 29
4786 35
4787 0
4788 0
4789 6
4790 42
4791 2
4792 2
4793 5
4794 8
4795 0
4796 45
4797 0
4798 19
4799 12
4800 0
4801 34
4802 12
4803 5
4804 0
4805 0
4806 11
4807 14
4808 12
4809 1
4810 21
4811 1
4812 8
4813 2
4814 0
4815 0
4816 40
4817 1
4818 12
4819 12
4820 0
4821 5
4822 2
4823 38
4824 3
4825 5
4826 2
4827 0
4828 0
4829 23
4830 12
4831 2
4832 42
4833 34
4834 12
4835 8
4836 5
4837 8
4838 5
4839 23
4840 5
4841 1
4842 6
4843 23
4844 12
4845 12
4846 45
4847 1
4848 12
4849 2
4850 12
4851 5
4852 29
4853 6
4854 5
4855 1
4856 4
4857 41
4858 1
4859 2
4860 5
4861 26
4862 12
4863 5
4864 7
4865 1
4866 1
4867 0
4868 41
4869 6
4870 5
4871 5
4872 8
4873 6
4874 5
4875 0
4876 11
4877 0
4878 0
4879 12
4880 10
4881 20
4882 34
4883 38
4884 38
4885 1
4886 2
4887 54
4888 12
4889 10
4890 6
4891 12
4892 19
4893 42
4894 41
4895 0
4896 1
4897 1
4898 0
4899 25
4900 42
4901 1
4902 1
4903 5
4904 5
4905 23
4906 33
4907 40
4908 0
4909 1
4910 0
4911 12
4912 49
4913 6
4914 12
4915 3
4916 12
4917 0
4918 20
4919 1
4920 8
4921 12
4922 1
4923 8
4924 2
4925 6
4926 0
4927 1
4928 5
4929 20
4930 48
4931 1
4932 44
4933 0
4934 42
4935 5
4936 2
4937 1
4938 1
4939 1
4940 1
4941 21
4942 5
4943 54
4944 41
4945 5
4946 6
4947 19
4948 19
4949 42
4950 23
4951 1
4952 40
4953 1
4954 5
4955 12
4956 50
4957 0
4958 1
4959 8
4960 2
4961 55
4962 6
4963 2
4964 12
4965 18
4966 30
4967 1
4968 1
4969 23
4970 1
4971 23
4972 5
4973 6
4974 42
4975 63
4976 12
4977 6
4978 23
4979 8
4980 2
4981 12
4982 12
4983 2
4984 10
4985 19
4986 8
4987 12
4988 25
4989 10
4990 12
4991 18
4992 12
4993 34
4994 41
4995 2
4996 5
4997 5
4998 26
4999 12
5000 34
5001 2
5002 23
5003 0
5004 12
5005 12
5006 29
5007 27
5008 5
5009 3
5010 5
5011 1
5012 23
5013 7
5014 8
5015 3
5016 11
5017 17
5018 0
5019 2
5020 42
5021 18
5022 12
5023 20
5024 6
5025 0
5026 2
5027 23
5028 12
5029 0
5030 5
5031 0
5032 2
5033 2
5034 0
5035 48
5036 23
5037 49
5038 23
5039 5
5040 42
5041 4
5042 5
5043 1
5044 35
5045 12
5046 43
5047 1
5048 7
5049 0
5050 0
5051 6
5052 5
5053 1
5054 42
5055 0
5056 2
5057 2
5058 5
5059 1
5060 5
5061 12
5062 5
5063 18
5064 1
5065 27
5066 29
5067 5
5068 0
5069 8
5070 5
5071 5
5072 1
5073 2
5074 42
5075 5
5076 5
5077 5
5078 5
5079 23
5080 1
5081 12
5082 2
5083 5
5084 4
5085 7
5086 42
5087 1
5088 11
5089 0
5090 30
5091 0
5092 5
5093 12
5094 1
5095 37
5096 18
5097 2
5098 1
5099 5
5100 0
5101 31
5102 2
5103 12
5104 0
5105 24
5106 25
5107 1
5108 8
5109 5
5110 1
5111 12
5112 5
5113 42
5114 12
5115 5
5116 43
5117 23
5118 1
5119 12
5120 12
5121 1
5122 31
5123 12
5124 2
5125 42
5126 20
5127 57
5128 5
5129 1
5130 11
5131 0
5132 23
5133 31
5134 43
5135 21
5136 5
5137 19
5138 57
5139 18
5140 41
5141 3
5142 21
5143 20
5144 20
5145 8
5146 2
5147 30
5148 26
5149 37
5150 34
5151 1
5152 2
5153 11
5154 1
5155 2
5156 30
5157 1
5158 18
5159 53
5160 1
5161 12
5162 0
5163 5
5164 2
5165 6
5166 0
5167 1
5168 2
5169 12
5170 21
5171 57
5172 10
5173 5
5174 52
5175 12
5176 46
5177 5
5178 12
5179 2
5180 0
5181 5
5182 0
5183 8
5184 23
5185 25
5186 23
5187 5
5188 0
5189 12
5190 1
5191 42
5192 1
5193 2
5194 23
5195 18
5196 2
5197 0
5198 29
5199 12
5200 0
5201 0
5202 0
5203 5
5204 24
5205 5
5206 23
5207 54
5208 12
5209 5
5210 29
5211 5
5212 0
5213 54
5214 40
5215 12
5216 42
5217 12
5218 5
5219 30
5220 0
5221 6
5222 8
5223 23
5224 32
5225 1
5226 10
5227 5
5228 12
5229 4
5230 12
5231 14
5232 1
5233 12
5234 5
5235 10
5236 13
5237 33
5238 19
5239 2
5240 29
5241 5
5242 11
5243 6
5244 17
5245 2
5246 1
5247 23
5248 1
5249 12
5250 30
5251 30
5252 21
5253 26
5254 12
5255 30
5256 0
5257 5
5258 12
5259 53
5260 0
5261 1
5262 47
5263 0
5264 12
5265 1
5266 12
5267 45
5268 12
5269 4
5270 0
5271 2
5272 13
5273 12
5274 0
5275 23
5276 1
5277 0
5278 55
5279 12
5280 5
5281 2
5282 12
5283 18
5284 23
5285 21
5286 55
5287 12
5288 5
5289 1
5290 1
5291 1
5292 25
5293 12
5294 28
5295 25
5296 1
5297 24
5298 35
5299 0
5300 20
5301 2
5302 1
5303 12
5304 5
5305 1
5306 1
5307 20
5308 6
5309 5
5310 41
5311 1
5312 12
5313 1
5314 3
5315 0
5316 5
5317 5
5318 0
5319 5
5320 11
5321 1
5322 12
5323 12
5324 16
5325 5
5326 53
5327 53
5328 30
5329 0
5330 12
5331 26
5332 57
5333 46
5334 24
5335 29
5336 21
5337 0
5338 3
5339 1
5340 24
5341 12
5342 0
5343 6
5344 1
5345 8
5346 1
5347 41
5348 1
5349 12
5350 18
5351 42
5352 24
5353 6
5354 54
5355 12
5356 25
5357 29
5358 54
5359 34
5360 8
5361 5
5362 5
5363 5
5364 20
5365 12
5366 5
5367 12
5368 1
5369 12
5370 2
5371 54
5372 1
5373 18
5374 12
5375 2
5376 12
5377 6
5378 4
5379 12
5380 0
5381 5
5382 0
5383 5
5384 5
5385 1
5386 23
5387 5
5388 1
5389 0
5390 0
5391 0
5392 42
5393 23
5394 0
5395 6
5396 16
5397 5
5398 57
5399 31
5400 28
5401 2
5402 12
5403 42
5404 5
5405 41
5406 0
5407 2
5408 1
5409 0
5410 1
5411 0
5412 8
5413 1
5414 1
5415 34
5416 1
5417 20
5418 6
5419 1
5420 43
5421 41
5422 51
5423 42
5424 43
5425 15
5426 29
5427 11
5428 29
5429 57
5430 1
5431 12
5432 0
5433 8
5434 12
5435 27
5436 5
5437 5
5438 12
5439 0
5440 58
5441 48
5442 58
5443 1
5444 0
5445 19
5446 2
5447 0
5448 6
5449 11
5450 6
5451 33
5452 0
5453 11
5454 0
5455 0
5456 12
5457 23
5458 51
5459 41
5460 5
5461 5
5462 59
5463 18
5464 12
5465 0
5466 4
5467 21
5468 5
5469 12
5470 27
5471 2
5472 30
5473 0
5474 9
5475 12
5476 25
5477 0
5478 0
5479 26
5480 36
5481 12
5482 33
5483 27
5484 6
5485 0
5486 15
5487 1
5488 29
5489 12
5490 48
5491 5
5492 1
5493 10
5494 1
5495 15
5496 10
5497 12
5498 12
5499 12
5500 0
5501 13
5502 2
5503 0
5504 1
5505 51
5506 8
5507 42
5508 25
5509 5
5510 43
5511 5
5512 5
5513 0
5514 40
5515 5
5516 0
5517 17
5518 29
5519 1
5520 41
5521 12
5522 12
5523 53
5524 5
5525 10
5526 13
5527 4
5528 12
5529 43
5530 20
5531 1
5532 1
5533 2
5534 34
5535 0
5536 5
5537 1
5538 17
5539 30
5540 5
5541 5
5542 5
5543 5
5544 5
5545 12
5546 1
5547 12
5548 2
5549 59
5550 2
5551 5
5552 23
5553 25
5554 0
5555 19
5556 12
5557 30
5558 0
5559 12
5560 42
5561 27
5562 1
5563 35
5564 7
5565 44
5566 5
5567 17
5568 2
5569 0
5570 1
5571 5
5572 12
5573 2
5574 43
5575 57
5576 10
5577 40
5578 1
5579 1
5580 43
5581 1
5582 2
5583 5
5584 23
5585 5
5586 41
5587 43
5588 20
5589 8
5590 57
5591 2
5592 2
5593 1
5594 49
5595 25
5596 1
5597 14
5598 42
5599 40
5600 0
5601 29
5602 54
5603 5
5604 0
5605 58
5606 0
5607 5
5608 5
5609 37
5610 27
5611 1
5612 23
5613 53
5614 5
5615 1
5616 4
5617 29
5618 0
5619 21
5620 7
5621 10
5622 5
5623 5
5624 5
5625 12
5626 0
5627 29
5628 34
5629 37
5630 34
5631 6
5632 20
5633 23
5634 0
5635 38
5636 2
5637 42
5638 53
5639 10
5640 42
5641 12
5642 6
5643 21
5644 1
5645 23
5646 31
5647 2
5648 36
5649 1
5650 34
5651 23
5652 40
5653 23
5654 0
5655 5
5656 1
5657 49
5658 10
5659 9
5660 1
5661 12
5662 52
5663 23
5664 35
5665 0
5666 7
5667 50
5668 5
5669 10
5670 18
5671 13
5672 5
5673 24
5674 26
5675 17
5676 20
5677 30
5678 19
5679 2
5680 12
5681 4
5682 1
5683 50
5684 40
5685 12
5686 29
5687 7
5688 0
5689 12
5690 4
5691 1
5692 5
5693 42
5694 8
5695 12
5696 21
5697 0
5698 0
5699 12
5700 5
5701 23
5702 11
5703 5
5704 42
5705 0
5706 1
5707 12
5708 11
5709 12
5710 3
5711 29
5712 5
5713 5
5714 48
5715 1
5716 1
5717 5
5718 1
5719 0
5720 5
5721 29
5722 0
5723 6
5724 21
5725 21
5726 12
5727 29
5728 47
5729 1
5730 0
5731 0
5732 15
5733 25
5734 10
5735 20
5736 0
5737 25
5738 53
5739 3
5740 2
5741 42
5742 26
5743 1
5744 12
5745 1
5746 12
5747 12
5748 30
5749 12
5750 5
5751 0
5752 11
5753 5
5754 12
5755 12
5756 5
5757 42
5758 2
5759 2
5760 4
5761 5
5762 12
5763 12
5764 2
5765 0
5766 40
5767 15
5768 12
5769 45
5770 12
5771 56
5772 27
5773 5
5774 12
5775 42
5776 1
5777 2
5778 17
5779 12
5780 8
5781 12
5782 25
5783 0
5784 45
5785 2
5786 25
5787 11
5788 2
5789 0
5790 55
5791 5
5792 12
5793 12
5794 1
5795 42
5796 45
5797 0
5798 1
5799 1
5800 35
5801 23
5802 5
5803 6
5804 5
5805 29
5806 1
5807 1
5808 1
5809 21
5810 27
5811 0
5812 29
5813 2
5814 21
5815 2
5816 26
5817 29
5818 2
5819 42
5820 29
5821 5
5822 1
5823 23
5824 34
5825 10
5826 6
5827 42
5828 5
5829 2
5830 7
5831 42
5832 38
5833 0
5834 1
5835 28
5836 12
5837 5
5838 5
5839 1
5840 52
5841 46
5842 0
5843 0
5844 23
5845 2
5846 12
5847 5
5848 12
5849 10
5850 2
5851 2
5852 0
5853 12
5854 5
5855 13
5856 12
5857 23
5858 0
5859 10
5860 12
5861 5
5862 5
5863 49
5864 54
5865 1
5866 18
5867 5
5868 2
5869 12
5870 1
5871 12
5872 0
5873 2
5874 0
5875 42
5876 21
5877 0
5878 12
5879 5
5880 12
5881 63
5882 20
5883 1
5884 12
5885 2
5886 3
5887 5
5888 11
5889 0
5890 1
5891 2
5892 23
5893 0
5894 2
5895 1
5896 12
5897 0
5898 5
5899 2
5900 12
5901 0
5902 12
5903 19
5904 12
5905 42
5906 6
5907 42
5908 1
5909 0
5910 1
5911 1
5912 4
5913 5
5914 12
5915 10
5916 42
5917 25
5918 23
5919 29
5920 39
5921 45
5922 5
5923 2
5924 0
5925 2
5926 5
5927 2
5928 12
5929 0
5930 12
5931 3
5932 42
5933 12
5934 6
5935 12
5936 18
5937 1
5938 2
5939 12
5940 29
5941 6
5942 42
5943 1
5944 0
5945 18
5946 0
5947 23
5948 57
5949 5
5950 0
5951 12
5952 6
5953 6
5954 8
5955 10
5956 0
5957 23
5958 35
5959 5
5960 2
5961 10
5962 0
5963 2
5964 2
5965 40
5966 40
5967 0
5968 0
5969 1
5970 7
5971 12
5972 29
5973 12
5974 12
5975 0
5976 10
5977 25
5978 2
5979 1
5980 5
5981 45
5982 5
5983 5
5984 12
5985 4
5986 31
5987 12
5988 25
5989 12
5990 5
5991 29
5992 0
5993 42
5994 2
5995 0
5996 12
5997 29
5998 43
5999 34
6000 1
6001 5
6002 0
6003 34
6004 42
6005 12
6006 2
6007 5
6008 7
6009 25
6010 5
6011 8
6012 1
6013 12
6014 2
6015 1
6016 12
6017 1
6018 4
6019 0
6020 12
6021 5
6022 5
6023 5
6024 5
6025 2
6026 12
6027 8
6028 26
6029 0
6030 29
6031 46
6032 23
6033 27
6034 3
6035 1
6036 12
6037 42
6038 42
6039 23
6040 4
6041 0
6042 12
6043 18
6044 25
6045 21
6046 1
6047 23
6048 56
6049 55
6050 5
6051 53
6052 12
6053 56
6054 5
6055 0
6056 2
6057 53
6058 5
6059 12
6060 5
6061 60
6062 53
6063 1
6064 18
6065 40
6066 0
6067 23
6068 7
6069 19
6070 12
6071 23
6072 23
6073 21
6074 30
6075 29
6076 12
6077 12
6078 2
6079 1
6080 0
6081 12
6082 3
6083 42
6084 56
6085 2
6086 5
6087 12
6088 27
6089 34
6090 12
6091 1
6092 3
6093 1
6094 0
6095 20
6096 41
6097 1
6098 43
6099 12
6100 54
6101 50
6102 0
6103 8
6104 12
6105 29
6106 12
6107 1
6108 55
6109 20
6110 15
6111 43
6112 61
6113 12
6114 12
6115 2
6116 12
6117 12
6118 5
6119 0
6120 12
6121 1
6122 24
6123 1
6124 12
6125 37
6126 0
6127 12
6128 12
6129 5
6130 0
6131 0
6132 2
6133 12
6134 5
6135 53
6136 18
6137 0
6138 0
6139 34
6140 6
6141 25
6142 29
6143 25
6144 5
6145 31
6146 12
6147 23
6148 54
6149 12
6150 57
6151 49
6152 12
6153 12
6154 5
6155 31
6156 10
6157 5
6158 0
6159 12
6160 29
6161 0
6162 2
6163 13
6164 9
6165 43
6166 1
6167 5
6168 12
6169 0
6170 29
6171 42
6172 33
6173 17
6174 8
6175 28
6176 1
6177 30
6178 49
6179 27
6180 2
6181 5
6182 0
6183 5
6184 5
6185 5
6186 19
6187 49
6188 2
6189 20
6190 24
6191 12
6192 17
6193 10
6194 18
6195 12
6196 5
6197 10
6198 20
6199 31
6200 53
6201 43
6202 2
6203 48
6204 1
6205 0
6206 33
6207 2
6208 30
6209 33
6210 15
6211 1
6212 8
6213 12
6214 2
6215 5
6216 8
6217 20
6218 23
6219 2
6220 29
6221 0
6222 2
6223 9
6224 1
6225 5
6226 5
6227 31
6228 12
6229 1
6230 5
6231 63
6232 8
6233 12
6234 0
6235 44
6236 25
6237 58
6238 0
6239 43
6240 0
6241 0
6242 31
6243 1
6244 1
6245 28
6246 8
6247 14
6248 38
6249 43
6250 58
6251 2
6252 38
6253 1
6254 31
6255 41
6256 12
6257 5
6258 9
6259 2
6260 17
6261 10
6262 57
6263 42
6264 10
6265 5
6266 0
6267 25
6268 42
6269 1
6270 18
6271 29
6272 5
6273 12
6274 55
6275 0
6276 12
6277 5
6278 0
6279 1
6280 28
6281 14
6282 1
6283 1
6284 10
6285 10
6286 45
6287 29
6288 49
6289 6
6290 5
6291 4
6292 0
6293 5
6294 27
6295 2
6296 30
6297 7
6298 30
6299 2
6300 5
6301 6
6302 35
6303 49
6304 61
6305 0
6306 11
6307 11
6308 12
6309 1
6310 12
6311 31
6312 0
6313 40
6314 11
6315 23
6316 35
6317 25
6318 4
6319 6
6320 0
6321 5
6322 12
6323 5
6324 0
6325 19
6326 11
6327 37
6328 29
6329 21
6330 12
6331 12
6332 42
6333 27
6334 1
6335 2
6336 10
6337 11
6338 0
6339 29
6340 5
6341 2
6342 1
6343 6
6344 1
6345 53
6346 5
6347 0
6348 1
6349 12
6350 6
6351 0
6352 1
6353 1
6354 5
6355 25
6356 1
6357 3
6358 21
6359 53
6360 0
6361 0
6362 1
6363 40
6364 15
6365 42
6366 0
6367 25
6368 5
6369 1
6370 5
6371 0
6372 36
6373 43
6374 9
6375 57
6376 0
6377 0
6378 1
6379 5
6380 25
6381 5
6382 1
6383 54
6384 12
6385 29
6386 0
6387 38
6388 5
6389 7
6390 16
6391 1
6392 1
6393 1
6394 4
6395 0
6396 8
6397 23
6398 19
6399 29
6400 25
6401 8
6402 16
6403 21
6404 12
6405 15
6406 3
6407 0
6408 5
6409 4
6410 30
6411 5
6412 0
6413 5
6414 5
6415 12
6416 31
6417 1
6418 5
6419 53
6420 12
6421 12
6422 10
6423 46
6424 31
6425 46
6426 19
6427 1
6428 5
6429 12
6430 12
6431 48
6432 40
6433 24
6434 0
6435 0
6436 3
6437 40
6438 5
6439 0
6440 3
6441 38
6442 10
6443 33
6444 49
6445 48
6446 12
6447 46
6448 12
6449 12
6450 41
6451 5
6452 5
6453 31
6454 5
6455 31
6456 12
6457 12
6458 12
6459 8
6460 12
6461 21
6462 3
6463 12
6464 30
6465 0
6466 5
6467 5
6468 37
6469 15
6470 46
6471 12
6472 23
6473 0
6474 13
6475 1
6476 30
6477 12
6478 18
6479 41
6480 0
6481 2
6482 19
6483 5
6484 3
6485 5
6486 57
6487 7
6488 5
6489 12
6490 12
6491 31
6492 5
6493 12
6494 12
6495 21
6496 5
6497 5
6498 12
6499 42
6500 0
6501 8
6502 4
6503 59
6504 54
6505 12
6506 17
6507 12
6508 12
6509 12
6510 46
6511 0
6512 12
6513 4
6514 26
6515 0
6516 12
6517 12
6518 5
6519 1
6520 46
6521 17
6522 39
6523 42
6524 0
6525 12
6526 17
6527 13
6528 45
6529 0
6530 0
6531 5
6532 8
6533 0
6534 8
6535 5
6536 12
6537 12
6538 46
6539 6
6540 5
6541 10
6542 0
6543 0
6544 24
6545 1
6546 10
6547 5
6548 31
6549 20
6550 12
6551 6
6552 1
6553 42
6554 1
6555 12
6556 8
6557 1
6558 1
6559 10
6560 12
6561 30
6562 30
6563 12
6564 12
6565 8
6566 37
6567 12
6568 1
6569 42
6570 23
6571 1
6572 0
6573 5
6574 1
6575 1
6576 29
6577 12
6578 29
6579 1
6580 29
6581 1
6582 10
6583 5
6584 30
6585 8
6586 12
6587 51
6588 32
6589 37
6590 1
6591 29
6592 6
6593 5
6594 0
6595 5
6596 19
6597 4
6598 12
6599 0
6600 5
6601 8
6602 62
6603 12
6604 30
6605 12
6606 6
6607 12
6608 1
6609 10
6610 41
6611 12
6612 30
6613 58
6614 2
6615 5
6616 38
6617 12
6618 9
6619 12
6620 0
6621 41
6622 61
6623 5
6624 29
6625 12
6626 5
6627 29
6628 18
6629 2
6630 14
6631 5
6632 12
6633 14
6634 1
6635 10
6636 1
6637 1
6638 5
6639 1
6640 5
6641 1
6642 1
6643 5
6644 0
6645 53
6646 12
6647 43
6648 24
6649 23
6650 5
6651 23
6652 8
6653 7
6654 12
6655 6
6656 32
6657 5
6658 12
6659 23
6660 1
6661 15
6662 0
6663 5
6664 23
6665 11
6666 27
6667 12
6668 8
6669 40
6670 1
6671 5
6672 18
6673 43
6674 8
6675 2
6676 5
6677 12
6678 46
6679 48
6680 1
6681 9
6682 0
6683 54
6684 0
6685 12
6686 12
6687 2
6688 42
6689 8
6690 12
6691 5
6692 5
6693 0
6694 5
6695 5
6696 2
6697 12
6698 54
6699 28
6700 13
6701 21
6702 12
6703 12
6704 5
6705 23
6706 28
6707 12
6708 19
6709 31
6710 2
6711 4
6712 5
6713 6
6714 2
6715 0
6716 0
6717 2
6718 55
6719 0
6720 12
6721 0
6722 38
6723 54
6724 30
6725 1
6726 1
6727 36
6728 35
6729 20
6730 3
6731 0
6732 5
6733 5
6734 51
6735 6
6736 12
6737 30
6738 0
6739 20
6740 26
6741 31
6742 20
6743 7
6744 0
6745 1
6746 12
6747 19
6748 0
6749 12
6750 1
6751 13
6752 21
6753 43
6754 5
6755 0
6756 12
6757 25
6758 0
6759 12
6760 5
6761 38
6762 1
6763 42
6764 2
6765 2
6766 12
6767 5
6768 23
6769 2
6770 1
6771 1
6772 23
6773 0
6774 5
6775 2
6776 25
6777 20
6778 12
6779 0
6780 12
6781 5
6782 12
6783 1
6784 1
6785 2
6786 0
6787 1
6788 1
6789 1
6790 12
6791 5
6792 49
6793 21
6794 1
6795 12
6796 3
6797 2
6798 5
6799 0
6800 23
6801 5
6802 34
6803 42
6804 10
6805 56
6806 12
6807 0
6808 23
6809 1
6810 19
6811 4
6812 5
6813 1
6814 47
6815 2
6816 12
6817 0
6818 10
6819 41
6820 27
6821 12
6822 2
6823 0
6824 5
6825 10
6826 1
6827 23
6828 26
6829 22
6830 1
6831 6
6832 5
6833 5
6834 12
6835 5
6836 12
6837 1
6838 35
6839 42
6840 5
6841 26
6842 23
6843 12
6844 0
6845 43
6846 1
6847 5
6848 12
6849 1
6850 42
6851 1
6852 12
6853 12
6854 59
6855 0
6856 1
6857 42
6858 12
6859 12
6860 11
6861 57
6862 2
6863 1
6864 35
6865 2
6866 2
6867 5
6868 12
6869 5
6870 12
6871 12
6872 38
6873 12
6874 12
6875 12
6876 20
6877 1
6878 0
6879 42
6880 35
6881 5
6882 0
6883 1
6884 1
6885 0
6886 5
6887 0
6888 5
6889 1
6890 5
6891 15
6892 7
6893 12
6894 11
6895 12
6896 5
6897 5
6898 0
6899 5
6900 23
6901 29
6902 12
6903 25
6904 5
6905 25
6906 5
6907 1
6908 42
6909 42
6910 1
6911 0
6912 0
6913 5
6914 42
6915 5
6916 58
6917 2
6918 0
6919 1
6920 12
6921 1
6922 5
6923 21
6924 23
6925 12
6926 18
6927 19
6928 5
6929 34
6930 2
6931 2
6932 12
6933 1
6934 5
6935 9
6936 12
6937 24
6938 37
6939 0
6940 5
6941 45
6942 0
6943 6
6944 7
6945 12
6946 11
6947 5
6948 42
6949 0
6950 26
6951 12
6952 1
6953 15
6954 2
6955 42
6956 1
6957 57
6958 6
6959 14
6960 12
6961 11
6962 12
6963 0
6964 47
6965 12
6966 0
6967 1
6968 29
6969 25
6970 18
6971 19
6972 1
6973 50
6974 42
6975 12
6976 1
6977 5
6978 1
6979 18
6980 35
6981 1
6982 29
6983 1
6984 0
6985 15
6986 5
6987 42
6988 0
6989 12
6990 5
6991 35
6992 12
6993 1
6994 46
6995 9
6996 0
6997 29
6998 5
6999 25
7000 5
7001 0
7002 5
7003 18
7004 20
7005 30
7006 8
7007 51
7008 23
7009 24
7010 1
7011 1
7012 2
7013 0
7014 58
7015 2
7016 0
7017 1
7018 0
7019 1
7020 12
7021 6
7022 27
7023 1
7024 23
7025 12
7026 29
7027 6
7028 42
7029 12
7030 11
7031 2
7032 5
7033 0
7034 12
7035 29
7036 31
7037 8
7038 5
7039 12
7040 1
7041 2
7042 5
7043 0
7044 0
7045 23
7046 23
7047 1
7048 42
7049 26
7050 55
7051 1
7052 8
7053 2
7054 1
7055 5
7056 12
7057 23
7058 2
7059 1
7060 63
7061 48
7062 0
7063 6
7064 30
7065 12
7066 5
7067 25
7068 34
7069 1
7070 0
7071 12
7072 19
7073 0
7074 12
7075 12
7076 43
7077 35
7078 40
7079 56
7080 18
7081 16
7082 42
7083 5
7084 0
7085 18
7086 5
7087 19
7088 0
7089 6
7090 0
7091 37
7092 42
7093 49
7094 0
7095 42
7096 2
7097 17
7098 18
7099 10
7100 0
7101 34
7102 5
7103 1
7104 12
7105 25
7106 5
7107 23
7108 1
7109 1
7110 5
7111 43
7112 55
7113 18
7114 5
7115 5
7116 55
7117 42
7118 4
7119 1
7120 34
7121 2
7122 44
7123 12
7124 9
7125 5
7126 37
7127 19
7128 1
7129 12
7130 6
7131 5
7132 1
7133 5
7134 12
7135 2
7136 17
7137 18
7138 41
7139 0
7140 1
7141 29
7142 42
7143 5
7144 19
7145 0
7146 5
7147 0
7148 29
7149 10
7150 2
7151 12
7152 28
7153 5
7154 12
7155 12
7156 12
7157 14
7158 20
7159 5
7160 12
7161 1
7162 23
7163 1
7164 2
7165 50
7166 0
7167 2
7168 0
7169 1
7170 53
7171 1
7172 1
7173 19
7174 1
7175 1
7176 5
7177 11
7178 2
7179 5
7180 6
7181 12
7182 1
7183 5
7184 8
7185 17
7186 5
7187 54
7188 1
7189 7
7190 5
7191 2
7192 10
7193 9
7194 12
7195 8
7196 29
7197 8
7198 6
7199 0
7200 7
7201 1
7202 46
7203 10
7204 12
7205 12
7206 1
7207 26
7208 37
7209 47
7210 35
7211 0
7212 39
7213 12
7214 31
7215 50
7216 20
7217 53
7218 6
7219 0
7220 2
7221 27
7222 1
7223 2
7224 8
7225 2
7226 7
7227 25
7228 24
7229 42
7230 12
7231 18
7232 0
7233 30
7234 27
7235 2
7236 12
7237 5
7238 12
7239 4
7240 5
7241 25
7242 1
7243 1
7244 13
7245 12
7246 2
7247 0
7248 1
7249 9
7250 12
7251 0
7252 53
7253 12
7254 1
7255 5
7256 1
7257 0
7258 30
7259 43
7260 36
7261 8
7262 1
7263 60
7264 12
7265 0
7266 6
7267 43
7268 5
7269 1
7270 13
7271 23
7272 0
7273 0
7274 0
7275 0
7276 12
7277 25
7278 0
7279 34
7280 19
7281 12
7282 1
7283 12
7284 12
7285 17
7286 2
7287 30
7288 6
7289 5
7290 35
7291 5
7292 52
7293 1
7294 5
7295 46
7296 18
7297 12
7298 23
7299 23
7300 3
7301 5
7302 58
7303 12
7304 12
7305 50
7306 5
7307 5
7308 35
7309 7
7310 0
7311 12
7312 12
7313 2
7314 0
7315 0
7316 5
7317 12
7318 0
7319 48
7320 0
7321 0
7322 38
7323 2
7324 12
7325 15
7326 2
7327 23
7328 1
7329 49
7330 43
7331 15
7332 42
7333 12
7334 28
7335 0
7336 2
7337 26
7338 0
7339 2
7340 15
7341 12
7342 0
7343 0
7344 5
7345 12
7346 5
7347 29
7348 49
7349 0
7350 12
7351 0
7352 10
7353 25
7354 30
7355 8
7356 15
7357 1
7358 12
7359 14
7360 12
7361 35
7362 12
7363 19
7364 2
7365 58
7366 6
7367 12
7368 1
7369 27
7370 11
7371 21
7372 11
7373 5
7374 43
7375 0
7376 12
7377 15
7378 15
7379 5
7380 53
7381 9
7382 37
7383 0
7384 62
7385 8
7386 2
7387 9
7388 5
7389 0
7390 12
7391 25
7392 16
7393 34
7394 9
7395 1
7396 23
7397 62
7398 0
7399 0
7400 12
7401 25
7402 0
7403 5
7404 0
7405 0
7406 5
7407 53
7408 44
7409 42
7410 43
7411 23
7412 9
7413 1
7414 12
7415 0
7416 4
7417 10
7418 0
7419 25
7420 12
7421 12
7422 0
7423 2
7424 2
7425 12
7426 12
7427 0
7428 12
7429 25
7430 12
7431 39
7432 12
7433 29
7434 5
7435 9
7436 20
7437 0
7438 46
7439 1
7440 6
7441 5
7442 23
7443 40
7444 2
7445 16
7446 12
7447 12
7448 26
7449 5
7450 5
7451 12
7452 12
7453 2
7454 8
7455 0
7456 24
7457 2
7458 12
7459 34
7460 2
7461 0
7462 12
7463 5
7464 50
7465 5
7466 2
7467 12
7468 60
7469 5
7470 5
7471 40
7472 12
7473 54
7474 28
7475 0
7476 12
7477 11
7478 10
7479 2
7480 12
7481 21
7482 0
7483 6
7484 0
7485 12
7486 42
7487 14
7488 42
7489 39
7490 42
7491 0
7492 35
7493 10
7494 0
7495 43
7496 12
7497 1
7498 34
7499 2
7500 31
7501 0
7502 25
7503 37
7504 12
7505 40
7506 1
7507 1
7508 8
7509 13
7510 1
7511 2
7512 45
7513 0
7514 12
7515 3
7516 1
7517 12
7518 0
7519 28
7520 25
7521 12
7522 0
7523 12
7524 14
7525 31
7526 34
7527 12
7528 45
7529 48
7530 27
7531 5
7532 12
7533 1
7534 23
7535 22
7536 5
7537 12
7538 5
7539 0
7540 1
7541 1
7542 55
7543 3
7544 5
7545 4
7546 0
7547 16
7548 2
7549 42
7550 57
7551 0
7552 12
7553 2
7554 4
7555 45
7556 1
7557 45
7558 5
7559 2
7560 1
7561 1
7562 6
7563 12
7564 46
7565 5
7566 30
7567 12
7568 0
7569 42
7570 10
7571 5
7572 5
7573 1
7574 2
7575 49
7576 12
7577 6
7578 25
7579 20
7580 0
7581 29
7582 12
7583 1
7584 42
7585 12
7586 1
7587 5
7588 12
7589 0
7590 12
7591 12
7592 20
7593 5
7594 1
7595 1
7596 19
7597 20
7598 8
7599 29
7600 42
7601 2
7602 12
7603 49
7604 8
7605 2
7606 20
7607 25
7608 1
7609 0
7610 43
7611 5
7612 11
7613 1
7614 14
7615 26
7616 0
7617 16
7618 5
7619 0
7620 2
7621 29
7622 27
7623 0
7624 25
7625 35
7626 10
7627 5
7628 50
7629 23
7630 1
7631 40
7632 12
7633 12
7634 2
7635 12
7636 5
7637 2
7638 1
7639 25
7640 5
7641 42
7642 40
7643 5
7644 4
7645 44
7646 10
7647 2
7648 6
7649 8
7650 29
7651 5
7652 12
7653 14
7654 5
7655 2
7656 5
7657 1
7658 12
7659 12
7660 30
7661 1
7662 12
7663 11
7664 0
7665 18
7666 42
7667 1
7668 29
7669 30
7670 5
7671 2
7672 12
7673 24
7674 2
7675 42
7676 1
7677 12
7678 2
7679 27
7680 18
7681 10
7682 51
7683 30
7684 20
7685 38
7686 12
7687 13
7688 3
7689 0
7690 1
7691 29
7692 42
7693 19
7694 0
7695 12
7696 2
7697 58
7698 42
7699 12
7700 5
7701 12
7702 7
7703 1
7704 18
7705 1
7706 43
7707 36
7708 14
7709 2
7710 0
7711 1
7712 26
7713 5
7714 3
7715 29
7716 4
7717 5
7718 27
7719 5
7720 31
7721 59
7722 0
7723 12
7724 5
7725 32
7726 19
7727 12
7728 1
7729 5
7730 5
7731 21
7732 18
7733 29
7734 4
7735 1
7736 21
7737 33
7738 0
7739 2
7740 42
7741 0
7742 5
7743 3
7744 6
7745 34
7746 1
7747 1
7748 45
7749 2
7750 6
7751 4
7752 12
7753 5
7754 37
7755 12
7756 0
7757 6
7758 9
7759 54
7760 12
7761 43
7762 6
7763 60
7764 2
7765 1
7766 42
7767 32
7768 6
7769 0
7770 5
7771 1
7772 42
7773 35
7774 1
7775 41
7776 5
7777 5
7778 39
7779 0
7780 42
7781 12
7782 2
7783 30
7784 2
7785 20
7786 25
7787 10
7788 12
7789 20
7790 5
7791 0
7792 12
7793 37
7794 12
7795 2
7796 1
7797 21
7798 1
7799 12
7800 8
7801 39
7802 12
7803 1
7804 5
7805 1
7806 57
7807 34
7808 3
7809 2
7810 1
7811 1
7812 30
7813 26
7814 1
7815 12
7816 0
7817 0
7818 1
7819 5
7820 1
7821 15
7822 23
7823 5
7824 12
7825 48
7826 56
7827 8
7828 4
7829 0
7830 49
7831 42
7832 0
7833 5
7834 0
7835 0
7836 5
7837 5
7838 26
7839 5
7840 5
7841 2
7842 5
7843 12
7844 2
7845 42
7846 12
7847 6
7848 37
7849 5
7850 6
7851 8
7852 29
7853 0
7854 0
7855 12
7856 0
7857 11
7858 9
7859 29
7860 5
7861 2
7862 0
7863 42
7864 12
7865 56
7866 1
7867 12
7868 0
7869 39
7870 28
7871 0
7872 23
7873 12
7874 0
7875 0
7876 5
7877 55
7878 12
7879 0
7880 57
7881 12
7882 29
7883 28
7884 1
7885 30
7886 19
7887 5
7888 12
7889 1
7890 2
7891 42
7892 1
7893 53
7894 0
7895 0
7896 3
7897 0
7898 5
7899 2
7900 5
7901 2
7902 25
7903 5
7904 15
7905 38
7906 0
7907 12
7908 19
7909 1
7910 12
7911 10
7912 57
7913 5
7914 12
7915 5
7916 2
7917 29
7918 1
7919 5
7920 5
7921 1
7922 29
7923 29
7924 1
7925 0
7926 10
7927 12
7928 23
7929 29
7930 12
7931 45
7932 1
7933 12
7934 17
7935 0
7936 15
7937 12
7938 6
7939 0
7940 5
7941 8
7942 0
7943 12
7944 12
7945 23
7946 5
7947 5
7948 0
7949 0
7950 2
7951 23
7952 23
7953 5
7954 12
7955 1
7956 1
7957 0
7958 12
7959 1
7960 29
7961 43
7962 1
7963 12
7964 2
7965 0
7966 0
7967 34
7968 7
7969 34
7970 26
7971 25
7972 37
7973 5
7974 0
7975 5
7976 43
7977 1
7978 12
7979 23
7980 26
7981 42
7982 12
7983 12
7984 8
7985 2
7986 15
7987 0
7988 0
7989 21
7990 46
7991 25
7992 5
7993 5
7994 12
7995 13
7996 12
7997 15
7998 3
7999 43
8000 5
8001 37
8002 14
8003 13
8004 53
8005 0
8006 10
8007 8
8008 25
8009 12
8010 42
8011 0
8012 1
8013 4
8014 43
8015 5
8016 55
8017 12
8018 6
8019 0
8020 12
8021 15
8022 41
8023 58
8024 42
8025 2
8026 12
8027 0
8028 48
8029 5
8030 18
8031 42
8032 4
8033 29
8034 12
8035 5
8036 11
8037 6
8038 30
8039 19
8040 5
8041 23
8042 0
8043 5
8044 12
8045 29
8046 2
8047 41
8048 29
8049 1
8050 2
8051 0
8052 12
8053 5
8054 14
8055 12
8056 0
8057 23
8058 42
8059 34
8060 2
8061 42
8062 0
8063 12
8064 22
8065 11
8066 12
8067 12
8068 5
8069 10
8070 8
8071 5
8072 10
8073 14
8074 0
8075 29
8076 29
8077 1
8078 5
8079 5
8080 6
8081 1
8082 0
8083 0
8084 1
8085 4
8086 10
8087 12
8088 8
8089 29
8090 1
8091 1
8092 5
8093 30
8094 0
8095 1
8096 18
8097 23
8098 42
8099 53
8100 5
8101 1
8102 42
8103 30
8104 29
8105 40
8106 0
8107 2
8108 1
8109 7
8110 40
8111 8
8112 23
8113 23
8114 40
8115 12
8116 18
8117 1
8118 43
8119 12
8120 2
8121 12
8122 25
8123 1
8124 53
8125 1
8126 8
8127 0
8128 12
8129 8
8130 12
8131 12
8132 30
8133 1
8134 42
8135 29
8136 1
8137 12
8138 30
8139 37
8140 20
8141 18
8142 3
8143 54
8144 41
8145 0
8146 29
8147 1
8148 2
8149 12
8150 12
8151 4
8152 12
8153 42
8154 5
8155 42
8156 1
8157 0
8158 11
8159 12
8160 6
8161 8
8162 2
8163 1
8164 0
8165 12
8166 57
8167 12
8168 0
8169 23
8170 54
8171 25
8172 2
8173 5
8174 0
8175 11
8176 49
8177 1
8178 4
8179 2
8180 12
8181 14
8182 0
8183 25
8184 1
8185 2
8186 29
8187 0
8188 54
8189 5
8190 12
8191 8
8192 50
8193 2
8194 42
8195 21
8196 24
8197 12
8198 5
8199 0
8200 5
8201 27
8202 31
8203 5
8204 11
8205 14
8206 5
8207 34
8208 5
8209 15
8210 5
8211 43
8212 4
8213 8
8214 30
8215 29
8216 46
8217 53
8218 53
8219 1
8220 15
8221 34
8222 53
8223 1
8224 0
8225 0
8226 5
8227 5
8228 12
8229 43
8230 35
8231 2
8232 8
8233 22
8234 18
8235 6
8236 38
8237 1
8238 5
8239 2
8240 42
8241 8
8242 20
8243 2
8244 53
8245 2
8246 1
8247 6
8248 21
8249 44
8250 21
8251 8
8252 1
8253 1
8254 12
8255 6
8256 0
8257 5
8258 11
8259 52
8260 12
8261 23
8262 1
8263 12
8264 42
8265 8
8266 5
8267 6
8268 12
8269 53
8270 55
8271 53
8272 23
8273 42
8274 20
8275 0
8276 40
8277 5
8278 20
8279 5
8280 5
8281 0
8282 29
8283 8
8284 5
8285 61
8286 22
8287 5
8288 6
8289 53
8290 63
8291 7
8292 53
8293 30
8294 12
8295 12
8296 12
8297 16
8298 23
8299 8
8300 42
8301 50
8302 31
8303 3
8304 42
8305 1
8306 12
8307 2
8308 23
8309 25
8310 0
8311 21
8312 23
8313 10
8314 5
8315 12
8316 23
8317 42
8318 5
8319 29
8320 31
8321 12
8322 56
8323 5
8324 53
8325 8
8326 5
8327 8
8328 11
8329 6
8330 30
8331 22
8332 3
8333 25
8334 31
8335 25
8336 25
8337 5
8338 20
8339 42
8340 6
8341 46
8342 17
8343 50
8344 0
8345 0
8346 3
8347 29
8348 0
8349 0
8350 5
8351 12
8352 2
8353 46
8354 1
8355 31
8356 1
8357 19
8358 0
8359 53
8360 43
8361 12
8362 53
8363 50
8364 0
8365 29
8366 12
8367 20
8368 1
8369 5
8370 6
8371 6
8372 1
8373 5
8374 6
8375 5
8376 25
8377 18
8378 25
8379 18
8380 5
8381 24
8382 25
8383 19
8384 12
8385 25
8386 38
8387 19
8388 11
8389 5
8390 5
8391 12
8392 50
8393 12
8394 9
8395 12
8396 42
8397 0
8398 12
8399 37
8400 5
8401 30
8402 42
8403 6
8404 1
8405 20
8406 1
8407 10
8408 5
8409 27
8410 0
8411 12
8412 4
8413 24
8414 5
8415 29
8416 3
8417 1
8418 45
8419 0
8420 1
8421 18
8422 0
8423 61
8424 5
8425 0
8426 0
8427 35
8428 11
8429 1
8430 40
8431 0
8432 14
8433 53
8434 1
8435 30
8436 7
8437 22
8438 53
8439 12
8440 24
8441 6
8442 5
8443 34
8444 12
8445 12
8446 28
8447 21
8448 15
8449 12
8450 0
8451 1
8452 18
8453 12
8454 5
8455 0
8456 33
8457 1
8458 2
8459 12
8460 0
8461 43
8462 1
8463 0
8464 53
8465 25
8466 30
8467 11
8468 34
8469 12
8470 19
8471 2
8472 1
8473 38
8474 7
8475 1
8476 10
8477 5
8478 2
8479 0
8480 45
8481 1
8482 7
8483 18
8484 43
8485 5
8486 54
8487 1
8488 40
8489 42
8490 5
8491 31
8492 35
8493 54
8494 0
8495 4
8496 38
8497 0
8498 12
8499 12
8500 49
8501 2
8502 2
8503 29
8504 57
8505 2
8506 59
8507 54
8508 5
8509 45
8510 2
8511 5
8512 1
8513 25
8514 8
8515 12
8516 20
8517 19
8518 0
8519 0
8520 38
8521 5
8522 15
8523 25
8524 46
8525 21
8526 37
8527 5
8528 0
8529 1
8530 42
8531 20
8532 8
8533 0
8534 25
8535 1
8536 12
8537 41
8538 52
8539 34
8540 5
8541 38
8542 0
8543 12
8544 0
8545 4
8546 13
8547 12
8548 5
8549 2
8550 42
8551 26
8552 0
8553 5
8554 1
8555 25
8556 12
8557 1
8558 12
8559 0
8560 12
8561 5
8562 12
8563 5
8564 42
8565 0
8566 61
8567 1
8568 29
8569 15
8570 0
8571 29
8572 5
8573 0
8574 61
8575 36
8576 0
8577 1
8578 13
8579 12
8580 8
8581 2
8582 12
8583 42
8584 8
8585 12
8586 1
8587 2
8588 5
8589 43
8590 12
8591 16
8592 42
8593 0
8594 29
8595 29
8596 2
8597 1
8598 12
8599 29
8600 14
8601 43
8602 1
8603 5
8604 25
8605 2
8606 0
8607 0
8608 5
8609 5
8610 29
8611 5
8612 0
8613 0
8614 43
8615 6
8616 29
8617 8
8618 25
8619 2
8620 12
8621 12
8622 1
8623 1
8624 2
8625 53
8626 12
8627 58
8628 13
8629 5
8630 29
8631 0
8632 49
8633 0
8634 1
8635 0
8636 20
8637 1
8638 12
8639 55
8640 10
8641 53
8642 30
8643 41
8644 1
8645 24
8646 5
8647 3
8648 0
8649 38
8650 1
8651 20
8652 1
8653 6
8654 54
8655 0
8656 42
8657 0
8658 8
8659 42
8660 5
8661 15
8662 0
8663 24
8664 1
8665 12
8666 1
8667 0
8668 6
8669 45
8670 12
8671 54
8672 3
8673 42
8674 5
8675 1
8676 6
8677 23
8678 29
8679 29
8680 2
8681 37
8682 5
8683 1
8684 0
8685 1
8686 1
8687 15
8688 0
8689 18
8690 23
8691 12
8692 54
8693 20
8694 27
8695 36
8696 7
8697 29
8698 2
8699 1
8700 1
8701 12
8702 57
8703 23
8704 19
8705 31
8706 2
8707 42
8708 1
8709 31
8710 57
8711 8
8712 5
8713 0
8714 29
8715 18
8716 23
8717 38
8718 12
8719 21
8720 31
8721 20
8722 23
8723 5
8724 0
8725 2
8726 29
8727 27
8728 26
8729 20
8730 49
8731 0
8732 42
8733 0
8734 12
8735 0
8736 0
8737 11
8738 41
8739 12
8740 3
8741 12
8742 20
8743 5
8744 32
8745 25
8746 0
8747 33
8748 12
8749 8
8750 26
8751 2
8752 25
8753 27
8754 12
8755 1
8756 4
8757 38
8758 31
8759 1
8760 31
8761 44
8762 1
8763 46
8764 57
8765 1
8766 1
8767 44
8768 23
8769 13
8770 0
8771 1
8772 40
8773 12
8774 15
8775 0
8776 57
8777 35
8778 33
8779 2
8780 1
8781 34
8782 10
8783 35
8784 60
8785 12
8786 12
8787 0
8788 5
8789 23
8790 63
8791 12
8792 25
8793 1
8794 29
8795 1
8796 2
8797 0
8798 12
8799 47
8800 55
8801 33
8802 1
8803 1
8804 6
8805 25
8806 5
8807 6
8808 25
8809 46
8810 5
8811 0
8812 18
8813 30
8814 25
8815 0
8816 0
8817 40
8818 12
8819 2
8820 25
8821 3
8822 2
8823 15
8824 1
8825 5
8826 55
8827 0
8828 5
8829 55
8830 18
8831 13
8832 0
8833 45
8834 1
8835 2
8836 0
8837 25
8838 12
8839 42
8840 1
8841 12
8842 8
8843 1
8844 1
8845 12
8846 5
8847 30
8848 0
8849 25
8850 26
8851 6
8852 1
8853 5
8854 0
8855 12
8856 51
8857 0
8858 5
8859 5
8860 42
8861 0
8862 5
8863 0
8864 0
8865 1
8866 54
8867 1
8868 54
8869 1
8870 5
8871 1
8872 12
8873 12
8874 6
8875 2
8876 5
8877 0
8878 12
8879 38
8880 0
8881 53
8882 12
8883 2
8884 0
8885 12
8886 42
8887 30
8888 12
8889 25
8890 0
8891 0
8892 8
8893 0
8894 2
8895 23
8896 15
8897 12
8898 12
8899 6
8900 1
8901 29
8902 5
8903 5
8904 5
8905 45
8906 18
8907 0
8908 0
8909 34
8910 21
8911 12
8912 1
8913 17
8914 23
8915 21
8916 12
8917 12
8918 55
8919 17
8920 54
8921 12
8922 29
8923 54
8924 1
8925 26
8926 16
8927 4
8928 5
8929 11
8930 5
8931 5
8932 2
8933 4
8934 1
8935 53
8936 6
8937 12
8938 1
8939 1
8940 1
8941 21
8942 5
8943 7
8944 30
8945 0
8946 1
8947 0
8948 2
8949 3
8950 1
8951 4
8952 12
8953 1
8954 42
8955 36
8956 23
8957 5
8958 12
8959 12
8960 25
8961 1
8962 0
8963 12
8964 42
8965 35
8966 12
8967 1
8968 1
8969 5
8970 42
8971 10
8972 34
8973 2
8974 12
8975 35
8976 12
8977 5
8978 1
8979 23
8980 12
8981 42
8982 21
8983 6
8984 5
8985 12
8986 12
8987 39
8988 12
8989 2
8990 1
8991 5
8992 6
8993 1
8994 0
8995 3
8996 2
8997 5
8998 12
8999 0
9000 12
9001 1
9002 12
9003 0
9004 15
9005 0
9006 38
9007 12
9008 0
9009 1
9010 2
9011 1
9012 1
9013 23
9014 34
9015 6
9016 0
9017 2
9018 2
9019 18
9020 5
9021 29
9022 12
9023 1
9024 12
9025 18
9026 25
9027 42
9028 2
9029 40
9030 12
9031 29
9032 0
9033 12
9034 0
9035 1
9036 23
9037 12
9038 23
9039 8
9040 5
9041 6
9042 12
9043 2
9044 1
9045 12
9046 8
9047 19
9048 0
9049 23
9050 48
9051 2
9052 12
9053 2
9054 51
9055 25
9056 5
9057 56
9058 1
9059 8
9060 3
9061 12
9062 2
9063 18
9064 5
9065 21
9066 5
9067 0
9068 4
9069 1
9070 5
9071 12
9072 1
9073 12
9074 5
9075 5
9076 0
9077 1
9078 34
9079 51
9080 1
9081 23
9082 10
9083 12
9084 0
9085 12
9086 48
9087 0
9088 58
9089 5
9090 1
9091 42
9092 0
9093 8
9094 25
9095 43
9096 39
9097 30
9098 1
9099 1
9100 2
9101 34
9102 2
9103 6
9104 0
9105 10
9106 42
9107 5
9108 0
9109 2
9110 2
9111 12
9112 23
9113 8
9114 17
9115 29
9116 5
9117 0
9118 5
9119 5
9120 1
9121 34
9122 23
9123 2
9124 1
9125 57
9126 0
9127 1
9128 0
9129 1
9130 12
9131 12
9132 42
9133 0
9134 37
9135 10
9136 18
9137 23
9138 40
9139 1
9140 20
9141 2
9142 4
9143 12
9144 23
9145 0
9146 5
9147 10
9148 1
9149 12
9150 27
9151 1
9152 51
9153 12
9154 7
9155 5
9156 42
9157 12
9158 12
9159 1
9160 25
9161 18
9162 34
9163 1
9164 1
9165 0
9166 5
9167 36
9168 2
9169 8
9170 21
9171 1
9172 5
9173 7
9174 5
9175 5
9176 23
9177 23
9178 12
9179 12
9180 5
9181 5
9182 18
9183 0
9184 29
9185 8
9186 24
9187 23
9188 12
9189 1
9190 23
9191 0
9192 12
9193 5
9194 42
9195 30
9196 20
9197 1
9198 27
9199 23
9200 30
9201 31
9202 39
9203 5
9204 6
9205 39
9206 12
9207 0
9208 5
9209 18
9210 0
9211 30
9212 18
9213 2
9214 22
9215 0
9216 53
9217 20
9218 0
9219 57
9220 53
9221 12
9222 12
9223 12
9224 0
9225 8
9226 53
9227 43
9228 0
9229 5
9230 12
9231 1
9232 31
9233 0
9234 12
9235 57
9236 1
9237 18
9238 2
9239 1
9240 3
9241 12
9242 53
9243 48
9244 5
9245 17
9246 60
9247 2
9248 6
9249 10
9250 20
9251 1
9252 33
9253 40
9254 2
9255 29
9256 0
9257 5
9258 0
9259 61
9260 0
9261 42
9262 3
9263 12
9264 29
9265 48
9266 3
9267 1
9268 12
9269 12
9270 1
9271 31
9272 5
9273 29
9274 5
9275 5
9276 0
9277 12
9278 53
9279 12
9280 6
9281 2
9282 1
9283 10
9284 5
9285 12
9286 0
9287 2
9288 0
9289 8
9290 29
9291 0
9292 0
9293 12
9294 5
9295 0
9296 21
9297 12
9298 55
9299 4
9300 55
9301 35
9302 12
9303 53
9304 0
9305 12
9306 6
9307 12
9308 25
9309 0
9310 2
9311 23
9312 0
9313 20
9314 12
9315 12
9316 0
9317 1
9318 23
9319 43
9320 5
9321 1
9322 60
9323 21
9324 6
9325 0
9326 2
9327 20
9328 42
9329 25
9330 21
9331 1
9332 46
9333 5
9334 14
9335 5
9336 5
9337 0
9338 20
9339 23
9340 19
9341 11
9342 12
9343 12
9344 20
9345 23
9346 12
9347 43
9348 5
9349 9
9350 2
9351 53
9352 15
9353 12
9354 1
9355 0
9356 0
9357 0
9358 30
9359 30
9360 12
9361 27
9362 5
9363 56
9364 11
9365 17
9366 1
9367 0
9368 6
9369 0
9370 0
9371 1
9372 0
9373 1
9374 12
9375 2
9376 2
9377 8
9378 53
9379 0
9380 60
9381 31
9382 53
9383 0
9384 35
9385 6
9386 1
9387 6
9388 5
9389 0
9390 12
9391 42
9392 0
9393 0
9394 23
9395 37
9396 23
9397 30
9398 4
9399 12
9400 12
9401 2
9402 0
9403 12
9404 10
9405 1
9406 0
9407 1
9408 0
9409 38
9410 12
9411 49
9412 12
9413 4
9414 15
9415 2
9416 12
9417 10
9418 29
9419 2
9420 5
9421 42
9422 29
9423 1
9424 14
9425 17
9426 12
9427 38
9428 1
9429 0
9430 12
9431 12
9432 25
9433 12
9434 5
9435 53
9436 23
9437 5
9438 12
9439 0
9440 12
9441 12
9442 0
9443 6
9444 23
9445 5
9446 5
9447 42
9448 5
9449 10
9450 31
9451 12
9452 12
9453 55
9454 3
9455 0
9456 41
9457 0
9458 42
9459 2
9460 0
9461 1
9462 12
9463 48
9464 7
9465 47
9466 3
9467 0
9468 23
9469 53
9470 0
9471 5
9472 5
9473 12
9474 5
9475 9
9476 8
9477 2
9478 29
9479 48
9480 0
9481 7
9482 5
9483 12
9484 26
9485 5
9486 1
9487 5
9488 31
9489 0
9490 37
9491 11
9492 0
9493 31
9494 5
9495 4
9496 0
9497 5
9498 0
9499 42
9500 42
9501 11
9502 45
9503 40
9504 34
9505 1
9506 29
9507 30
9508 12
9509 2
9510 2
9511 12
9512 13
9513 10
9514 1
9515 8
9516 5
9517 18
9518 2
9519 38
9520 0
9521 5
9522 5
9523 26
9524 5
9525 5
9526 54
9527 5
9528 55
9529 1
9530 5
9531 12
9532 3
9533 12
9534 1
9535 42
9536 52
9537 31
9538 12
9539 52
9540 1
9541 0
9542 0
9543 8
9544 5
9545 2
9546 8
9547 6
9548 5
9549 31
9550 2
9551 1
9552 12
9553 12
9554 5
9555 0
9556 60
9557 35
9558 0
9559 1
9560 42
9561 0
9562 19
9563 12
9564 0
9565 19
9566 5
9567 8
9568 55
9569 5
9570 1
9571 30
9572 5
9573 11
9574 53
9575 5
9576 0
9577 0
9578 22
9579 40
9580 6
9581 8
9582 2
9583 25
9584 0
9585 42
9586 0
9587 5
9588 12
9589 5
9590 1
9591 5
9592 1
9593 1
9594 12
9595 1
9596 29
9597 5
9598 12
9599 57
9600 8
9601 55
9602 20
9603 55
9604 1
9605 6
9606 4
9607 42
9608 0
9609 42
9610 49
9611 22
9612 15
9613 15
9614 1
9615 23
9616 37
9617 12
9618 34
9619 4
9620 5
9621 42
9622 12
9623 0
9624 15
9625 12
9626 1
9627 12
9628 10
9629 0
9630 38
9631 1
9632 1
9633 1
9634 0
9635 0
9636 1
9637 53
9638 56
9639 5
9640 1
9641 2
9642 53
9643 5
9644 29
9645 23
9646 5
9647 12
9648 0
9649 1
9650 35
9651 1
9652 5
9653 12
9654 0
9655 5
9656 8
9657 1
9658 35
9659 42
9660 0
9661 0
9662 1
9663 1
9664 6
9665 1
9666 37
9667 29
9668 2
9669 2
9670 3
9671 14
9672 42
9673 25
9674 0
9675 12
9676 24
9677 29
9678 5
9679 49
9680 7
9681 42
9682 12
9683 5
9684 51
9685 5
9686 23
9687 1
9688 12
9689 1
9690 23
9691 0
9692 0
9693 12
9694 0
9695 8
9696 5
9697 12
9698 5
9699 30
9700 29
9701 12
9702 5
9703 0
9704 0
9705 5
9706 1
9707 2
9708 1
9709 12
9710 54
9711 30
9712 5
9713 16
9714 10
9715 6
9716 1
9717 12
9718 4
9719 1
9720 23
9721 2
9722 29
9723 0
9724 1
9725 26
9726 42
9727 1
9728 12
9729 16
9730 29
9731 23
9732 0
9733 5
9734 2
9735 12
9736 12
9737 6
9738 10
9739 23
9740 47
9741 45
9742 11
9743 5
9744 1
9745 5
9746 51
9747 43
9748 0
9749 13
9750 12
9751 12
9752 30
9753 8
9754 27
9755 2
9756 23
9757 12
9758 39
9759 26
9760 12
9761 41
9762 9
9763 29
9764 12
9765 27
9766 6
9767 12
9768 12
9769 12
9770 12
9771 1
9772 12
9773 24
9774 30
9775 23
9776 11
9777 57
9778 18
9779 2
9780 44
9781 1
9782 8
9783 54
9784 1
9785 21
9786 5
9787 62
9788 42
9789 5
9790 54
9791 12
9792 2
9793 5
9794 42
9795 58
9796 5
9797 0
9798 23
9799 2
9800 12
9801 54
9802 1
9803 5
9804 35
9805 21
9806 12
9807 35
9808 12
9809 0
9810 5
9811 18
9812 6
9813 12
9814 42
9815 6
9816 1
9817 18
9818 23
9819 5
9820 42
9821 12
9822 1
9823 12
9824 12
9825 2
9826 42
9827 0
9828 45
9829 50
9830 10
9831 29
9832 41
9833 12
9834 42
9835 27
9836 10
9837 2
9838 12
9839 1
9840 19
9841 29
9842 0
9843 0
9844 2
9845 11
9846 10
9847 1
9848 21
9849 5
9850 5
9851 0
9852 20
9853 5
9854 12
9855 2
9856 12
9857 23
9858 47
9859 2
9860 0
9861 0
9862 42
9863 2
9864 42
9865 2
9866 12
9867 27
9868 5
9869 6
9870 23
9871 2
9872 36
9873 57
9874 8
9875 5
9876 6
9877 23
9878 12
9879 1
9880 3
9881 5
9882 11
9883 15
9884 6
9885 49
9886 0
9887 38
9888 0
9889 4
9890 29
9891 30
9892 12
9893 5
9894 2
9895 6
9896 5
9897 26
9898 27
9899 49
9900 0
9901 1
9902 42
9903 6
9904 30
9905 5
9906 12
9907 2
9908 5
9909 5
9910 17
9911 2
9912 50
9913 0
9914 5
9915 0
9916 12
9917 29
9918 2
9919 0
9920 1
9921 0
9922 8
9923 21
9924 29
9925 27
9926 1
9927 0
9928 42
9929 23
9930 1
9931 44
9932 12
9933 0
9934 42
9935 23
9936 12
9937 1
9938 12
9939 12
9940 27
9941 8
9942 29
9943 37
9944 0
9945 1
9946 5
9947 1
9948 42
9949 11
9950 7
9951 0
9952 1
9953 12
9954 53
9955 29
9956 16
9957 12
9958 1
9959 3
9960 23
9961 12
9962 12
9963 1
9964 14
9965 2
9966 39
9967 12
9968 3
9969 12
9970 6
9971 15
9972 45
9973 1
9974 1
9975 6
9976 42
9977 30
9978 12
9979 23
9980 2
9981 12
9982 12
9983 12
9984 1
9985 5
9986 5
9987 0
9988 5
9989 34
9990 57
9991 12
9992 5
9993 12
9994 5
9995 9
9996 0
9997 12
9998 34
9999 5
