0 0
1 1
2 2
3 3
4 4
5 5
6 6
7 7
8 8
9 9
10 10
11 11
12 12
13 2
14 13
15 5
16 14
17 15
18 14
19 16
20 17
21 17
22 18
23 0
24 14
25 6
26 19
27 8
28 20
29 2
30 4
31 5
32 3
33 21
34 20
35 8
36 22
37 5
38 19
39 23
40 24
41 25
42 9
43 5
44 2
45 26
46 27
47 19
48 2
49 3
50 28
51 29
52 2
53 30
54 17
55 2
56 31
57 23
58 2
59 9
60 12
61 32
62 29
63 17
64 33
65 14
66 9
67 34
68 35
69 14
70 17
71 36
72 28
73 30
74 37
75 38
76 35
77 39
78 5
79 22
80 16
81 19
82 40
83 37
84 27
85 41
86 1
87 2
88 38
89 42
90 14
91 34
92 8
93 16
94 43
95 5
96 31
97 2
98 14
99 5
100 14
101 44
102 4
103 2
104 27
105 8
106 8
107 42
108 11
109 17
110 9
111 38
112 41
113 22
114 28
115 32
116 8
117 9
118 17
119 34
120 1
121 45
122 41
123 17
124 8
125 1
126 17
127 19
128 4
129 46
130 24
131 28
132 14
133 37
134 6
135 16
136 7
137 6
138 0
139 17
140 14
141 35
142 34
143 8
144 47
145 21
146 27
147 27
148 33
149 6
150 9
151 40
152 48
153 37
154 14
155 4
156 12
157 2
158 14
159 25
160 5
161 17
162 19
163 2
164 6
165 17
166 49
167 48
168 7
169 48
170 26
171 50
172 22
173 23
174 50
175 1
176 40
177 2
178 16
179 2
180 14
181 4
182 2
183 3
184 51
185 12
186 48
187 45
188 14
189 9
190 50
191 2
192 29
193 45
194 3
195 19
196 2
197 17
198 17
199 29
200 5
201 8
202 34
203 7
204 5
205 19
206 48
207 38
208 2
209 17
210 17
211 12
212 5
213 2
214 19
215 5
216 5
217 9
218 33
219 14
220 28
221 33
222 2
223 9
224 52
225 19
226 11
227 0
228 37
229 2
230 5
231 53
232 28
233 2
234 9
235 29
236 34
237 35
238 2
239 2
240 2
241 16
242 5
243 13
244 6
245 2
246 34
247 39
248 54
249 17
250 17
251 5
252 53
253 6
254 39
255 23
256 5
257 9
258 14
259 8
260 3
261 5
262 17
263 45
264 5
265 35
266 8
267 26
268 45
269 6
270 41
271 49
272 12
273 6
274 35
275 45
276 41
277 37
278 40
279 8
280 30
281 17
282 17
283 55
284 7
285 19
286 46
287 14
288 2
289 5
290 17
291 45
292 19
293 44
294 48
295 5
296 12
297 17
298 5
299 27
300 18
301 35
302 2
303 35
304 17
305 44
306 5
307 5
308 27
309 55
310 14
311 32
312 5
313 35
314 8
315 0
316 50
317 46
318 5
319 17
320 27
321 39
322 2
323 44
324 29
325 2
326 2
327 44
328 23
329 2
330 16
331 40
332 4
333 17
334 14
335 35
336 4
337 17
338 26
339 36
340 48
341 4
342 5
343 54
344 39
345 6
346 12
347 38
348 31
349 16
350 6
351 19
352 32
353 4
354 5
355 17
356 4
357 42
358 25
359 8
360 16
361 5
362 39
363 1
364 2
365 19
366 19
367 17
368 16
369 2
370 8
371 2
372 33
373 19
374 40
375 29
376 19
377 12
378 29
379 12
380 21
381 48
382 29
383 16
384 16
385 17
386 17
387 16
388 2
389 21
390 2
391 48
392 19
393 8
394 15
395 40
396 2
397 30
398 5
399 2
400 9
401 15
402 17
403 29
404 16
405 2
406 19
407 2
408 55
409 17
410 30
411 17
412 17
413 9
414 17
415 17
416 50
417 14
418 17
419 12
420 4
421 35
422 17
423 17
424 48
425 3
426 26
427 14
428 5
429 4
430 46
431 43
432 43
433 2
434 8
435 29
436 8
437 19
438 7
439 8
440 30
441 8
442 45
443 5
444 2
445 18
446 35
447 20
448 19
449 21
450 26
451 7
452 5
453 21
454 43
455 8
456 16
457 14
458 8
459 39
460 48
461 5
462 34
463 50
464 33
465 30
466 47
467 22
468 2
469 14
470 54
471 2
472 23
473 4
474 2
475 30
476 16
477 29
478 17
479 45
480 17
481 30
482 23
483 9
484 8
485 30
486 2
487 2
488 5
489 56
490 8
491 30
492 29
493 5
494 16
495 12
496 16
497 0
498 17
499 34
500 11
501 2
502 2
503 17
504 33
505 3
506 17
507 29
508 19
509 25
510 48
511 8
512 43
513 17
514 35
515 17
516 1
517 29
518 2
519 14
520 17
521 35
522 41
523 14
524 29
525 9
526 21
527 5
528 8
529 14
530 26
531 5
532 43
533 23
534 21
535 25
536 48
537 29
538 8
539 9
540 40
541 11
542 57
543 17
544 17
545 2
546 5
547 17
548 27
549 12
550 29
551 2
552 2
553 14
554 19
555 19
556 2
557 5
558 22
559 7
560 47
561 43
562 8
563 2
564 12
565 14
566 17
567 25
568 4
569 12
570 9
571 5
572 19
573 14
574 56
575 14
576 5
577 33
578 5
579 32
580 27
581 32
582 4
583 38
584 8
585 14
586 19
587 17
588 9
589 2
590 8
591 5
592 7
593 3
594 9
595 51
596 33
597 2
598 35
599 14
600 29
601 2
602 2
603 18
604 29
605 57
606 19
607 53
608 2
609 8
610 4
611 8
612 17
613 9
614 14
615 12
616 42
617 34
618 15
619 8
620 2
621 14
622 33
623 14
624 14
625 8
626 22
627 14
628 4
629 37
630 6
631 17
632 14
633 24
634 25
635 3
636 5
637 8
638 33
639 27
640 17
641 3
642 14
643 16
644 14
645 20
646 14
647 16
648 8
649 51
650 16
651 5
652 2
653 14
654 5
655 14
656 36
657 21
658 5
659 14
660 34
661 54
662 30
663 17
664 14
665 17
666 2
667 2
668 10
669 2
670 29
671 5
672 8
673 3
674 17
675 8
676 14
677 5
678 2
679 40
680 8
681 54
682 14
683 39
684 8
685 30
686 3
687 5
688 17
689 8
690 27
691 14
692 17
693 20
694 8
695 27
696 36
697 19
698 36
699 17
700 11
701 29
702 50
703 4
704 6
705 4
706 4
707 3
708 16
709 3
710 33
711 45
712 2
713 3
714 4
715 24
716 2
717 29
718 55
719 14
720 33
721 21
722 12
723 42
724 14
725 17
726 13
727 29
728 2
729 33
730 36
731 8
732 2
733 8
734 3
735 17
736 2
737 5
738 5
739 40
740 19
741 14
742 6
743 17
744 54
745 9
746 16
747 9
748 17
749 14
750 40
751 48
752 33
753 33
754 33
755 14
756 2
757 47
758 5
759 54
760 14
761 8
762 2
763 45
764 5
765 5
766 8
767 17
768 19
769 1
770 54
771 55
772 29
773 17
774 55
775 31
776 4
777 17
778 17
779 38
780 9
781 32
782 9
783 54
784 35
785 2
786 8
787 8
788 21
789 15
790 4
791 17
792 5
793 52
794 2
795 19
796 14
797 41
798 50
799 17
800 2
801 14
802 2
803 42
804 17
805 12
806 54
807 14
808 35
809 2
810 5
811 8
812 12
813 14
814 2
815 35
816 2
817 37
818 16
819 14
820 31
821 5
822 5
823 9
824 58
825 21
826 12
827 14
828 34
829 29
830 17
831 48
832 48
833 9
834 4
835 6
836 17
837 17
838 29
839 8
840 8
841 9
842 29
843 2
844 5
845 8
846 16
847 48
848 5
849 14
850 8
851 8
852 5
853 2
854 14
855 2
856 5
857 17
858 5
859 17
860 14
861 14
862 9
863 17
864 14
865 57
866 12
867 17
868 25
869 54
870 48
871 8
872 14
873 14
874 48
875 45
876 27
877 28
878 17
879 35
880 42
881 8
882 31
883 2
884 19
885 8
886 2
887 2
888 17
889 5
890 50
891 3
892 36
893 5
894 57
895 4
896 14
897 51
898 41
899 8
900 29
901 2
902 19
903 4
904 2
905 2
906 8
907 8
908 8
909 8
910 8
911 5
912 0
913 19
914 54
915 5
916 41
917 8
918 2
919 30
920 29
921 4
922 12
923 35
924 21
925 21
926 9
927 2
928 8
929 8
930 50
931 8
932 8
933 9
934 33
935 8
936 44
937 5
938 17
939 8
940 6
941 14
942 30
943 50
944 17
945 3
946 5
947 23
948 14
949 39
950 45
951 30
952 28
953 17
954 5
955 14
956 22
957 17
958 40
959 7
960 8
961 17
962 13
963 48
964 8
965 54
966 47
967 9
968 2
969 34
970 4
971 9
972 17
973 22
974 5
975 48
976 17
977 14
978 17
979 56
980 17
981 14
982 8
983 30
984 2
985 31
986 14
987 2
988 2
989 16
990 17
991 2
992 45
993 2
994 12
995 30
996 54
997 8
998 16
999 5
1000 22
1001 12
1002 29
1003 4
1004 17
1005 5
1006 16
1007 50
1008 8
1009 8
1010 5
1011 4
1012 31
1013 22
1014 12
1015 33
1016 43
1017 4
1018 17
1019 39
1020 54
1021 4
1022 5
1023 4
1024 35
1025 35
1026 5
1027 2
1028 9
1029 2
1030 8
1031 19
1032 25
1033 15
1034 8
1035 17
1036 2
1037 2
1038 8
1039 17
1040 17
1041 48
1042 40
1043 9
1044 6
1045 16
1046 9
1047 23
1048 2
1049 2
1050 14
1051 19
1052 5
1053 54
1054 11
1055 29
1056 49
1057 17
1058 2
1059 2
1060 39
1061 2
1062 8
1063 17
1064 17
1065 22
1066 4
1067 14
1068 59
1069 14
1070 17
1071 2
1072 17
1073 19
1074 5
1075 8
1076 14
1077 44
1078 5
1079 6
1080 34
1081 17
1082 24
1083 14
1084 9
1085 19
1086 35
1087 34
1088 2
1089 34
1090 14
1091 46
1092 48
1093 34
1094 41
1095 17
1096 35
1097 3
1098 2
1099 29
1100 5
1101 5
1102 22
1103 17
1104 7
1105 8
1106 14
1107 8
1108 41
1109 2
1110 14
1111 8
1112 29
1113 17
1114 5
1115 8
1116 52
1117 19
1118 39
1119 3
1120 9
1121 2
1122 4
1123 17
1124 14
1125 2
1126 22
1127 17
1128 2
1129 17
1130 21
1131 16
1132 17
1133 17
1134 14
1135 2
1136 13
1137 24
1138 29
1139 17
1140 2
1141 9
1142 17
1143 54
1144 14
1145 48
1146 18
1147 28
1148 14
1149 38
1150 33
1151 17
1152 17
1153 50
1154 3
1155 41
1156 31
1157 8
1158 28
1159 4
1160 2
1161 2
1162 29
1163 45
1164 6
1165 35
1166 17
1167 31
1168 2
1169 8
1170 5
1171 5
1172 17
1173 2
1174 19
1175 17
1176 8
1177 14
1178 8
1179 2
1180 5
1181 8
1182 5
1183 21
1184 5
1185 33
1186 22
1187 14
1188 27
1189 23
1190 48
1191 8
1192 9
1193 37
1194 4
1195 2
1196 55
1197 24
1198 2
1199 16
1200 14
1201 8
1202 8
1203 12
1204 33
1205 14
1206 5
1207 17
1208 33
1209 33
1210 8
1211 16
1212 5
1213 31
1214 9
1215 22
1216 19
1217 49
1218 13
1219 19
1220 5
1221 13
1222 14
1223 21
1224 23
1225 51
1226 23
1227 5
1228 23
1229 16
1230 7
1231 31
1232 16
1233 50
1234 2
1235 17
1236 4
1237 8
1238 37
1239 8
1240 16
1241 2
1242 40
1243 2
1244 2
1245 14
1246 5
1247 33
1248 2
1249 4
1250 8
1251 17
1252 14
1253 33
1254 14
1255 14
1256 5
1257 26
1258 7
1259 21
1260 50
1261 2
1262 8
1263 5
1264 5
1265 5
1266 29
1267 8
1268 8
1269 17
1270 14
1271 5
1272 14
1273 5
1274 17
1275 5
1276 16
1277 33
1278 22
1279 24
1280 30
1281 16
1282 21
1283 35
1284 8
1285 4
1286 17
1287 25
1288 17
1289 12
1290 19
1291 14
1292 2
1293 53
1294 33
1295 17
1296 5
1297 29
1298 33
1299 17
1300 23
1301 8
1302 30
1303 2
1304 45
1305 50
1306 5
1307 31
1308 19
1309 6
1310 35
1311 8
1312 5
1313 8
1314 16
1315 47
1316 2
1317 14
1318 14
1319 14
1320 12
1321 5
1322 2
1323 29
1324 33
1325 8
1326 27
1327 20
1328 19
1329 8
1330 5
1331 16
1332 35
1333 27
1334 5
1335 9
1336 44
1337 5
1338 35
1339 17
1340 16
1341 50
1342 46
1343 17
1344 8
1345 5
1346 16
1347 8
1348 17
1349 17
1350 5
1351 9
1352 16
1353 5
1354 5
1355 5
1356 12
1357 48
1358 48
1359 2
1360 35
1361 19
1362 17
1363 2
1364 4
1365 14
1366 27
1367 2
1368 14
1369 2
1370 28
1371 14
1372 14
1373 8
1374 54
1375 4
1376 17
1377 4
1378 11
1379 17
1380 8
1381 5
1382 28
1383 5
1384 2
1385 17
1386 2
1387 19
1388 2
1389 19
1390 5
1391 5
1392 17
1393 4
1394 35
1395 2
1396 17
1397 14
1398 5
1399 8
1400 32
1401 44
1402 2
1403 2
1404 17
1405 5
1406 2
1407 5
1408 17
1409 38
1410 48
1411 16
1412 2
1413 29
1414 21
1415 43
1416 25
1417 21
1418 31
1419 33
1420 29
1421 8
1422 32
1423 2
1424 3
1425 5
1426 8
1427 16
1428 4
1429 21
1430 12
1431 14
1432 29
1433 2
1434 50
1435 20
1436 5
1437 16
1438 14
1439 2
1440 15
1441 16
1442 36
1443 23
1444 17
1445 2
1446 32
1447 16
1448 21
1449 27
1450 17
1451 34
1452 0
1453 4
1454 17
1455 29
1456 2
1457 2
1458 14
1459 19
1460 2
1461 19
1462 2
1463 29
1464 17
1465 2
1466 9
1467 33
1468 2
1469 33
1470 14
1471 12
1472 34
1473 5
1474 5
1475 8
1476 0
1477 5
1478 13
1479 34
1480 17
1481 14
1482 35
1483 17
1484 17
1485 14
1486 19
1487 14
1488 5
1489 9
1490 48
1491 5
1492 31
1493 19
1494 29
1495 26
1496 8
1497 14
1498 5
1499 17
1500 8
1501 9
1502 39
1503 2
1504 5
1505 17
1506 14
1507 14
1508 4
1509 3
1510 2
1511 44
1512 4
1513 8
1514 54
1515 5
1516 5
1517 21
1518 5
1519 14
1520 22
1521 8
1522 44
1523 29
1524 31
1525 29
1526 55
1527 2
1528 5
1529 25
1530 57
1531 4
1532 2
1533 14
1534 14
1535 29
1536 54
1537 5
1538 5
1539 17
1540 5
1541 5
1542 2
1543 2
1544 1
1545 3
1546 14
1547 54
1548 50
1549 2
1550 5
1551 17
1552 50
1553 2
1554 9
1555 34
1556 28
1557 2
1558 15
1559 47
1560 14
1561 8
1562 29
1563 26
1564 24
1565 59
1566 21
1567 17
1568 5
1569 19
1570 4
1571 31
1572 14
1573 34
1574 50
1575 29
1576 17
1577 31
1578 14
1579 9
1580 35
1581 47
1582 31
1583 5
1584 19
1585 8
1586 17
1587 2
1588 35
1589 29
1590 5
1591 19
1592 7
1593 7
1594 13
1595 17
1596 2
1597 8
1598 5
1599 5
1600 56
1601 28
1602 5
1603 19
1604 2
1605 30
1606 8
1607 5
1608 13
1609 29
1610 31
1611 12
1612 11
1613 17
1614 33
1615 59
1616 16
1617 2
1618 59
1619 2
1620 19
1621 19
1622 37
1623 3
1624 30
1625 29
1626 5
1627 16
1628 17
1629 17
1630 14
1631 36
1632 16
1633 17
1634 5
1635 19
1636 33
1637 14
1638 8
1639 16
1640 8
1641 22
1642 45
1643 2
1644 14
1645 42
1646 9
1647 17
1648 19
1649 5
1650 34
1651 8
1652 42
1653 45
1654 17
1655 12
1656 5
1657 28
1658 5
1659 14
1660 12
1661 2
1662 8
1663 5
1664 5
1665 8
1666 2
1667 31
1668 33
1669 42
1670 29
1671 14
1672 41
1673 17
1674 17
1675 22
1676 14
1677 5
1678 8
1679 17
1680 12
1681 16
1682 16
1683 0
1684 8
1685 17
1686 2
1687 5
1688 2
1689 23
1690 28
1691 17
1692 54
1693 44
1694 3
1695 12
1696 5
1697 48
1698 19
1699 8
1700 2
1701 14
1702 31
1703 17
1704 48
1705 20
1706 23
1707 17
1708 17
1709 41
1710 14
1711 17
1712 3
1713 35
1714 14
1715 21
1716 16
1717 3
1718 15
1719 17
1720 49
1721 14
1722 29
1723 17
1724 44
1725 45
1726 14
1727 56
1728 17
1729 43
1730 5
1731 17
1732 16
1733 39
1734 5
1735 26
1736 48
1737 2
1738 26
1739 59
1740 3
1741 16
1742 19
1743 57
1744 5
1745 54
1746 19
1747 48
1748 2
1749 8
1750 5
1751 17
1752 32
1753 40
1754 5
1755 50
1756 16
1757 33
1758 5
1759 8
1760 8
1761 45
1762 8
1763 5
1764 48
1765 14
1766 14
1767 2
1768 33
1769 2
1770 29
1771 5
1772 2
1773 32
1774 4
1775 2
1776 50
1777 14
1778 19
1779 9
1780 17
1781 8
1782 54
1783 14
1784 8
1785 15
1786 21
1787 23
1788 2
1789 38
1790 14
1791 17
1792 8
1793 30
1794 33
1795 14
1796 46
1797 29
1798 5
1799 21
1800 5
1801 19
1802 4
1803 33
1804 26
1805 31
1806 17
1807 2
1808 50
1809 16
1810 8
1811 12
1812 16
1813 35
1814 21
1815 29
1816 5
1817 14
1818 35
1819 9
1820 22
1821 35
1822 2
1823 50
1824 5
1825 17
1826 5
1827 2
1828 17
1829 3
1830 37
1831 45
1832 30
1833 14
1834 16
1835 17
1836 14
1837 43
1838 30
1839 14
1840 2
1841 48
1842 2
1843 44
1844 19
1845 35
1846 8
1847 19
1848 17
1849 9
1850 8
1851 2
1852 17
1853 8
1854 2
1855 8
1856 17
1857 15
1858 9
1859 17
1860 14
1861 2
1862 48
1863 28
1864 39
1865 14
1866 22
1867 54
1868 5
1869 34
1870 2
1871 14
1872 6
1873 17
1874 2
1875 14
1876 17
1877 36
1878 4
1879 17
1880 5
1881 2
1882 2
1883 2
1884 5
1885 8
1886 29
1887 45
1888 19
1889 14
1890 31
1891 4
1892 8
1893 5
1894 12
1895 21
1896 5
1897 14
1898 2
1899 9
1900 17
1901 5
1902 37
1903 6
1904 48
1905 14
1906 9
1907 35
1908 8
1909 17
1910 2
1911 16
1912 5
1913 8
1914 5
1915 2
1916 31
1917 17
1918 30
1919 40
1920 9
1921 2
1922 14
1923 36
1924 21
1925 3
1926 2
1927 16
1928 19
1929 39
1930 8
1931 17
1932 25
1933 44
1934 8
1935 14
1936 32
1937 5
1938 16
1939 5
1940 19
1941 2
1942 2
1943 17
1944 14
1945 29
1946 2
1947 48
1948 9
1949 54
1950 0
1951 17
1952 2
1953 17
1954 16
1955 5
1956 8
1957 5
1958 19
1959 19
1960 31
1961 17
1962 17
1963 8
1964 34
1965 16
1966 50
1967 35
1968 4
1969 9
1970 21
1971 5
1972 14
1973 12
1974 17
1975 14
1976 8
1977 8
1978 48
1979 54
1980 5
1981 36
1982 8
1983 32
1984 8
1985 16
1986 22
1987 8
1988 17
1989 9
1990 17
1991 2
1992 17
1993 2
1994 17
1995 2
1996 8
1997 27
1998 19
1999 5
2000 19
2001 14
2002 8
2003 5
2004 2
2005 48
2006 8
2007 11
2008 14
2009 17
2010 33
2011 14
2012 17
2013 54
2014 14
2015 16
2016 29
2017 54
2018 17
2019 2
2020 41
2021 17
2022 30
2023 50
2024 33
2025 20
2026 4
2027 14
2028 4
2029 29
2030 2
2031 4
2032 5
2033 2
2034 54
2035 17
2036 8
2037 17
2038 2
2039 4
2040 31
2041 21
2042 9
2043 30
2044 2
2045 17
2046 15
2047 48
2048 9
2049 30
2050 14
2051 8
2052 16
2053 30
2054 33
2055 17
2056 6
2057 29
2058 19
2059 55
2060 16
2061 2
2062 52
2063 2
2064 44
2065 16
2066 33
2067 54
2068 59
2069 34
2070 2
2071 34
2072 31
2073 9
2074 17
2075 15
2076 6
2077 32
2078 4
2079 0
2080 17
2081 9
2082 8
2083 41
2084 8
2085 17
2086 5
2087 45
2088 2
2089 14
2090 36
2091 3
2092 3
2093 2
2094 5
2095 17
2096 34
2097 9
2098 5
2099 17
2100 5
2101 8
2102 9
2103 14
2104 2
2105 4
2106 2
2107 8
2108 19
2109 50
2110 19
2111 29
2112 17
2113 17
2114 8
2115 9
2116 46
2117 9
2118 34
2119 4
2120 21
2121 5
2122 29
2123 17
2124 14
2125 14
2126 12
2127 3
2128 2
2129 35
2130 19
2131 29
2132 37
2133 17
2134 17
2135 17
2136 2
2137 16
2138 2
2139 5
2140 19
2141 51
2142 5
2143 19
2144 41
2145 14
2146 43
2147 2
2148 17
2149 5
2150 29
2151 22
2152 11
2153 9
2154 41
2155 12
2156 14
2157 14
2158 19
2159 17
2160 5
2161 17
2162 58
2163 22
2164 17
2165 33
2166 8
2167 34
2168 2
2169 48
2170 34
2171 31
2172 6
2173 5
2174 5
2175 17
2176 41
2177 40
2178 8
2179 21
2180 6
2181 14
2182 5
2183 26
2184 8
2185 17
2186 41
2187 54
2188 14
2189 6
2190 5
2191 17
2192 42
2193 59
2194 8
2195 17
2196 27
2197 14
2198 17
2199 24
2200 38
2201 17
2202 40
2203 25
2204 40
2205 8
2206 14
2207 37
2208 47
2209 37
2210 14
2211 8
2212 26
2213 17
2214 5
2215 23
2216 5
2217 19
2218 50
2219 34
2220 12
2221 33
2222 2
2223 50
2224 22
2225 36
2226 8
2227 17
2228 17
2229 22
2230 2
2231 5
2232 6
2233 5
2234 6
2235 29
2236 11
2237 19
2238 48
2239 5
2240 21
2241 8
2242 0
2243 5
2244 17
2245 55
2246 47
2247 4
2248 31
2249 29
2250 32
2251 4
2252 14
2253 5
2254 29
2255 33
2256 50
2257 2
2258 40
2259 11
2260 17
2261 16
2262 14
2263 6
2264 2
2265 14
2266 50
2267 32
2268 58
2269 37
2270 5
2271 9
2272 35
2273 14
2274 9
2275 3
2276 5
2277 5
2278 16
2279 2
2280 35
2281 21
2282 43
2283 5
2284 31
2285 14
2286 33
2287 6
2288 21
2289 40
2290 17
2291 5
2292 48
2293 16
2294 5
2295 9
2296 14
2297 58
2298 16
2299 17
2300 5
2301 5
2302 33
2303 14
2304 17
2305 16
2306 0
2307 17
2308 2
2309 16
2310 27
2311 18
2312 2
2313 21
2314 21
2315 46
2316 14
2317 2
2318 16
2319 14
2320 18
2321 37
2322 2
2323 17
2324 35
2325 14
2326 33
2327 13
2328 17
2329 16
2330 42
2331 14
2332 9
2333 12
2334 41
2335 50
2336 14
2337 8
2338 23
2339 2
2340 17
2341 16
2342 31
2343 18
2344 8
2345 17
2346 55
2347 13
2348 33
2349 14
2350 4
2351 2
2352 17
2353 58
2354 59
2355 5
2356 2
2357 12
2358 35
2359 12
2360 8
2361 5
2362 8
2363 2
2364 22
2365 19
2366 32
2367 40
2368 4
2369 5
2370 44
2371 15
2372 17
2373 14
2374 30
2375 17
2376 30
2377 9
2378 2
2379 17
2380 2
2381 17
2382 9
2383 6
2384 45
2385 53
2386 39
2387 45
2388 16
2389 5
2390 16
2391 16
2392 17
2393 54
2394 48
2395 5
2396 17
2397 17
2398 50
2399 14
2400 57
2401 19
2402 17
2403 2
2404 14
2405 5
2406 14
2407 3
2408 2
2409 54
2410 8
2411 12
2412 40
2413 14
2414 5
2415 30
2416 2
2417 8
2418 17
2419 16
2420 17
2421 40
2422 9
2423 9
2424 5
2425 14
2426 5
2427 5
2428 13
2429 17
2430 16
2431 40
2432 2
2433 33
2434 22
2435 5
2436 19
2437 50
2438 12
2439 9
2440 16
2441 14
2442 33
2443 33
2444 5
2445 14
2446 14
2447 14
2448 2
2449 5
2450 17
2451 17
2452 17
2453 5
2454 30
2455 4
2456 58
2457 14
2458 19
2459 17
2460 40
2461 56
2462 2
2463 2
2464 46
2465 16
2466 16
2467 22
2468 48
2469 19
2470 37
2471 8
2472 17
2473 8
2474 5
2475 10
2476 54
2477 48
2478 5
2479 48
2480 21
2481 17
2482 5
2483 16
2484 8
2485 17
2486 8
2487 29
2488 4
2489 5
2490 5
2491 14
2492 54
2493 17
2494 5
2495 14
2496 17
2497 9
2498 5
2499 1
2500 5
2501 12
2502 33
2503 24
2504 4
2505 8
2506 17
2507 6
2508 8
2509 21
2510 10
2511 29
2512 8
2513 2
2514 14
2515 3
2516 5
2517 17
2518 55
2519 17
2520 2
2521 50
2522 8
2523 14
2524 5
2525 48
2526 50
2527 26
2528 14
2529 9
2530 9
2531 9
2532 2
2533 20
2534 17
2535 6
2536 2
2537 16
2538 2
2539 5
2540 2
2541 55
2542 35
2543 9
2544 4
2545 37
2546 12
2547 17
2548 29
2549 5
2550 16
2551 8
2552 17
2553 5
2554 16
2555 19
2556 35
2557 33
2558 2
2559 17
2560 55
2561 6
2562 14
2563 2
2564 17
2565 17
2566 22
2567 31
2568 5
2569 23
2570 2
2571 5
2572 21
2573 17
2574 17
2575 34
2576 40
2577 9
2578 19
2579 5
2580 2
2581 31
2582 2
2583 2
2584 5
2585 2
2586 14
2587 17
2588 3
2589 39
2590 47
2591 10
2592 53
2593 5
2594 5
2595 5
2596 2
2597 10
2598 5
2599 23
2600 2
2601 4
2602 14
2603 6
2604 12
2605 9
2606 19
2607 5
2608 2
2609 8
2610 16
2611 17
2612 53
2613 34
2614 1
2615 54
2616 12
2617 12
2618 8
2619 5
2620 17
2621 58
2622 14
2623 44
2624 4
2625 9
2626 16
2627 4
2628 32
2629 4
2630 29
2631 8
2632 19
2633 5
2634 19
2635 4
2636 14
2637 8
2638 2
2639 59
2640 17
2641 27
2642 2
2643 8
2644 14
2645 17
2646 3
2647 41
2648 8
2649 17
2650 44
2651 33
2652 17
2653 5
2654 17
2655 29
2656 5
2657 43
2658 2
2659 2
2660 9
2661 17
2662 35
2663 17
2664 17
2665 19
2666 33
2667 5
2668 5
2669 14
2670 3
2671 50
2672 35
2673 5
2674 20
2675 12
2676 17
2677 45
2678 2
2679 45
2680 14
2681 5
2682 8
2683 2
2684 4
2685 5
2686 2
2687 45
2688 39
2689 37
2690 54
2691 33
2692 32
2693 5
2694 17
2695 8
2696 16
2697 17
2698 17
2699 5
2700 17
2701 5
2702 16
2703 17
2704 17
2705 49
2706 50
2707 2
2708 47
2709 21
2710 59
2711 3
2712 2
2713 14
2714 33
2715 33
2716 5
2717 27
2718 4
2719 5
2720 34
2721 38
2722 2
2723 2
2724 17
2725 5
2726 19
2727 17
2728 23
2729 3
2730 17
2731 5
2732 2
2733 29
2734 5
2735 4
2736 48
2737 14
2738 4
2739 20
2740 14
2741 19
2742 5
2743 17
2744 13
2745 5
2746 54
2747 30
2748 48
2749 14
2750 28
2751 8
2752 16
2753 19
2754 17
2755 5
2756 17
2757 17
2758 29
2759 8
2760 5
2761 17
2762 2
2763 5
2764 8
2765 56
2766 55
2767 2
2768 5
2769 2
2770 5
2771 5
2772 17
2773 48
2774 16
2775 16
2776 8
2777 5
2778 14
2779 17
2780 5
2781 17
2782 54
2783 5
2784 29
2785 54
2786 2
2787 57
2788 14
2789 0
2790 29
2791 29
2792 17
2793 35
2794 17
2795 17
2796 9
2797 8
2798 14
2799 8
2800 32
2801 30
2802 14
2803 5
2804 5
2805 17
2806 2
2807 17
2808 5
2809 16
2810 33
2811 17
2812 17
2813 4
2814 4
2815 16
2816 17
2817 2
2818 17
2819 5
2820 35
2821 8
2822 21
2823 17
2824 16
2825 54
2826 2
2827 18
2828 48
2829 14
2830 54
2831 17
2832 49
2833 19
2834 14
2835 17
2836 19
2837 21
2838 3
2839 29
2840 5
2841 22
2842 18
2843 30
2844 5
2845 16
2846 5
2847 17
2848 5
2849 29
2850 14
2851 9
2852 14
2853 9
2854 5
2855 2
2856 5
2857 54
2858 29
2859 2
2860 16
2861 30
2862 24
2863 17
2864 16
2865 2
2866 16
2867 8
2868 4
2869 2
2870 17
2871 17
2872 17
2873 3
2874 8
2875 29
2876 14
2877 21
2878 48
2879 5
2880 29
2881 5
2882 9
2883 8
2884 55
2885 17
2886 4
2887 9
2888 17
2889 16
2890 17
2891 11
2892 29
2893 5
2894 49
2895 3
2896 35
2897 27
2898 54
2899 17
2900 29
2901 29
2902 19
2903 8
2904 29
2905 30
2906 38
2907 50
2908 5
2909 5
2910 8
2911 5
2912 30
2913 5
2914 8
2915 17
2916 8
2917 17
2918 5
2919 14
2920 17
2921 3
2922 19
2923 16
2924 5
2925 14
2926 4
2927 5
2928 14
2929 2
2930 48
2931 50
2932 55
2933 5
2934 33
2935 17
2936 17
2937 5
2938 14
2939 2
2940 17
2941 16
2942 9
2943 5
2944 17
2945 15
2946 5
2947 4
2948 17
2949 2
2950 3
2951 9
2952 28
2953 8
2954 35
2955 9
2956 29
2957 14
2958 30
2959 54
2960 3
2961 51
2962 2
2963 42
2964 3
2965 27
2966 17
2967 34
2968 14
2969 14
2970 5
2971 30
2972 3
2973 4
2974 14
2975 17
2976 8
2977 35
2978 17
2979 16
2980 17
2981 34
2982 16
2983 17
2984 48
2985 33
2986 5
2987 14
2988 21
2989 27
2990 54
2991 9
2992 35
2993 18
2994 3
2995 2
2996 31
2997 16
2998 2
2999 14
3000 16
3001 5
3002 14
3003 29
3004 26
3005 14
3006 17
3007 42
3008 17
3009 29
3010 2
3011 2
3012 17
3013 14
3014 2
3015 5
3016 2
3017 6
3018 8
3019 14
3020 23
3021 2
3022 9
3023 9
3024 24
3025 21
3026 5
3027 19
3028 5
3029 5
3030 8
3031 5
3032 3
3033 2
3034 14
3035 3
3036 45
3037 14
3038 2
3039 5
3040 55
3041 3
3042 5
3043 2
3044 5
3045 43
3046 14
3047 5
3048 8
3049 29
3050 16
3051 43
3052 5
3053 32
3054 2
3055 23
3056 8
3057 30
3058 4
3059 17
3060 16
3061 17
3062 48
3063 8
3064 48
3065 14
3066 5
3067 8
3068 48
3069 5
3070 8
3071 21
3072 32
3073 2
3074 14
3075 32
3076 5
3077 3
3078 5
3079 8
3080 50
3081 19
3082 14
3083 3
3084 5
3085 26
3086 5
3087 9
3088 53
3089 17
3090 17
3091 2
3092 5
3093 2
3094 37
3095 2
3096 19
3097 21
3098 5
3099 59
3100 48
3101 8
3102 6
3103 5
3104 12
3105 17
3106 19
3107 8
3108 8
3109 30
3110 58
3111 17
3112 34
3113 9
3114 9
3115 31
3116 14
3117 2
3118 33
3119 5
3120 8
3121 43
3122 9
3123 36
3124 25
3125 14
3126 31
3127 34
3128 19
3129 17
3130 5
3131 17
3132 14
3133 14
3134 8
3135 9
3136 16
3137 35
3138 8
3139 17
3140 8
3141 5
3142 8
3143 17
3144 2
3145 2
3146 14
3147 17
3148 14
3149 2
3150 34
3151 59
3152 2
3153 22
3154 2
3155 14
3156 2
3157 17
3158 16
3159 2
3160 14
3161 33
3162 5
3163 5
3164 17
3165 16
3166 2
3167 3
3168 17
3169 50
3170 8
3171 18
3172 2
3173 19
3174 0
3175 14
3176 2
3177 17
3178 29
3179 16
3180 44
3181 29
3182 17
3183 19
3184 14
3185 5
3186 14
3187 2
3188 0
3189 5
3190 19
3191 48
3192 48
3193 5
3194 3
3195 2
3196 27
3197 2
3198 2
3199 53
3200 16
3201 17
3202 5
3203 8
3204 31
3205 3
3206 53
3207 19
3208 14
3209 19
3210 4
3211 51
3212 9
3213 19
3214 14
3215 6
3216 4
3217 33
3218 8
3219 19
3220 49
3221 2
3222 49
3223 17
3224 14
3225 8
3226 58
3227 17
3228 14
3229 24
3230 5
3231 17
3232 5
3233 18
3234 51
3235 2
3236 48
3237 14
3238 2
3239 12
3240 14
3241 54
3242 54
3243 55
3244 33
3245 24
3246 53
3247 5
3248 5
3249 17
3250 9
3251 5
3252 2
3253 17
3254 33
3255 17
3256 5
3257 7
3258 9
3259 19
3260 9
3261 5
3262 2
3263 8
3264 5
3265 5
3266 8
3267 33
3268 17
3269 2
3270 2
3271 59
3272 19
3273 5
3274 17
3275 3
3276 33
3277 20
3278 14
3279 4
3280 5
3281 14
3282 8
3283 45
3284 32
3285 17
3286 17
3287 15
3288 29
3289 8
3290 17
3291 33
3292 8
3293 21
3294 2
3295 14
3296 5
3297 2
3298 8
3299 50
3300 17
3301 16
3302 14
3303 19
3304 33
3305 8
3306 17
3307 29
3308 5
3309 16
3310 4
3311 16
3312 49
3313 6
3314 17
3315 19
3316 45
3317 31
3318 5
3319 4
3320 6
3321 14
3322 17
3323 29
3324 14
3325 2
3326 45
3327 32
3328 19
3329 8
3330 7
3331 48
3332 14
3333 2
3334 2
3335 14
3336 5
3337 54
3338 14
3339 2
3340 50
3341 2
3342 5
3343 14
3344 45
3345 19
3346 17
3347 22
3348 50
3349 5
3350 17
3351 5
3352 8
3353 17
3354 2
3355 17
3356 19
3357 14
3358 16
3359 41
3360 2
3361 8
3362 31
3363 16
3364 23
3365 17
3366 44
3367 44
3368 54
3369 33
3370 5
3371 8
3372 10
3373 8
3374 8
3375 8
3376 30
3377 31
3378 45
3379 2
3380 2
3381 19
3382 23
3383 12
3384 31
3385 8
3386 8
3387 54
3388 6
3389 17
3390 19
3391 22
3392 21
3393 48
3394 36
3395 5
3396 23
3397 17
3398 5
3399 2
3400 14
3401 44
3402 17
3403 2
3404 32
3405 9
3406 14
3407 2
3408 14
3409 17
3410 2
3411 2
3412 18
3413 6
3414 19
3415 2
3416 4
3417 32
3418 17
3419 19
3420 3
3421 23
3422 2
3423 48
3424 14
3425 29
3426 4
3427 8
3428 2
3429 59
3430 29
3431 4
3432 5
3433 19
3434 42
3435 31
3436 24
3437 14
3438 17
3439 17
3440 30
3441 17
3442 5
3443 14
3444 20
3445 54
3446 1
3447 34
3448 45
3449 2
3450 14
3451 40
3452 30
3453 17
3454 19
3455 2
3456 4
3457 29
3458 19
3459 17
3460 54
3461 41
3462 9
3463 30
3464 8
3465 12
3466 17
3467 5
3468 54
3469 54
3470 38
3471 5
3472 50
3473 5
3474 17
3475 54
3476 32
3477 29
3478 8
3479 8
3480 16
3481 49
3482 2
3483 17
3484 8
3485 2
3486 19
3487 17
3488 14
3489 5
3490 14
3491 17
3492 16
3493 35
3494 2
3495 4
3496 44
3497 29
3498 50
3499 9
3500 8
3501 8
3502 26
3503 12
3504 14
3505 18
3506 19
3507 26
3508 7
3509 19
3510 33
3511 14
3512 8
3513 17
3514 5
3515 8
3516 29
3517 39
3518 9
3519 2
3520 5
3521 8
3522 5
3523 5
3524 14
3525 17
3526 16
3527 5
3528 33
3529 44
3530 29
3531 21
3532 2
3533 35
3534 27
3535 5
3536 17
3537 6
3538 38
3539 37
3540 17
3541 15
3542 27
3543 17
3544 37
3545 2
3546 17
3547 8
3548 9
3549 2
3550 4
3551 29
3552 14
3553 21
3554 13
3555 17
3556 29
3557 17
3558 23
3559 17
3560 28
3561 37
3562 8
3563 14
3564 2
3565 14
3566 8
3567 5
3568 16
3569 3
3570 5
3571 2
3572 45
3573 17
3574 9
3575 17
3576 24
3577 31
3578 17
3579 44
3580 5
3581 8
3582 34
3583 9
3584 14
3585 43
3586 43
3587 35
3588 4
3589 9
3590 2
3591 12
3592 17
3593 17
3594 25
3595 2
3596 17
3597 48
3598 16
3599 50
3600 8
3601 5
3602 30
3603 31
3604 5
3605 9
3606 2
3607 25
3608 31
3609 44
3610 5
3611 55
3612 0
3613 2
3614 23
3615 5
3616 35
3617 5
3618 5
3619 17
3620 0
3621 8
3622 49
3623 31
3624 17
3625 2
3626 28
3627 4
3628 8
3629 43
3630 2
3631 14
3632 2
3633 58
3634 8
3635 19
3636 14
3637 4
3638 8
3639 31
3640 4
3641 17
3642 4
3643 8
3644 59
3645 22
3646 4
3647 37
3648 5
3649 5
3650 12
3651 14
3652 33
3653 28
3654 14
3655 48
3656 5
3657 34
3658 58
3659 12
3660 5
3661 5
3662 12
3663 8
3664 32
3665 8
3666 30
3667 12
3668 36
3669 19
3670 38
3671 42
3672 2
3673 45
3674 28
3675 17
3676 2
3677 17
3678 17
3679 19
3680 5
3681 5
3682 37
3683 31
3684 14
3685 17
3686 14
3687 2
3688 5
3689 54
3690 16
3691 17
3692 33
3693 14
3694 35
3695 17
3696 15
3697 12
3698 45
3699 48
3700 14
3701 17
3702 9
3703 36
3704 8
3705 14
3706 5
3707 2
3708 52
3709 12
3710 2
3711 17
3712 2
3713 5
3714 35
3715 59
3716 6
3717 9
3718 29
3719 14
3720 29
3721 22
3722 8
3723 23
3724 30
3725 8
3726 6
3727 9
3728 8
3729 2
3730 2
3731 57
3732 19
3733 44
3734 5
3735 14
3736 17
3737 2
3738 14
3739 46
3740 17
3741 8
3742 14
3743 17
3744 17
3745 5
3746 8
3747 5
3748 54
3749 6
3750 33
3751 2
3752 28
3753 16
3754 45
3755 2
3756 5
3757 14
3758 5
3759 2
3760 48
3761 21
3762 8
3763 2
3764 23
3765 8
3766 37
3767 14
3768 22
3769 5
3770 48
3771 39
3772 17
3773 14
3774 17
3775 8
3776 2
3777 12
3778 8
3779 14
3780 29
3781 14
3782 35
3783 5
3784 8
3785 17
3786 29
3787 33
3788 14
3789 19
3790 16
3791 22
3792 2
3793 8
3794 5
3795 17
3796 5
3797 5
3798 9
3799 36
3800 14
3801 17
3802 8
3803 14
3804 8
3805 31
3806 28
3807 5
3808 5
3809 48
3810 33
3811 3
3812 9
3813 5
3814 17
3815 55
3816 35
3817 36
3818 9
3819 16
3820 5
3821 5
3822 14
3823 31
3824 5
3825 5
3826 55
3827 33
3828 17
3829 14
3830 5
3831 33
3832 17
3833 5
3834 17
3835 20
3836 16
3837 56
3838 54
3839 12
3840 14
3841 13
3842 5
3843 55
3844 17
3845 8
3846 2
3847 5
3848 5
3849 50
3850 29
3851 8
3852 5
3853 0
3854 35
3855 53
3856 2
3857 2
3858 41
3859 9
3860 2
3861 17
3862 16
3863 17
3864 19
3865 31
3866 50
3867 48
3868 19
3869 5
3870 54
3871 8
3872 17
3873 8
3874 9
3875 27
3876 5
3877 2
3878 17
3879 14
3880 8
3881 35
3882 2
3883 8
3884 40
3885 5
3886 2
3887 31
3888 7
3889 5
3890 29
3891 8
3892 19
3893 8
3894 4
3895 29
3896 8
3897 2
3898 14
3899 4
3900 9
3901 5
3902 17
3903 29
3904 4
3905 48
3906 8
3907 9
3908 8
3909 29
3910 14
3911 8
3912 2
3913 21
3914 17
3915 17
3916 43
3917 44
3918 5
3919 5
3920 5
3921 48
3922 5
3923 5
3924 44
3925 8
3926 3
3927 17
3928 21
3929 5
3930 8
3931 5
3932 8
3933 2
3934 17
3935 29
3936 14
3937 2
3938 16
3939 16
3940 16
3941 5
3942 5
3943 54
3944 16
3945 3
3946 5
3947 29
3948 48
3949 33
3950 5
3951 14
3952 17
3953 33
3954 2
3955 5
3956 29
3957 9
3958 5
3959 5
3960 14
3961 33
3962 35
3963 5
3964 11
3965 22
3966 38
3967 8
3968 5
3969 50
3970 3
3971 8
3972 50
3973 3
3974 17
3975 2
3976 29
3977 29
3978 3
3979 23
3980 14
3981 54
3982 8
3983 23
3984 14
3985 2
3986 17
3987 49
3988 9
3989 29
3990 8
3991 8
3992 17
3993 8
3994 17
3995 3
3996 5
3997 12
3998 14
3999 5
4000 17
4001 17
4002 19
4003 8
4004 14
4005 2
4006 8
4007 14
4008 5
4009 2
4010 28
4011 4
4012 8
4013 5
4014 17
4015 40
4016 54
4017 9
4018 54
4019 8
4020 14
4021 9
4022 5
4023 9
4024 17
4025 5
4026 2
4027 26
4028 5
4029 16
4030 9
4031 5
4032 17
4033 48
4034 41
4035 54
4036 8
4037 3
4038 2
4039 55
4040 9
4041 5
4042 3
4043 8
4044 44
4045 3
4046 35
4047 5
4048 5
4049 17
4050 17
4051 39
4052 14
4053 5
4054 48
4055 8
4056 5
4057 8
4058 2
4059 36
4060 9
4061 5
4062 29
4063 34
4064 4
4065 17
4066 5
4067 21
4068 45
4069 35
4070 16
4071 4
4072 15
4073 9
4074 16
4075 2
4076 5
4077 30
4078 55
4079 33
4080 16
4081 17
4082 17
4083 2
4084 8
4085 16
4086 22
4087 5
4088 53
4089 21
4090 14
4091 53
4092 16
4093 2
4094 12
4095 47
4096 54
4097 44
4098 9
4099 12
4100 25
4101 14
4102 14
4103 52
4104 8
4105 36
4106 12
4107 5
4108 45
4109 0
4110 59
4111 30
4112 35
4113 23
4114 8
4115 29
4116 8
4117 2
4118 13
4119 16
4120 34
4121 17
4122 21
4123 2
4124 28
4125 14
4126 19
4127 14
4128 12
4129 2
4130 34
4131 31
4132 2
4133 44
4134 4
4135 47
4136 41
4137 19
4138 5
4139 4
4140 11
4141 31
4142 12
4143 32
4144 5
4145 54
4146 31
4147 4
4148 46
4149 5
4150 8
4151 8
4152 17
4153 4
4154 21
4155 16
4156 55
4157 19
4158 54
4159 3
4160 12
4161 14
4162 8
4163 49
4164 2
4165 49
4166 34
4167 31
4168 2
4169 14
4170 19
4171 5
4172 2
4173 8
4174 2
4175 17
4176 28
4177 4
4178 2
4179 35
4180 33
4181 17
4182 54
4183 50
4184 5
4185 41
4186 55
4187 40
4188 8
4189 40
4190 5
4191 57
4192 45
4193 14
4194 5
4195 9
4196 44
4197 17
4198 17
4199 31
4200 14
4201 22
4202 35
4203 14
4204 8
4205 33
4206 42
4207 9
4208 45
4209 8
4210 4
4211 4
4212 33
4213 9
4214 19
4215 5
4216 5
4217 11
4218 2
4219 12
4220 41
4221 46
4222 14
4223 16
4224 48
4225 2
4226 22
4227 12
4228 5
4229 3
4230 20
4231 29
4232 17
4233 20
4234 6
4235 8
4236 33
4237 21
4238 5
4239 48
4240 23
4241 22
4242 46
4243 45
4244 5
4245 19
4246 14
4247 15
4248 34
4249 9
4250 42
4251 19
4252 40
4253 28
4254 7
4255 2
4256 58
4257 8
4258 8
4259 12
4260 14
4261 5
4262 20
4263 5
4264 8
4265 3
4266 8
4267 14
4268 30
4269 2
4270 40
4271 5
4272 2
4273 5
4274 30
4275 0
4276 16
4277 55
4278 4
4279 2
4280 27
4281 22
4282 50
4283 5
4284 54
4285 14
4286 23
4287 30
4288 3
4289 12
4290 44
4291 31
4292 6
4293 9
4294 39
4295 21
4296 5
4297 14
4298 28
4299 40
4300 5
4301 33
4302 50
4303 50
4304 17
4305 17
4306 16
4307 20
4308 27
4309 6
4310 5
4311 29
4312 16
4313 3
4314 45
4315 2
4316 12
4317 30
4318 26
4319 35
4320 11
4321 21
4322 11
4323 37
4324 18
4325 5
4326 31
4327 16
4328 2
4329 14
4330 16
4331 4
4332 14
4333 3
4334 37
4335 11
4336 40
4337 11
4338 17
4339 17
4340 5
4341 12
4342 40
4343 5
4344 36
4345 41
4346 5
4347 29
4348 3
4349 16
4350 17
4351 8
4352 12
4353 17
4354 14
4355 35
4356 17
4357 55
4358 30
4359 17
4360 19
4361 50
4362 17
4363 14
4364 4
4365 2
4366 2
4367 14
4368 8
4369 17
4370 51
4371 3
4372 18
4373 30
4374 5
4375 2
4376 51
4377 5
4378 33
4379 6
4380 21
4381 21
4382 36
4383 4
4384 5
4385 17
4386 19
4387 17
4388 8
4389 21
4390 2
4391 19
4392 6
4393 38
4394 14
4395 5
4396 33
4397 4
4398 5
4399 16
4400 17
4401 12
4402 12
4403 14
4404 31
4405 5
4406 18
4407 14
4408 21
4409 16
4410 45
4411 5
4412 31
4413 5
4414 39
4415 41
4416 16
4417 3
4418 5
4419 19
4420 9
4421 17
4422 16
4423 33
4424 5
4425 22
4426 14
4427 30
4428 29
4429 45
4430 33
4431 10
4432 6
4433 14
4434 44
4435 51
4436 31
4437 8
4438 48
4439 2
4440 16
4441 8
4442 37
4443 35
4444 5
4445 57
4446 27
4447 37
4448 58
4449 43
4450 5
4451 14
4452 5
4453 4
4454 48
4455 19
4456 9
4457 14
4458 2
4459 5
4460 2
4461 9
4462 5
4463 40
4464 5
4465 2
4466 54
4467 17
4468 9
4469 17
4470 8
4471 38
4472 17
4473 17
4474 8
4475 9
4476 2
4477 8
4478 8
4479 14
4480 12
4481 9
4482 5
4483 24
4484 14
4485 14
4486 29
4487 29
4488 19
4489 4
4490 46
4491 8
4492 16
4493 14
4494 19
4495 14
4496 2
4497 14
4498 40
4499 8
4500 35
4501 5
4502 8
4503 29
4504 8
4505 54
4506 33
4507 54
4508 8
4509 17
4510 14
4511 34
4512 45
4513 40
4514 17
4515 14
4516 4
4517 17
4518 19
4519 5
4520 49
4521 17
4522 9
4523 10
4524 29
4525 16
4526 4
4527 7
4528 17
4529 21
4530 51
4531 16
4532 11
4533 14
4534 35
4535 17
4536 16
4537 1
4538 14
4539 58
4540 2
4541 29
4542 2
4543 5
4544 2
4545 14
4546 8
4547 19
4548 10
4549 14
4550 32
4551 44
4552 5
4553 5
4554 5
4555 20
4556 33
4557 5
4558 16
4559 5
4560 8
4561 8
4562 5
4563 34
4564 37
4565 22
4566 44
4567 35
4568 15
4569 35
4570 2
4571 33
4572 17
4573 50
4574 48
4575 3
4576 20
4577 32
4578 14
4579 2
4580 43
4581 9
4582 47
4583 4
4584 54
4585 5
4586 33
4587 14
4588 34
4589 51
4590 16
4591 29
4592 2
4593 42
4594 5
4595 3
4596 54
4597 2
4598 29
4599 5
4600 26
4601 8
4602 14
4603 17
4604 2
4605 17
4606 20
4607 17
4608 47
4609 2
4610 17
4611 17
4612 29
4613 2
4614 43
4615 17
4616 21
4617 17
4618 25
4619 14
4620 3
4621 17
4622 12
4623 39
4624 30
4625 29
4626 9
4627 17
4628 5
4629 19
4630 14
4631 34
4632 54
4633 2
4634 9
4635 5
4636 23
4637 33
4638 5
4639 34
4640 17
4641 2
4642 53
4643 56
4644 29
4645 5
4646 19
4647 5
4648 5
4649 11
4650 25
4651 9
4652 5
4653 8
4654 18
4655 5
4656 15
4657 2
4658 11
4659 14
4660 5
4661 16
4662 2
4663 29
4664 8
4665 30
4666 14
4667 14
4668 17
4669 19
4670 2
4671 4
4672 3
4673 22
4674 2
4675 24
4676 14
4677 14
4678 2
4679 14
4680 59
4681 2
4682 12
4683 4
4684 31
4685 8
4686 5
4687 5
4688 28
4689 16
4690 22
4691 14
4692 21
4693 2
4694 17
4695 8
4696 17
4697 8
4698 30
4699 5
4700 8
4701 14
4702 19
4703 4
4704 8
4705 43
4706 22
4707 17
4708 19
4709 17
4710 2
4711 42
4712 16
4713 17
4714 47
4715 9
4716 5
4717 2
4718 19
4719 17
4720 54
4721 58
4722 14
4723 9
4724 23
4725 35
4726 53
4727 33
4728 19
4729 54
4730 17
4731 14
4732 33
4733 14
4734 2
4735 21
4736 44
4737 17
4738 14
4739 16
4740 5
4741 17
4742 17
4743 2
4744 27
4745 16
4746 8
4747 22
4748 33
4749 2
4750 8
4751 17
4752 6
4753 5
4754 49
4755 29
4756 5
4757 4
4758 37
4759 5
4760 59
4761 5
4762 17
4763 31
4764 17
4765 14
4766 4
4767 42
4768 17
4769 3
4770 21
4771 8
4772 5
4773 22
4774 2
4775 14
4776 17
4777 29
4778 5
4779 47
4780 17
4781 14
4782 5
4783 17
4784 14
4785 29
4786 37
4787 14
4788 14
4789 2
4790 54
4791 7
4792 2
4793 5
4794 21
4795 14
4796 45
4797 14
4798 2
4799 5
4800 14
4801 5
4802 8
4803 4
4804 14
4805 14
4806 19
4807 0
4808 9
4809 17
4810 19
4811 29
4812 4
4813 2
4814 17
4815 5
4816 12
4817 17
4818 16
4819 29
4820 14
4821 5
4822 2
4823 40
4824 31
4825 5
4826 2
4827 37
4828 14
4829 14
4830 8
4831 2
4832 19
4833 30
4834 16
4835 2
4836 5
4837 8
4838 5
4839 5
4840 5
4841 29
4842 41
4843 54
4844 8
4845 16
4846 45
4847 17
4848 2
4849 2
4850 8
4851 5
4852 29
4853 2
4854 5
4855 33
4856 8
4857 5
4858 17
4859 17
4860 8
4861 31
4862 8
4863 5
4864 9
4865 17
4866 17
4867 16
4868 5
4869 2
4870 5
4871 5
4872 50
4873 5
4874 3
4875 14
4876 15
4877 14
4878 14
4879 54
4880 17
4881 22
4882 30
4883 36
4884 36
4885 29
4886 19
4887 55
4888 19
4889 5
4890 9
4891 8
4892 9
4893 54
4894 2
4895 14
4896 17
4897 17
4898 48
4899 33
4900 33
4901 1
4902 19
4903 5
4904 5
4905 9
4906 28
4907 41
4908 14
4909 17
4910 14
4911 16
4912 7
4913 6
4914 16
4915 31
4916 4
4917 14
4918 22
4919 17
4920 5
4921 8
4922 17
4923 4
4924 2
4925 12
4926 5
4927 17
4928 5
4929 22
4930 24
4931 17
4932 32
4933 14
4934 2
4935 9
4936 2
4937 17
4938 2
4939 17
4940 17
4941 19
4942 17
4943 8
4944 48
4945 5
4946 12
4947 21
4948 2
4949 54
4950 9
4951 17
4952 2
4953 17
4954 2
4955 5
4956 54
4957 29
4958 17
4959 4
4960 2
4961 28
4962 0
4963 16
4964 16
4965 3
4966 34
4967 2
4968 16
4969 9
4970 17
4971 9
4972 5
4973 2
4974 54
4975 48
4976 49
4977 5
4978 9
4979 2
4980 2
4981 8
4982 5
4983 2
4984 0
4985 21
4986 4
4987 8
4988 5
4989 17
4990 2
4991 3
4992 54
4993 30
4994 54
4995 29
4996 5
4997 4
4998 31
4999 5
5000 30
5001 2
5002 9
5003 14
5004 16
5005 9
5006 29
5007 23
5008 17
5009 27
5010 5
5011 17
5012 9
5013 2
5014 4
5015 29
5016 21
5017 20
5018 14
5019 49
5020 54
5021 3
5022 8
5023 2
5024 31
5025 48
5026 2
5027 9
5028 14
5029 16
5030 5
5031 14
5032 2
5033 17
5034 14
5035 9
5036 9
5037 7
5038 9
5039 9
5040 19
5041 35
5042 5
5043 17
5044 37
5045 2
5046 44
5047 8
5048 11
5049 14
5050 2
5051 48
5052 5
5053 17
5054 54
5055 5
5056 2
5057 2
5058 17
5059 17
5060 17
5061 16
5062 17
5063 3
5064 17
5065 23
5066 29
5067 5
5068 8
5069 4
5070 15
5071 5
5072 17
5073 22
5074 8
5075 5
5076 5
5077 5
5078 8
5079 2
5080 17
5081 17
5082 2
5083 5
5084 35
5085 11
5086 19
5087 17
5088 21
5089 5
5090 34
5091 14
5092 5
5093 55
5094 17
5095 39
5096 3
5097 2
5098 17
5099 5
5100 8
5101 5
5102 17
5103 8
5104 17
5105 17
5106 14
5107 17
5108 4
5109 17
5110 5
5111 16
5112 17
5113 8
5114 8
5115 21
5116 44
5117 33
5118 14
5119 8
5120 16
5121 17
5122 14
5123 8
5124 35
5125 54
5126 22
5127 14
5128 5
5129 17
5130 2
5131 14
5132 9
5133 53
5134 44
5135 19
5136 5
5137 8
5138 17
5139 3
5140 48
5141 31
5142 19
5143 22
5144 22
5145 4
5146 2
5147 34
5148 31
5149 39
5150 2
5151 17
5152 16
5153 15
5154 17
5155 2
5156 2
5157 21
5158 3
5159 16
5160 17
5161 16
5162 17
5163 3
5164 2
5165 30
5166 16
5167 17
5168 2
5169 17
5170 19
5171 12
5172 5
5173 5
5174 51
5175 2
5176 59
5177 8
5178 2
5179 2
5180 2
5181 5
5182 2
5183 4
5184 5
5185 4
5186 9
5187 5
5188 14
5189 8
5190 2
5191 28
5192 17
5193 2
5194 17
5195 3
5196 19
5197 14
5198 29
5199 8
5200 14
5201 14
5202 16
5203 5
5204 26
5205 8
5206 9
5207 55
5208 8
5209 17
5210 29
5211 5
5212 14
5213 55
5214 41
5215 8
5216 19
5217 9
5218 2
5219 34
5220 14
5221 2
5222 8
5223 17
5224 36
5225 17
5226 0
5227 14
5228 16
5229 35
5230 16
5231 40
5232 17
5233 50
5234 5
5235 0
5236 18
5237 28
5238 21
5239 2
5240 29
5241 5
5242 19
5243 37
5244 20
5245 2
5246 17
5247 9
5248 54
5249 8
5250 34
5251 2
5252 19
5253 31
5254 4
5255 34
5256 14
5257 16
5258 19
5259 17
5260 14
5261 16
5262 46
5263 17
5264 48
5265 17
5266 16
5267 45
5268 16
5269 10
5270 5
5271 8
5272 18
5273 8
5274 14
5275 2
5276 37
5277 14
5278 28
5279 8
5280 5
5281 2
5282 8
5283 3
5284 37
5285 19
5286 28
5287 8
5288 5
5289 17
5290 17
5291 17
5292 33
5293 16
5294 12
5295 33
5296 20
5297 26
5298 7
5299 14
5300 22
5301 30
5302 17
5303 8
5304 17
5305 17
5306 44
5307 20
5308 14
5309 16
5310 5
5311 5
5312 8
5313 17
5314 50
5315 14
5316 9
5317 5
5318 8
5319 5
5320 5
5321 17
5322 8
5323 16
5324 42
5325 5
5326 14
5327 45
5328 34
5329 14
5330 19
5331 31
5332 43
5333 59
5334 26
5335 29
5336 19
5337 48
5338 31
5339 16
5340 26
5341 8
5342 2
5343 2
5344 19
5345 4
5346 17
5347 43
5348 16
5349 8
5350 2
5351 4
5352 26
5353 5
5354 55
5355 8
5356 33
5357 29
5358 55
5359 12
5360 50
5361 37
5362 9
5363 16
5364 22
5365 19
5366 5
5367 2
5368 17
5369 8
5370 48
5371 55
5372 17
5373 3
5374 21
5375 2
5376 28
5377 2
5378 35
5379 8
5380 14
5381 5
5382 8
5383 5
5384 2
5385 17
5386 9
5387 5
5388 17
5389 14
5390 35
5391 14
5392 14
5393 3
5394 14
5395 4
5396 42
5397 5
5398 2
5399 12
5400 8
5401 2
5402 8
5403 19
5404 4
5405 2
5406 16
5407 2
5408 17
5409 16
5410 58
5411 14
5412 50
5413 17
5414 17
5415 30
5416 17
5417 14
5418 30
5419 8
5420 44
5421 43
5422 49
5423 4
5424 44
5425 6
5426 29
5427 21
5428 29
5429 14
5430 55
5431 8
5432 5
5433 50
5434 8
5435 2
5436 5
5437 48
5438 16
5439 14
5440 57
5441 24
5442 57
5443 50
5444 14
5445 21
5446 2
5447 48
5448 5
5449 15
5450 5
5451 28
5452 14
5453 21
5454 14
5455 35
5456 8
5457 8
5458 49
5459 48
5460 5
5461 2
5462 51
5463 3
5464 16
5465 14
5466 35
5467 19
5468 5
5469 12
5470 23
5471 2
5472 2
5473 14
5474 33
5475 2
5476 36
5477 2
5478 14
5479 28
5480 38
5481 2
5482 28
5483 23
5484 5
5485 14
5486 6
5487 17
5488 58
5489 30
5490 24
5491 5
5492 17
5493 5
5494 2
5495 6
5496 5
5497 8
5498 54
5499 17
5500 17
5501 18
5502 2
5503 5
5504 35
5505 49
5506 4
5507 19
5508 35
5509 3
5510 44
5511 5
5512 5
5513 14
5514 14
5515 5
5516 2
5517 20
5518 14
5519 17
5520 48
5521 55
5522 20
5523 52
5524 5
5525 17
5526 8
5527 10
5528 8
5529 44
5530 22
5531 43
5532 17
5533 17
5534 30
5535 14
5536 54
5537 17
5538 20
5539 34
5540 17
5541 5
5542 5
5543 5
5544 5
5545 18
5546 17
5547 16
5548 2
5549 51
5550 2
5551 5
5552 2
5553 36
5554 3
5555 21
5556 8
5557 34
5558 54
5559 7
5560 2
5561 23
5562 17
5563 37
5564 11
5565 32
5566 5
5567 20
5568 2
5569 14
5570 17
5571 5
5572 2
5573 3
5574 44
5575 5
5576 2
5577 1
5578 17
5579 17
5580 44
5581 35
5582 2
5583 5
5584 29
5585 17
5586 43
5587 44
5588 22
5589 4
5590 19
5591 17
5592 17
5593 17
5594 7
5595 33
5596 17
5597 40
5598 54
5599 14
5600 14
5601 29
5602 55
5603 5
5604 14
5605 48
5606 14
5607 5
5608 5
5609 39
5610 23
5611 17
5612 9
5613 52
5614 5
5615 2
5616 35
5617 29
5618 37
5619 19
5620 8
5621 0
5622 5
5623 21
5624 5
5625 19
5626 8
5627 29
5628 30
5629 39
5630 30
5631 19
5632 16
5633 37
5634 14
5635 40
5636 2
5637 2
5638 52
5639 50
5640 19
5641 33
5642 2
5643 19
5644 17
5645 9
5646 12
5647 2
5648 38
5649 5
5650 56
5651 2
5652 1
5653 9
5654 14
5655 5
5656 17
5657 54
5658 38
5659 13
5660 17
5661 8
5662 51
5663 9
5664 8
5665 35
5666 11
5667 47
5668 5
5669 48
5670 3
5671 18
5672 5
5673 26
5674 31
5675 20
5676 22
5677 34
5678 21
5679 2
5680 8
5681 35
5682 17
5683 4
5684 41
5685 8
5686 29
5687 11
5688 48
5689 8
5690 8
5691 17
5692 5
5693 5
5694 2
5695 8
5696 19
5697 14
5698 14
5699 2
5700 5
5701 9
5702 2
5703 21
5704 19
5705 14
5706 17
5707 14
5708 30
5709 17
5710 27
5711 8
5712 2
5713 5
5714 30
5715 4
5716 17
5717 4
5718 17
5719 17
5720 5
5721 21
5722 14
5723 2
5724 19
5725 19
5726 19
5727 2
5728 46
5729 5
5730 14
5731 17
5732 6
5733 33
5734 48
5735 22
5736 14
5737 33
5738 2
5739 5
5740 2
5741 8
5742 28
5743 33
5744 8
5745 17
5746 9
5747 8
5748 9
5749 8
5750 5
5751 14
5752 15
5753 5
5754 8
5755 8
5756 5
5757 5
5758 22
5759 3
5760 35
5761 15
5762 14
5763 16
5764 2
5765 14
5766 41
5767 6
5768 8
5769 45
5770 3
5771 15
5772 23
5773 5
5774 16
5775 4
5776 17
5777 2
5778 20
5779 8
5780 50
5781 17
5782 30
5783 14
5784 45
5785 5
5786 33
5787 19
5788 17
5789 9
5790 5
5791 5
5792 8
5793 5
5794 17
5795 54
5796 8
5797 14
5798 17
5799 29
5800 37
5801 17
5802 5
5803 54
5804 5
5805 29
5806 17
5807 17
5808 29
5809 19
5810 23
5811 21
5812 33
5813 2
5814 19
5815 8
5816 31
5817 29
5818 2
5819 54
5820 29
5821 5
5822 17
5823 37
5824 2
5825 8
5826 50
5827 54
5828 2
5829 2
5830 11
5831 54
5832 40
5833 14
5834 17
5835 32
5836 8
5837 5
5838 5
5839 17
5840 51
5841 59
5842 5
5843 12
5844 9
5845 9
5846 8
5847 5
5848 28
5849 48
5850 2
5851 2
5852 14
5853 8
5854 5
5855 2
5856 8
5857 16
5858 8
5859 17
5860 16
5861 5
5862 20
5863 7
5864 55
5865 17
5866 3
5867 5
5868 54
5869 2
5870 14
5871 8
5872 14
5873 2
5874 14
5875 2
5876 19
5877 5
5878 8
5879 5
5880 8
5881 48
5882 22
5883 17
5884 16
5885 16
5886 31
5887 17
5888 21
5889 54
5890 17
5891 2
5892 37
5893 48
5894 17
5895 17
5896 16
5897 14
5898 5
5899 5
5900 45
5901 14
5902 8
5903 21
5904 16
5905 54
5906 12
5907 2
5908 37
5909 14
5910 17
5911 17
5912 35
5913 5
5914 2
5915 50
5916 54
5917 16
5918 9
5919 29
5920 41
5921 5
5922 5
5923 58
5924 17
5925 2
5926 5
5927 2
5928 16
5929 48
5930 35
5931 5
5932 5
5933 8
5934 2
5935 2
5936 3
5937 17
5938 2
5939 8
5940 29
5941 16
5942 2
5943 17
5944 14
5945 3
5946 2
5947 9
5948 43
5949 9
5950 14
5951 8
5952 2
5953 16
5954 4
5955 0
5956 14
5957 9
5958 7
5959 9
5960 31
5961 5
5962 14
5963 50
5964 16
5965 41
5966 41
5967 14
5968 16
5969 54
5970 11
5971 8
5972 29
5973 17
5974 8
5975 14
5976 50
5977 54
5978 2
5979 17
5980 5
5981 28
5982 2
5983 5
5984 3
5985 35
5986 8
5987 8
5988 29
5989 5
5990 5
5991 54
5992 14
5993 41
5994 2
5995 14
5996 12
5997 29
5998 44
5999 30
6000 17
6001 5
6002 8
6003 19
6004 54
6005 8
6006 2
6007 32
6008 11
6009 2
6010 5
6011 4
6012 17
6013 8
6014 2
6015 17
6016 8
6017 17
6018 10
6019 14
6020 8
6021 5
6022 5
6023 17
6024 2
6025 2
6026 9
6027 4
6028 31
6029 14
6030 48
6031 41
6032 5
6033 23
6034 31
6035 17
6036 14
6037 54
6038 2
6039 9
6040 35
6041 14
6042 8
6043 3
6044 2
6045 2
6046 17
6047 9
6048 15
6049 28
6050 5
6051 14
6052 8
6053 15
6054 5
6055 14
6056 2
6057 5
6058 50
6059 8
6060 17
6061 56
6062 45
6063 17
6064 3
6065 5
6066 8
6067 9
6068 14
6069 1
6070 8
6071 5
6072 9
6073 19
6074 34
6075 29
6076 12
6077 8
6078 9
6079 17
6080 14
6081 14
6082 12
6083 8
6084 45
6085 2
6086 19
6087 16
6088 23
6089 30
6090 19
6091 17
6092 17
6093 17
6094 29
6095 22
6096 54
6097 17
6098 28
6099 8
6100 55
6101 47
6102 12
6103 4
6104 8
6105 5
6106 8
6107 17
6108 5
6109 22
6110 6
6111 43
6112 49
6113 8
6114 16
6115 2
6116 8
6117 8
6118 5
6119 2
6120 16
6121 17
6122 26
6123 54
6124 4
6125 39
6126 14
6127 19
6128 4
6129 5
6130 12
6131 16
6132 2
6133 2
6134 5
6135 45
6136 3
6137 14
6138 17
6139 54
6140 28
6141 16
6142 29
6143 28
6144 5
6145 12
6146 8
6147 2
6148 55
6149 8
6150 54
6151 7
6152 29
6153 8
6154 5
6155 12
6156 0
6157 4
6158 14
6159 28
6160 2
6161 48
6162 2
6163 18
6164 13
6165 43
6166 4
6167 5
6168 5
6169 14
6170 29
6171 17
6172 28
6173 20
6174 16
6175 12
6176 17
6177 34
6178 7
6179 23
6180 2
6181 5
6182 2
6183 5
6184 5
6185 45
6186 21
6187 7
6188 14
6189 22
6190 26
6191 8
6192 20
6193 8
6194 3
6195 8
6196 5
6197 8
6198 22
6199 53
6200 16
6201 44
6202 2
6203 12
6204 17
6205 58
6206 28
6207 5
6208 34
6209 28
6210 6
6211 17
6212 2
6213 16
6214 8
6215 5
6216 4
6217 2
6218 14
6219 39
6220 12
6221 2
6222 2
6223 13
6224 17
6225 5
6226 8
6227 12
6228 8
6229 35
6230 5
6231 48
6232 4
6233 8
6234 12
6235 32
6236 14
6237 5
6238 8
6239 44
6240 14
6241 14
6242 53
6243 17
6244 17
6245 12
6246 12
6247 0
6248 36
6249 43
6250 57
6251 24
6252 40
6253 17
6254 14
6255 4
6256 2
6257 5
6258 33
6259 54
6260 20
6261 50
6262 12
6263 4
6264 5
6265 4
6266 2
6267 4
6268 4
6269 17
6270 8
6271 39
6272 9
6273 2
6274 12
6275 14
6276 14
6277 17
6278 14
6279 29
6280 32
6281 0
6282 17
6283 17
6284 32
6285 2
6286 45
6287 2
6288 7
6289 5
6290 5
6291 35
6292 17
6293 5
6294 23
6295 5
6296 34
6297 11
6298 34
6299 15
6300 5
6301 45
6302 29
6303 7
6304 49
6305 48
6306 16
6307 9
6308 8
6309 17
6310 8
6311 12
6312 14
6313 1
6314 21
6315 9
6316 37
6317 33
6318 35
6319 19
6320 14
6321 5
6322 5
6323 5
6324 14
6325 48
6326 30
6327 39
6328 30
6329 19
6330 5
6331 33
6332 5
6333 23
6334 17
6335 7
6336 50
6337 30
6338 14
6339 30
6340 14
6341 7
6342 17
6343 48
6344 17
6345 3
6346 5
6347 14
6348 17
6349 8
6350 5
6351 2
6352 16
6353 29
6354 5
6355 35
6356 14
6357 27
6358 19
6359 52
6360 48
6361 2
6362 17
6363 1
6364 6
6365 12
6366 5
6367 35
6368 54
6369 17
6370 2
6371 33
6372 38
6373 44
6374 13
6375 43
6376 2
6377 14
6378 17
6379 17
6380 33
6381 5
6382 33
6383 55
6384 2
6385 48
6386 17
6387 36
6388 8
6389 11
6390 42
6391 17
6392 32
6393 14
6394 35
6395 58
6396 50
6397 17
6398 21
6399 29
6400 35
6401 50
6402 42
6403 2
6404 8
6405 6
6406 29
6407 14
6408 5
6409 35
6410 34
6411 5
6412 14
6413 5
6414 5
6415 8
6416 12
6417 17
6418 5
6419 45
6420 12
6421 8
6422 5
6423 59
6424 5
6425 59
6426 21
6427 17
6428 54
6429 16
6430 19
6431 24
6432 41
6433 26
6434 14
6435 14
6436 40
6437 14
6438 5
6439 8
6440 31
6441 40
6442 38
6443 28
6444 7
6445 9
6446 48
6447 59
6448 8
6449 14
6450 54
6451 12
6452 33
6453 53
6454 5
6455 53
6456 48
6457 3
6458 30
6459 4
6460 43
6461 19
6462 27
6463 19
6464 34
6465 5
6466 5
6467 2
6468 39
6469 6
6470 59
6471 8
6472 9
6473 14
6474 18
6475 33
6476 34
6477 4
6478 3
6479 2
6480 5
6481 2
6482 5
6483 5
6484 27
6485 5
6486 12
6487 11
6488 3
6489 16
6490 8
6491 32
6492 5
6493 8
6494 8
6495 19
6496 5
6497 5
6498 8
6499 2
6500 5
6501 4
6502 35
6503 51
6504 55
6505 8
6506 20
6507 8
6508 8
6509 8
6510 19
6511 31
6512 8
6513 8
6514 31
6515 14
6516 17
6517 8
6518 17
6519 17
6520 59
6521 20
6522 41
6523 2
6524 14
6525 12
6526 20
6527 8
6528 16
6529 2
6530 2
6531 16
6532 9
6533 14
6534 4
6535 32
6536 5
6537 20
6538 59
6539 2
6540 5
6541 38
6542 14
6543 14
6544 17
6545 17
6546 2
6547 5
6548 14
6549 22
6550 8
6551 2
6552 17
6553 2
6554 17
6555 48
6556 3
6557 17
6558 17
6559 21
6560 17
6561 59
6562 34
6563 2
6564 17
6565 4
6566 39
6567 14
6568 17
6569 54
6570 14
6571 17
6572 31
6573 35
6574 2
6575 17
6576 29
6577 8
6578 29
6579 17
6580 29
6581 17
6582 5
6583 5
6584 34
6585 4
6586 16
6587 49
6588 36
6589 39
6590 17
6591 29
6592 17
6593 2
6594 21
6595 17
6596 21
6597 10
6598 33
6599 14
6600 48
6601 4
6602 58
6603 8
6604 34
6605 8
6606 48
6607 9
6608 17
6609 0
6610 48
6611 8
6612 34
6613 57
6614 2
6615 5
6616 40
6617 5
6618 13
6619 9
6620 20
6621 48
6622 49
6623 17
6624 29
6625 8
6626 5
6627 29
6628 3
6629 2
6630 40
6631 5
6632 16
6633 40
6634 17
6635 50
6636 17
6637 17
6638 14
6639 17
6640 17
6641 17
6642 2
6643 5
6644 19
6645 52
6646 8
6647 43
6648 17
6649 48
6650 17
6651 9
6652 50
6653 11
6654 8
6655 2
6656 36
6657 8
6658 8
6659 9
6660 17
6661 6
6662 29
6663 54
6664 17
6665 14
6666 19
6667 19
6668 4
6669 2
6670 17
6671 8
6672 3
6673 43
6674 4
6675 58
6676 17
6677 8
6678 59
6679 24
6680 17
6681 13
6682 14
6683 55
6684 54
6685 8
6686 8
6687 2
6688 54
6689 4
6690 8
6691 17
6692 5
6693 14
6694 5
6695 31
6696 2
6697 14
6698 55
6699 12
6700 18
6701 19
6702 5
6703 4
6704 5
6705 9
6706 32
6707 16
6708 21
6709 53
6710 22
6711 16
6712 2
6713 16
6714 2
6715 5
6716 14
6717 2
6718 36
6719 12
6720 8
6721 14
6722 36
6723 55
6724 9
6725 17
6726 29
6727 38
6728 37
6729 22
6730 27
6731 8
6732 4
6733 17
6734 49
6735 12
6736 35
6737 9
6738 14
6739 22
6740 31
6741 12
6742 22
6743 11
6744 14
6745 17
6746 16
6747 21
6748 58
6749 8
6750 17
6751 54
6752 19
6753 44
6754 16
6755 14
6756 8
6757 35
6758 14
6759 8
6760 5
6761 36
6762 29
6763 2
6764 2
6765 33
6766 8
6767 5
6768 2
6769 2
6770 17
6771 17
6772 9
6773 14
6774 5
6775 2
6776 33
6777 22
6778 2
6779 14
6780 16
6781 5
6782 5
6783 41
6784 19
6785 19
6786 17
6787 17
6788 9
6789 17
6790 9
6791 5
6792 7
6793 19
6794 17
6795 8
6796 27
6797 2
6798 5
6799 14
6800 8
6801 5
6802 41
6803 19
6804 48
6805 15
6806 8
6807 14
6808 9
6809 17
6810 45
6811 35
6812 5
6813 17
6814 46
6815 2
6816 8
6817 14
6818 17
6819 43
6820 23
6821 8
6822 2
6823 48
6824 54
6825 38
6826 17
6827 14
6828 14
6829 25
6830 9
6831 5
6832 5
6833 5
6834 2
6835 5
6836 8
6837 17
6838 37
6839 2
6840 5
6841 31
6842 2
6843 29
6844 2
6845 2
6846 17
6847 17
6848 8
6849 17
6850 2
6851 17
6852 8
6853 8
6854 51
6855 14
6856 17
6857 8
6858 8
6859 8
6860 21
6861 19
6862 2
6863 17
6864 3
6865 2
6866 2
6867 5
6868 14
6869 5
6870 8
6871 16
6872 2
6873 8
6874 5
6875 49
6876 22
6877 32
6878 54
6879 19
6880 21
6881 2
6882 49
6883 17
6884 17
6885 54
6886 2
6887 14
6888 5
6889 17
6890 5
6891 6
6892 11
6893 8
6894 14
6895 8
6896 0
6897 39
6898 17
6899 5
6900 9
6901 29
6902 19
6903 5
6904 5
6905 2
6906 5
6907 17
6908 14
6909 19
6910 17
6911 43
6912 14
6913 5
6914 54
6915 17
6916 57
6917 2
6918 2
6919 17
6920 29
6921 29
6922 5
6923 19
6924 9
6925 8
6926 3
6927 21
6928 2
6929 30
6930 2
6931 19
6932 14
6933 16
6934 2
6935 13
6936 8
6937 17
6938 39
6939 14
6940 2
6941 45
6942 17
6943 28
6944 4
6945 8
6946 54
6947 5
6948 39
6949 14
6950 31
6951 16
6952 2
6953 6
6954 2
6955 21
6956 21
6957 14
6958 50
6959 0
6960 31
6961 15
6962 4
6963 14
6964 46
6965 8
6966 12
6967 35
6968 2
6969 48
6970 3
6971 21
6972 29
6973 8
6974 5
6975 8
6976 3
6977 5
6978 17
6979 3
6980 3
6981 17
6982 5
6983 17
6984 14
6985 6
6986 5
6987 5
6988 14
6989 8
6990 2
6991 37
6992 8
6993 9
6994 41
6995 13
6996 14
6997 29
6998 5
6999 16
7000 5
7001 14
7002 5
7003 3
7004 9
7005 34
7006 4
7007 49
7008 9
7009 17
7010 17
7011 5
7012 2
7013 2
7014 2
7015 2
7016 14
7017 16
7018 5
7019 19
7020 45
7021 48
7022 16
7023 29
7024 9
7025 8
7026 29
7027 28
7028 2
7029 17
7030 21
7031 2
7032 5
7033 5
7034 2
7035 19
7036 5
7037 4
7038 21
7039 8
7040 17
7041 2
7042 5
7043 2
7044 2
7045 9
7046 9
7047 35
7048 54
7049 31
7050 12
7051 33
7052 4
7053 17
7054 17
7055 5
7056 2
7057 9
7058 2
7059 17
7060 48
7061 24
7062 5
7063 48
7064 34
7065 16
7066 29
7067 5
7068 30
7069 17
7070 14
7071 19
7072 14
7073 2
7074 8
7075 17
7076 44
7077 37
7078 14
7079 2
7080 3
7081 42
7082 45
7083 5
7084 5
7085 3
7086 5
7087 17
7088 14
7089 28
7090 55
7091 39
7092 4
7093 7
7094 14
7095 19
7096 2
7097 20
7098 3
7099 14
7100 14
7101 17
7102 5
7103 8
7104 8
7105 33
7106 2
7107 17
7108 5
7109 17
7110 2
7111 43
7112 28
7113 3
7114 15
7115 5
7116 28
7117 54
7118 35
7119 17
7120 2
7121 2
7122 34
7123 8
7124 13
7125 4
7126 39
7127 21
7128 17
7129 16
7130 35
7131 48
7132 2
7133 5
7134 8
7135 54
7136 20
7137 3
7138 5
7139 17
7140 1
7141 31
7142 2
7143 19
7144 21
7145 14
7146 19
7147 14
7148 29
7149 0
7150 2
7151 16
7152 8
7153 5
7154 8
7155 9
7156 2
7157 0
7158 22
7159 35
7160 3
7161 17
7162 9
7163 17
7164 7
7165 47
7166 8
7167 2
7168 14
7169 43
7170 45
7171 41
7172 17
7173 21
7174 2
7175 17
7176 37
7177 4
7178 14
7179 16
7180 2
7181 19
7182 6
7183 54
7184 4
7185 20
7186 5
7187 55
7188 2
7189 11
7190 5
7191 2
7192 0
7193 13
7194 8
7195 4
7196 29
7197 29
7198 5
7199 14
7200 11
7201 17
7202 59
7203 0
7204 8
7205 12
7206 17
7207 31
7208 39
7209 46
7210 37
7211 5
7212 19
7213 8
7214 53
7215 47
7216 12
7217 45
7218 6
7219 14
7220 12
7221 43
7222 17
7223 2
7224 4
7225 2
7226 11
7227 16
7228 17
7229 17
7230 5
7231 3
7232 9
7233 34
7234 23
7235 2
7236 2
7237 5
7238 8
7239 8
7240 12
7241 35
7242 17
7243 17
7244 18
7245 8
7246 2
7247 8
7248 29
7249 33
7250 2
7251 2
7252 52
7253 16
7254 17
7255 11
7256 17
7257 14
7258 34
7259 43
7260 38
7261 2
7262 2
7263 56
7264 8
7265 14
7266 0
7267 44
7268 21
7269 16
7270 18
7271 9
7272 14
7273 2
7274 9
7275 14
7276 16
7277 4
7278 5
7279 56
7280 14
7281 16
7282 19
7283 5
7284 19
7285 20
7286 2
7287 4
7288 8
7289 5
7290 37
7291 5
7292 51
7293 17
7294 5
7295 41
7296 3
7297 8
7298 17
7299 9
7300 29
7301 16
7302 57
7303 8
7304 8
7305 4
7306 5
7307 5
7308 37
7309 34
7310 14
7311 33
7312 14
7313 3
7314 14
7315 28
7316 5
7317 21
7318 14
7319 24
7320 14
7321 16
7322 40
7323 2
7324 8
7325 6
7326 2
7327 9
7328 16
7329 7
7330 44
7331 6
7332 2
7333 4
7334 12
7335 48
7336 2
7337 31
7338 14
7339 2
7340 0
7341 8
7342 17
7343 48
7344 5
7345 16
7346 5
7347 29
7348 2
7349 8
7350 17
7351 19
7352 38
7353 33
7354 34
7355 50
7356 6
7357 17
7358 16
7359 40
7360 8
7361 37
7362 8
7363 21
7364 2
7365 57
7366 2
7367 14
7368 17
7369 23
7370 2
7371 19
7372 21
7373 5
7374 43
7375 5
7376 16
7377 6
7378 6
7379 2
7380 19
7381 13
7382 39
7383 48
7384 58
7385 50
7386 2
7387 13
7388 2
7389 31
7390 8
7391 33
7392 42
7393 2
7394 13
7395 16
7396 9
7397 58
7398 48
7399 17
7400 8
7401 33
7402 14
7403 55
7404 14
7405 14
7406 5
7407 8
7408 32
7409 2
7410 43
7411 17
7412 33
7413 35
7414 8
7415 14
7416 35
7417 0
7418 28
7419 30
7420 35
7421 8
7422 14
7423 2
7424 2
7425 14
7426 17
7427 14
7428 8
7429 4
7430 29
7431 41
7432 8
7433 16
7434 5
7435 33
7436 12
7437 14
7438 59
7439 17
7440 48
7441 5
7442 9
7443 41
7444 2
7445 42
7446 8
7447 4
7448 31
7449 5
7450 5
7451 17
7452 5
7453 14
7454 4
7455 14
7456 26
7457 2
7458 2
7459 2
7460 32
7461 14
7462 8
7463 5
7464 47
7465 16
7466 2
7467 37
7468 56
7469 5
7470 9
7471 41
7472 8
7473 55
7474 12
7475 14
7476 8
7477 21
7478 17
7479 2
7480 8
7481 19
7482 12
7483 17
7484 14
7485 8
7486 2
7487 0
7488 33
7489 19
7490 17
7491 14
7492 37
7493 5
7494 14
7495 44
7496 16
7497 17
7498 30
7499 19
7500 12
7501 14
7502 14
7503 39
7504 16
7505 2
7506 17
7507 17
7508 4
7509 18
7510 17
7511 14
7512 45
7513 14
7514 8
7515 27
7516 2
7517 33
7518 12
7519 12
7520 33
7521 16
7522 5
7523 5
7524 40
7525 14
7526 30
7527 8
7528 45
7529 17
7530 43
7531 5
7532 16
7533 30
7534 9
7535 25
7536 5
7537 8
7538 5
7539 16
7540 17
7541 17
7542 12
7543 17
7544 2
7545 50
7546 8
7547 42
7548 2
7549 54
7550 43
7551 17
7552 8
7553 2
7554 14
7555 14
7556 17
7557 28
7558 5
7559 31
7560 17
7561 17
7562 45
7563 2
7564 16
7565 5
7566 34
7567 16
7568 8
7569 4
7570 8
7571 5
7572 5
7573 8
7574 2
7575 7
7576 8
7577 2
7578 33
7579 22
7580 1
7581 29
7582 19
7583 2
7584 19
7585 8
7586 17
7587 5
7588 16
7589 14
7590 8
7591 14
7592 22
7593 17
7594 54
7595 17
7596 21
7597 2
7598 16
7599 29
7600 2
7601 2
7602 8
7603 7
7604 4
7605 2
7606 2
7607 45
7608 16
7609 17
7610 2
7611 5
7612 15
7613 5
7614 0
7615 31
7616 14
7617 42
7618 5
7619 17
7620 2
7621 8
7622 23
7623 14
7624 35
7625 12
7626 0
7627 5
7628 47
7629 9
7630 17
7631 1
7632 16
7633 8
7634 2
7635 8
7636 5
7637 2
7638 35
7639 2
7640 5
7641 54
7642 14
7643 3
7644 35
7645 32
7646 2
7647 2
7648 2
7649 4
7650 29
7651 5
7652 40
7653 40
7654 5
7655 17
7656 5
7657 17
7658 2
7659 8
7660 34
7661 2
7662 8
7663 16
7664 14
7665 3
7666 54
7667 17
7668 39
7669 2
7670 9
7671 2
7672 8
7673 26
7674 7
7675 19
7676 17
7677 8
7678 48
7679 23
7680 3
7681 2
7682 49
7683 34
7684 22
7685 36
7686 19
7687 18
7688 9
7689 9
7690 37
7691 29
7692 54
7693 21
7694 16
7695 8
7696 8
7697 57
7698 19
7699 2
7700 5
7701 8
7702 11
7703 14
7704 3
7705 17
7706 54
7707 38
7708 40
7709 9
7710 2
7711 29
7712 31
7713 5
7714 27
7715 29
7716 35
7717 5
7718 43
7719 17
7720 53
7721 51
7722 14
7723 8
7724 5
7725 36
7726 21
7727 8
7728 17
7729 5
7730 5
7731 19
7732 3
7733 29
7734 35
7735 17
7736 19
7737 28
7738 31
7739 2
7740 9
7741 14
7742 5
7743 31
7744 8
7745 30
7746 17
7747 17
7748 19
7749 7
7750 41
7751 10
7752 2
7753 5
7754 39
7755 8
7756 14
7757 17
7758 13
7759 55
7760 8
7761 44
7762 7
7763 56
7764 2
7765 12
7766 2
7767 36
7768 5
7769 14
7770 5
7771 17
7772 14
7773 3
7774 17
7775 2
7776 50
7777 17
7778 41
7779 8
7780 19
7781 8
7782 5
7783 34
7784 2
7785 22
7786 33
7787 21
7788 4
7789 2
7790 16
7791 14
7792 8
7793 39
7794 5
7795 2
7796 17
7797 19
7798 17
7799 2
7800 4
7801 41
7802 2
7803 17
7804 5
7805 29
7806 2
7807 12
7808 27
7809 2
7810 17
7811 2
7812 34
7813 31
7814 17
7815 8
7816 29
7817 14
7818 17
7819 5
7820 33
7821 6
7822 9
7823 5
7824 5
7825 24
7826 15
7827 4
7828 10
7829 16
7830 7
7831 5
7832 5
7833 5
7834 14
7835 16
7836 21
7837 5
7838 2
7839 3
7840 2
7841 2
7842 5
7843 9
7844 2
7845 19
7846 5
7847 5
7848 39
7849 5
7850 35
7851 4
7852 29
7853 21
7854 5
7855 29
7856 16
7857 21
7858 13
7859 8
7860 5
7861 5
7862 14
7863 54
7864 14
7865 15
7866 17
7867 35
7868 5
7869 19
7870 32
7871 14
7872 9
7873 8
7874 2
7875 5
7876 5
7877 28
7878 16
7879 14
7880 43
7881 2
7882 29
7883 8
7884 17
7885 34
7886 21
7887 5
7888 33
7889 17
7890 2
7891 54
7892 17
7893 45
7894 8
7895 16
7896 31
7897 14
7898 5
7899 21
7900 5
7901 2
7902 33
7903 5
7904 6
7905 40
7906 29
7907 8
7908 21
7909 17
7910 16
7911 0
7912 43
7913 17
7914 8
7915 5
7916 48
7917 29
7918 17
7919 48
7920 5
7921 5
7922 29
7923 29
7924 17
7925 17
7926 2
7927 8
7928 9
7929 29
7930 2
7931 2
7932 54
7933 29
7934 20
7935 8
7936 6
7937 54
7938 5
7939 8
7940 2
7941 33
7942 14
7943 8
7944 8
7945 9
7946 5
7947 5
7948 19
7949 54
7950 2
7951 2
7952 9
7953 16
7954 17
7955 17
7956 12
7957 14
7958 8
7959 17
7960 29
7961 44
7962 4
7963 8
7964 2
7965 14
7966 2
7967 19
7968 11
7969 30
7970 31
7971 33
7972 39
7973 5
7974 48
7975 5
7976 44
7977 29
7978 8
7979 9
7980 31
7981 54
7982 8
7983 8
7984 4
7985 2
7986 6
7987 5
7988 2
7989 9
7990 41
7991 33
7992 5
7993 5
7994 2
7995 18
7996 8
7997 6
7998 19
7999 44
8000 4
8001 39
8002 0
8003 18
8004 52
8005 14
8006 38
8007 33
8008 16
8009 8
8010 17
8011 14
8012 17
8013 44
8014 44
8015 8
8016 44
8017 16
8018 12
8019 48
8020 8
8021 17
8022 48
8023 57
8024 54
8025 2
8026 8
8027 48
8028 24
8029 17
8030 3
8031 54
8032 35
8033 29
8034 48
8035 5
8036 9
8037 58
8038 34
8039 21
8040 8
8041 9
8042 14
8043 5
8044 29
8045 29
8046 2
8047 17
8048 17
8049 17
8050 2
8051 54
8052 8
8053 5
8054 40
8055 8
8056 14
8057 9
8058 5
8059 35
8060 2
8061 19
8062 14
8063 8
8064 25
8065 21
8066 2
8067 48
8068 5
8069 5
8070 4
8071 5
8072 17
8073 40
8074 14
8075 29
8076 54
8077 16
8078 4
8079 5
8080 0
8081 17
8082 14
8083 14
8084 17
8085 35
8086 48
8087 14
8088 4
8089 29
8090 4
8091 2
8092 5
8093 34
8094 17
8095 17
8096 3
8097 9
8098 54
8099 14
8100 2
8101 17
8102 2
8103 34
8104 29
8105 14
8106 16
8107 2
8108 17
8109 4
8110 14
8111 14
8112 4
8113 9
8114 2
8115 8
8116 3
8117 17
8118 44
8119 2
8120 14
8121 8
8122 33
8123 17
8124 2
8125 17
8126 4
8127 2
8128 16
8129 4
8130 8
8131 1
8132 34
8133 17
8134 54
8135 29
8136 17
8137 2
8138 34
8139 39
8140 22
8141 3
8142 31
8143 55
8144 2
8145 14
8146 2
8147 17
8148 32
8149 8
8150 16
8151 35
8152 8
8153 54
8154 5
8155 54
8156 17
8157 14
8158 8
8159 8
8160 54
8161 12
8162 5
8163 17
8164 14
8165 2
8166 43
8167 5
8168 14
8169 9
8170 55
8171 33
8172 2
8173 5
8174 2
8175 15
8176 7
8177 2
8178 35
8179 2
8180 16
8181 0
8182 17
8183 16
8184 17
8185 2
8186 29
8187 12
8188 55
8189 14
8190 16
8191 4
8192 47
8193 2
8194 54
8195 19
8196 17
8197 8
8198 5
8199 35
8200 5
8201 48
8202 17
8203 43
8204 15
8205 40
8206 5
8207 30
8208 2
8209 21
8210 17
8211 43
8212 35
8213 3
8214 34
8215 29
8216 59
8217 17
8218 45
8219 17
8220 6
8221 30
8222 33
8223 29
8224 14
8225 14
8226 5
8227 5
8228 8
8229 44
8230 12
8231 7
8232 4
8233 25
8234 3
8235 35
8236 40
8237 17
8238 5
8239 16
8240 17
8241 4
8242 22
8243 17
8244 45
8245 2
8246 17
8247 17
8248 19
8249 32
8250 19
8251 2
8252 17
8253 17
8254 8
8255 5
8256 35
8257 5
8258 2
8259 51
8260 16
8261 9
8262 17
8263 8
8264 54
8265 4
8266 5
8267 8
8268 3
8269 16
8270 28
8271 21
8272 9
8273 4
8274 12
8275 16
8276 41
8277 2
8278 22
8279 5
8280 2
8281 12
8282 29
8283 14
8284 5
8285 49
8286 25
8287 5
8288 2
8289 16
8290 48
8291 58
8292 52
8293 34
8294 8
8295 8
8296 8
8297 42
8298 9
8299 4
8300 19
8301 47
8302 53
8303 27
8304 14
8305 17
8306 8
8307 19
8308 9
8309 5
8310 14
8311 19
8312 5
8313 50
8314 9
8315 8
8316 9
8317 21
8318 5
8319 19
8320 12
8321 8
8322 15
8323 5
8324 14
8325 5
8326 48
8327 17
8328 21
8329 14
8330 34
8331 25
8332 27
8333 14
8334 12
8335 33
8336 4
8337 5
8338 22
8339 2
8340 2
8341 59
8342 20
8343 54
8344 2
8345 17
8346 27
8347 29
8348 14
8349 35
8350 5
8351 12
8352 2
8353 59
8354 17
8355 53
8356 17
8357 21
8358 5
8359 45
8360 44
8361 12
8362 45
8363 8
8364 17
8365 30
8366 14
8367 22
8368 3
8369 5
8370 48
8371 12
8372 17
8373 19
8374 50
8375 4
8376 48
8377 3
8378 2
8379 3
8380 3
8381 26
8382 4
8383 21
8384 19
8385 5
8386 40
8387 21
8388 2
8389 5
8390 17
8391 2
8392 47
8393 33
8394 33
8395 8
8396 17
8397 48
8398 7
8399 39
8400 17
8401 34
8402 2
8403 14
8404 17
8405 22
8406 17
8407 38
8408 5
8409 23
8410 2
8411 8
8412 10
8413 26
8414 9
8415 29
8416 31
8417 17
8418 45
8419 14
8420 17
8421 3
8422 14
8423 49
8424 5
8425 12
8426 5
8427 12
8428 16
8429 2
8430 1
8431 29
8432 0
8433 52
8434 17
8435 17
8436 58
8437 25
8438 45
8439 2
8440 26
8441 5
8442 5
8443 30
8444 8
8445 8
8446 32
8447 19
8448 6
8449 16
8450 16
8451 17
8452 3
8453 8
8454 8
8455 14
8456 28
8457 5
8458 8
8459 8
8460 19
8461 0
8462 17
8463 12
8464 52
8465 35
8466 34
8467 21
8468 30
8469 16
8470 1
8471 2
8472 17
8473 36
8474 11
8475 17
8476 2
8477 5
8478 2
8479 14
8480 45
8481 29
8482 11
8483 3
8484 30
8485 5
8486 55
8487 30
8488 4
8489 8
8490 5
8491 53
8492 29
8493 55
8494 16
8495 35
8496 36
8497 14
8498 17
8499 16
8500 7
8501 16
8502 17
8503 29
8504 58
8505 2
8506 51
8507 17
8508 5
8509 45
8510 16
8511 5
8512 17
8513 23
8514 12
8515 16
8516 12
8517 21
8518 14
8519 14
8520 19
8521 33
8522 6
8523 9
8524 41
8525 2
8526 39
8527 5
8528 14
8529 2
8530 8
8531 22
8532 4
8533 48
8534 33
8535 5
8536 8
8537 54
8538 51
8539 41
8540 2
8541 40
8542 14
8543 8
8544 2
8545 35
8546 18
8547 8
8548 5
8549 4
8550 39
8551 31
8552 14
8553 5
8554 17
8555 4
8556 17
8557 17
8558 8
8559 2
8560 8
8561 5
8562 16
8563 5
8564 54
8565 49
8566 49
8567 5
8568 2
8569 6
8570 19
8571 5
8572 8
8573 14
8574 49
8575 38
8576 2
8577 17
8578 18
8579 43
8580 8
8581 2
8582 8
8583 54
8584 4
8585 29
8586 17
8587 2
8588 5
8589 44
8590 54
8591 42
8592 54
8593 14
8594 29
8595 29
8596 2
8597 17
8598 8
8599 29
8600 5
8601 44
8602 17
8603 12
8604 2
8605 19
8606 8
8607 14
8608 5
8609 5
8610 29
8611 5
8612 14
8613 17
8614 44
8615 5
8616 29
8617 4
8618 16
8619 37
8620 8
8621 21
8622 17
8623 29
8624 2
8625 45
8626 8
8627 2
8628 18
8629 5
8630 29
8631 14
8632 7
8633 14
8634 17
8635 17
8636 17
8637 17
8638 17
8639 28
8640 14
8641 5
8642 34
8643 4
8644 29
8645 26
8646 5
8647 27
8648 14
8649 40
8650 17
8651 12
8652 16
8653 32
8654 55
8655 14
8656 2
8657 14
8658 4
8659 54
8660 31
8661 2
8662 8
8663 26
8664 17
8665 8
8666 2
8667 5
8668 17
8669 45
8670 16
8671 55
8672 27
8673 54
8674 5
8675 17
8676 17
8677 9
8678 29
8679 29
8680 2
8681 39
8682 5
8683 17
8684 5
8685 17
8686 17
8687 6
8688 54
8689 3
8690 9
8691 8
8692 55
8693 22
8694 43
8695 38
8696 11
8697 29
8698 2
8699 17
8700 5
8701 8
8702 54
8703 9
8704 21
8705 9
8706 2
8707 54
8708 17
8709 5
8710 9
8711 4
8712 5
8713 14
8714 29
8715 54
8716 5
8717 40
8718 8
8719 19
8720 9
8721 55
8722 2
8723 5
8724 2
8725 2
8726 29
8727 23
8728 31
8729 22
8730 7
8731 2
8732 54
8733 14
8734 8
8735 2
8736 30
8737 5
8738 43
8739 8
8740 27
8741 17
8742 22
8743 43
8744 36
8745 35
8746 54
8747 28
8748 48
8749 4
8750 31
8751 2
8752 5
8753 23
8754 19
8755 17
8756 35
8757 40
8758 53
8759 17
8760 53
8761 32
8762 16
8763 59
8764 5
8765 17
8766 33
8767 32
8768 9
8769 18
8770 14
8771 17
8772 14
8773 16
8774 6
8775 5
8776 8
8777 37
8778 28
8779 2
8780 17
8781 35
8782 38
8783 37
8784 56
8785 21
8786 4
8787 8
8788 5
8789 9
8790 48
8791 2
8792 33
8793 17
8794 17
8795 5
8796 2
8797 14
8798 16
8799 46
8800 28
8801 28
8802 1
8803 17
8804 48
8805 33
8806 5
8807 48
8808 33
8809 59
8810 2
8811 14
8812 3
8813 34
8814 33
8815 5
8816 37
8817 1
8818 8
8819 2
8820 5
8821 31
8822 16
8823 6
8824 2
8825 5
8826 28
8827 54
8828 5
8829 2
8830 3
8831 18
8832 12
8833 45
8834 17
8835 5
8836 12
8837 33
8838 16
8839 19
8840 17
8841 8
8842 17
8843 5
8844 17
8845 8
8846 5
8847 2
8848 16
8849 4
8850 31
8851 16
8852 17
8853 5
8854 14
8855 16
8856 49
8857 54
8858 5
8859 48
8860 4
8861 14
8862 2
8863 14
8864 14
8865 17
8866 5
8867 12
8868 55
8869 17
8870 5
8871 17
8872 12
8873 16
8874 48
8875 2
8876 15
8877 14
8878 2
8879 40
8880 8
8881 45
8882 14
8883 2
8884 8
8885 2
8886 8
8887 17
8888 8
8889 5
8890 19
8891 14
8892 4
8893 4
8894 7
8895 19
8896 6
8897 8
8898 21
8899 2
8900 17
8901 29
8902 5
8903 5
8904 5
8905 45
8906 5
8907 14
8908 14
8909 54
8910 19
8911 16
8912 17
8913 20
8914 9
8915 19
8916 8
8917 54
8918 28
8919 20
8920 55
8921 14
8922 29
8923 55
8924 17
8925 28
8926 17
8927 16
8928 5
8929 5
8930 5
8931 5
8932 2
8933 8
8934 17
8935 2
8936 5
8937 4
8938 17
8939 21
8940 17
8941 19
8942 5
8943 11
8944 2
8945 55
8946 17
8947 14
8948 2
8949 31
8950 17
8951 35
8952 29
8953 2
8954 17
8955 38
8956 29
8957 54
8958 8
8959 29
8960 33
8961 17
8962 14
8963 16
8964 19
8965 3
8966 16
8967 17
8968 17
8969 5
8970 54
8971 2
8972 30
8973 2
8974 8
8975 37
8976 8
8977 5
8978 17
8979 9
8980 8
8981 5
8982 19
8983 48
8984 5
8985 16
8986 8
8987 41
8988 8
8989 33
8990 17
8991 2
8992 48
8993 17
8994 14
8995 31
8996 2
8997 5
8998 8
8999 17
9000 17
9001 8
9002 16
9003 8
9004 6
9005 14
9006 40
9007 8
9008 3
9009 54
9010 2
9011 17
9012 29
9013 9
9014 2
9015 5
9016 14
9017 2
9018 2
9019 3
9020 5
9021 29
9022 17
9023 31
9024 16
9025 3
9026 4
9027 14
9028 17
9029 14
9030 16
9031 2
9032 14
9033 29
9034 54
9035 5
9036 9
9037 8
9038 16
9039 4
9040 5
9041 48
9042 14
9043 2
9044 17
9045 8
9046 4
9047 21
9048 2
9049 9
9050 24
9051 17
9052 45
9053 49
9054 49
9055 45
9056 5
9057 2
9058 17
9059 50
9060 27
9061 8
9062 32
9063 3
9064 5
9065 9
9066 5
9067 2
9068 54
9069 8
9070 5
9071 5
9072 17
9073 19
9074 5
9075 5
9076 17
9077 17
9078 19
9079 49
9080 16
9081 17
9082 0
9083 8
9084 14
9085 2
9086 24
9087 58
9088 57
9089 15
9090 17
9091 54
9092 17
9093 4
9094 16
9095 44
9096 19
9097 30
9098 17
9099 17
9100 2
9101 30
9102 14
9103 48
9104 5
9105 5
9106 2
9107 5
9108 12
9109 8
9110 2
9111 2
9112 9
9113 4
9114 20
9115 29
9116 5
9117 14
9118 8
9119 5
9120 54
9121 14
9122 9
9123 17
9124 29
9125 19
9126 14
9127 17
9128 14
9129 17
9130 17
9131 8
9132 17
9133 8
9134 39
9135 50
9136 3
9137 9
9138 5
9139 17
9140 22
9141 2
9142 10
9143 16
9144 9
9145 16
9146 5
9147 5
9148 33
9149 8
9150 23
9151 17
9152 49
9153 16
9154 9
9155 5
9156 45
9157 8
9158 43
9159 29
9160 35
9161 3
9162 30
9163 17
9164 17
9165 14
9166 5
9167 38
9168 2
9169 19
9170 19
9171 19
9172 5
9173 11
9174 5
9175 48
9176 9
9177 9
9178 8
9179 30
9180 5
9181 5
9182 3
9183 14
9184 29
9185 50
9186 26
9187 58
9188 8
9189 8
9190 9
9191 14
9192 5
9193 17
9194 19
9195 34
9196 22
9197 17
9198 23
9199 9
9200 34
9201 12
9202 41
9203 5
9204 21
9205 41
9206 8
9207 2
9208 5
9209 3
9210 14
9211 34
9212 3
9213 2
9214 25
9215 31
9216 2
9217 22
9218 5
9219 43
9220 45
9221 8
9222 8
9223 8
9224 14
9225 4
9226 3
9227 44
9228 0
9229 5
9230 16
9231 21
9232 53
9233 14
9234 29
9235 17
9236 17
9237 3
9238 2
9239 17
9240 19
9241 16
9242 14
9243 24
9244 17
9245 20
9246 56
9247 9
9248 35
9249 5
9250 12
9251 17
9252 28
9253 1
9254 2
9255 29
9256 17
9257 2
9258 14
9259 49
9260 14
9261 16
9262 27
9263 8
9264 58
9265 24
9266 27
9267 17
9268 8
9269 9
9270 17
9271 12
9272 5
9273 29
9274 5
9275 17
9276 48
9277 8
9278 14
9279 17
9280 2
9281 2
9282 17
9283 0
9284 2
9285 33
9286 14
9287 5
9288 15
9289 17
9290 2
9291 16
9292 14
9293 8
9294 5
9295 2
9296 19
9297 16
9298 28
9299 35
9300 28
9301 12
9302 19
9303 52
9304 14
9305 8
9306 48
9307 8
9308 33
9309 14
9310 2
9311 9
9312 16
9313 12
9314 8
9315 19
9316 14
9317 17
9318 9
9319 44
9320 5
9321 19
9322 17
9323 19
9324 54
9325 14
9326 16
9327 22
9328 14
9329 5
9330 19
9331 17
9332 59
9333 5
9334 0
9335 5
9336 5
9337 33
9338 22
9339 9
9340 14
9341 21
9342 33
9343 8
9344 22
9345 9
9346 17
9347 28
9348 12
9349 13
9350 2
9351 52
9352 6
9353 5
9354 17
9355 48
9356 2
9357 14
9358 34
9359 9
9360 16
9361 23
9362 5
9363 15
9364 21
9365 20
9366 8
9367 48
9368 16
9369 14
9370 14
9371 16
9372 4
9373 17
9374 16
9375 2
9376 2
9377 17
9378 2
9379 14
9380 48
9381 12
9382 14
9383 17
9384 37
9385 58
9386 17
9387 35
9388 5
9389 2
9390 2
9391 51
9392 14
9393 14
9394 9
9395 39
9396 5
9397 34
9398 14
9399 8
9400 48
9401 2
9402 48
9403 16
9404 38
9405 29
9406 5
9407 17
9408 31
9409 36
9410 8
9411 7
9412 38
9413 17
9414 6
9415 2
9416 19
9417 48
9418 2
9419 7
9420 48
9421 19
9422 33
9423 17
9424 0
9425 20
9426 2
9427 36
9428 17
9429 41
9430 8
9431 2
9432 30
9433 8
9434 5
9435 52
9436 17
9437 5
9438 16
9439 5
9440 16
9441 33
9442 31
9443 6
9444 9
9445 9
9446 17
9447 17
9448 5
9449 0
9450 14
9451 17
9452 55
9453 28
9454 31
9455 2
9456 9
9457 29
9458 17
9459 2
9460 14
9461 16
9462 12
9463 17
9464 11
9465 46
9466 31
9467 48
9468 2
9469 45
9470 2
9471 5
9472 5
9473 2
9474 5
9475 13
9476 50
9477 19
9478 5
9479 2
9480 14
9481 11
9482 37
9483 2
9484 31
9485 5
9486 16
9487 31
9488 53
9489 14
9490 39
9491 21
9492 43
9493 53
9494 5
9495 35
9496 17
9497 2
9498 14
9499 19
9500 19
9501 21
9502 45
9503 41
9504 30
9505 17
9506 31
9507 34
9508 2
9509 2
9510 2
9511 8
9512 18
9513 5
9514 17
9515 4
9516 5
9517 3
9518 2
9519 36
9520 2
9521 54
9522 5
9523 31
9524 5
9525 5
9526 55
9527 17
9528 17
9529 29
9530 5
9531 8
9532 27
9533 48
9534 17
9535 19
9536 51
9537 5
9538 8
9539 51
9540 19
9541 14
9542 31
9543 50
9544 5
9545 9
9546 5
9547 47
9548 33
9549 53
9550 2
9551 17
9552 8
9553 19
9554 5
9555 14
9556 56
9557 37
9558 17
9559 2
9560 5
9561 2
9562 21
9563 53
9564 5
9565 21
9566 5
9567 50
9568 28
9569 17
9570 33
9571 2
9572 2
9573 5
9574 52
9575 5
9576 17
9577 5
9578 25
9579 2
9580 2
9581 4
9582 2
9583 17
9584 48
9585 54
9586 14
9587 5
9588 8
9589 5
9590 17
9591 5
9592 17
9593 41
9594 21
9595 17
9596 29
9597 5
9598 8
9599 40
9600 4
9601 5
9602 22
9603 36
9604 17
9605 14
9606 19
9607 39
9608 14
9609 2
9610 7
9611 25
9612 6
9613 6
9614 17
9615 2
9616 39
9617 8
9618 30
9619 10
9620 4
9621 4
9622 8
9623 16
9624 6
9625 8
9626 17
9627 4
9628 0
9629 14
9630 36
9631 17
9632 17
9633 9
9634 14
9635 8
9636 17
9637 2
9638 15
9639 54
9640 5
9641 31
9642 45
9643 17
9644 17
9645 8
9646 5
9647 8
9648 14
9649 17
9650 37
9651 17
9652 5
9653 33
9654 16
9655 5
9656 4
9657 16
9658 37
9659 21
9660 15
9661 14
9662 8
9663 4
9664 21
9665 17
9666 31
9667 9
9668 2
9669 2
9670 27
9671 0
9672 54
9673 35
9674 14
9675 41
9676 26
9677 29
9678 5
9679 7
9680 5
9681 19
9682 29
9683 5
9684 49
9685 5
9686 5
9687 17
9688 16
9689 17
9690 9
9691 1
9692 14
9693 8
9694 14
9695 4
9696 14
9697 8
9698 5
9699 16
9700 29
9701 17
9702 21
9703 0
9704 14
9705 17
9706 17
9707 2
9708 8
9709 19
9710 55
9711 34
9712 5
9713 42
9714 5
9715 14
9716 17
9717 8
9718 8
9719 45
9720 9
9721 2
9722 29
9723 2
9724 33
9725 31
9726 19
9727 17
9728 8
9729 42
9730 9
9731 2
9732 14
9733 5
9734 2
9735 8
9736 2
9737 2
9738 5
9739 9
9740 46
9741 5
9742 15
9743 5
9744 17
9745 17
9746 49
9747 44
9748 8
9749 18
9750 8
9751 8
9752 34
9753 54
9754 23
9755 2
9756 9
9757 17
9758 41
9759 31
9760 21
9761 8
9762 13
9763 29
9764 8
9765 23
9766 35
9767 8
9768 8
9769 5
9770 48
9771 17
9772 33
9773 26
9774 8
9775 9
9776 19
9777 30
9778 3
9779 2
9780 32
9781 19
9782 4
9783 55
9784 17
9785 19
9786 11
9787 58
9788 4
9789 2
9790 55
9791 16
9792 2
9793 5
9794 14
9795 57
9796 5
9797 40
9798 9
9799 14
9800 8
9801 55
9802 33
9803 5
9804 37
9805 19
9806 16
9807 37
9808 29
9809 14
9810 8
9811 3
9812 35
9813 16
9814 2
9815 2
9816 17
9817 17
9818 9
9819 5
9820 2
9821 8
9822 17
9823 2
9824 2
9825 2
9826 4
9827 14
9828 5
9829 17
9830 38
9831 17
9832 43
9833 16
9834 17
9835 19
9836 5
9837 2
9838 8
9839 17
9840 14
9841 17
9842 14
9843 14
9844 2
9845 54
9846 38
9847 17
9848 19
9849 5
9850 48
9851 2
9852 12
9853 2
9854 8
9855 12
9856 8
9857 9
9858 46
9859 2
9860 2
9861 14
9862 33
9863 2
9864 2
9865 2
9866 16
9867 23
9868 5
9869 8
9870 17
9871 2
9872 38
9873 43
9874 50
9875 5
9876 14
9877 9
9878 14
9879 17
9880 19
9881 5
9882 21
9883 6
9884 2
9885 7
9886 14
9887 2
9888 33
9889 35
9890 29
9891 34
9892 16
9893 16
9894 2
9895 16
9896 5
9897 31
9898 43
9899 7
9900 14
9901 29
9902 5
9903 4
9904 34
9905 5
9906 8
9907 2
9908 17
9909 5
9910 14
9911 5
9912 8
9913 14
9914 5
9915 14
9916 8
9917 29
9918 2
9919 14
9920 19
9921 48
9922 4
9923 2
9924 29
9925 23
9926 17
9927 17
9928 8
9929 9
9930 17
9931 32
9932 33
9933 5
9934 54
9935 9
9936 8
9937 17
9938 8
9939 37
9940 23
9941 50
9942 29
9943 39
9944 14
9945 17
9946 5
9947 17
9948 33
9949 8
9950 11
9951 16
9952 8
9953 14
9954 16
9955 29
9956 42
9957 8
9958 17
9959 27
9960 5
9961 21
9962 8
9963 5
9964 0
9965 17
9966 41
9967 5
9968 31
9969 17
9970 5
9971 6
9972 28
9973 17
9974 17
9975 32
9976 54
9977 9
9978 16
9979 16
9980 2
9981 2
9982 8
9983 4
9984 17
9985 5
9986 5
9987 5
9988 5
9989 35
9990 2
9991 19
9992 5
9993 17
9994 2
9995 13
9996 14
9997 8
9998 30
9999 9
