0 0
1 1
2 2
3 2
4 3
5 4
6 5
7 6
8 7
9 8
10 9
11 10
12 11
13 12
14 13
15 14
16 15
17 16
18 17
19 18
20 19
21 20
22 21
23 22
24 23
25 24
26 18
27 14
28 25
29 26
30 27
31 28
32 25
33 12
34 29
35 30
36 16
37 31
38 32
39 33
40 20
41 34
42 35
43 12
44 36
45 8
46 37
47 38
48 39
49 40
50 41
51 42
52 25
53 43
54 44
55 45
56 46
57 47
58 48
59 24
60 15
61 49
62 50
63 51
64 52
65 53
66 54
67 8
68 55
69 26
70 35
71 56
72 12
73 22
74 57
75 2
76 8
77 58
78 59
79 60
80 61
81 62
82 63
83 64
84 65
85 27
86 63
87 2
88 66
89 22
90 67
91 68
92 69
93 70
94 52
95 71
96 72
97 73
98 12
99 74
100 75
101 76
102 77
103 78
104 79
105 80
106 34
107 81
108 82
109 83
110 84
111 22
112 85
113 86
114 54
115 87
116 88
117 89
118 54
119 34
120 16
121 90
122 91
123 27
124 92
125 93
126 94
127 63
128 22
129 95
130 96
131 2
132 97
133 98
134 63
135 99
136 78
137 100
138 25
139 101
140 102
141 103
142 104
143 105
144 106
145 107
146 20
147 8
148 12
149 108
150 94
151 109
152 110
153 111
154 112
155 35
156 22
157 25
158 113
159 114
160 34
161 115
162 34
163 116
164 117
165 26
166 118
167 52
168 94
169 119
170 120
171 121
172 94
173 54
174 122
175 59
176 123
177 124
178 125
179 126
180 39
181 127
182 128
183 129
184 130
185 78
186 131
187 94
188 132
189 133
190 134
191 25
192 135
193 136
194 94
195 35
196 137
197 138
198 139
199 34
200 140
201 141
202 142
203 143
204 144
205 24
206 145
207 146
208 147
209 148
210 27
211 51
212 59
213 149
214 27
215 150
216 6
217 151
218 35
219 152
220 153
221 22
222 25
223 2
224 154
225 92
226 155
227 156
228 51
229 26
230 44
231 157
232 158
233 159
234 160
235 161
236 162
237 27
238 39
239 25
240 163
241 164
242 26
243 165
244 63
245 59
246 151
247 94
248 166
249 87
250 22
251 94
252 153
253 167
254 2
255 168
256 169
257 170
258 147
259 24
260 171
261 26
262 2
263 172
264 173
265 8
266 174
267 67
268 175
269 176
270 25
271 177
272 178
273 179
274 152
275 26
276 25
277 63
278 180
279 27
280 12
281 59
282 181
283 182
284 183
285 184
286 12
287 185
288 186
289 187
290 188
291 189
292 190
293 191
294 192
295 193
296 52
297 194
298 59
299 195
300 196
301 197
302 198
303 193
304 2
305 112
306 199
307 35
308 200
309 201
310 64
311 59
312 33
313 202
314 187
315 203
316 204
317 205
318 206
319 27
320 27
321 207
322 135
323 94
324 208
325 52
326 35
327 12
328 209
329 22
330 210
331 25
332 124
333 34
334 34
335 35
336 33
337 35
338 94
339 211
340 212
341 59
342 213
343 54
344 33
345 152
346 33
347 51
348 214
349 215
350 134
351 112
352 216
353 217
354 22
355 94
356 78
357 121
358 218
359 219
360 220
361 26
362 47
363 221
364 108
365 222
366 223
367 42
368 224
369 8
370 225
371 6
372 68
373 198
374 59
375 226
376 227
377 154
378 228
379 78
380 210
381 26
382 229
383 150
384 63
385 155
386 42
387 35
388 230
389 138
390 116
391 231
392 33
393 94
394 112
395 232
396 233
397 234
398 230
399 235
400 236
401 78
402 237
403 238
404 121
405 63
406 239
407 240
408 2
409 63
410 35
411 241
412 242
413 243
414 27
415 42
416 94
417 34
418 24
419 190
420 63
421 8
422 212
423 244
424 245
425 246
426 52
427 54
428 26
429 63
430 247
431 248
432 249
433 250
434 251
435 210
436 17
437 25
438 252
439 243
440 253
441 254
442 25
443 35
444 154
445 255
446 256
447 21
448 257
449 121
450 258
451 259
452 201
453 260
454 116
455 108
456 261
457 52
458 22
459 262
460 263
461 264
462 265
463 266
464 211
465 59
466 33
467 83
468 69
469 22
470 267
471 2
472 12
473 268
474 269
475 270
476 271
477 272
478 25
479 273
480 175
481 25
482 40
483 121
484 25
485 27
486 274
487 16
488 16
489 275
490 71
491 276
492 277
493 278
494 26
495 108
496 251
497 279
498 280
499 140
500 281
501 42
502 282
503 94
504 24
505 283
506 54
507 284
508 150
509 112
510 52
511 285
512 65
513 286
514 63
515 287
516 87
517 22
518 39
519 26
520 16
521 288
522 112
523 289
524 290
525 20
526 51
527 202
528 202
529 291
530 292
531 293
532 294
533 63
534 132
535 295
536 140
537 296
538 28
539 121
540 154
541 2
542 297
543 94
544 224
545 94
546 63
547 138
548 35
549 21
550 298
551 46
552 211
553 52
554 299
555 300
556 301
557 302
558 150
559 303
560 304
561 130
562 42
563 51
564 27
565 305
566 306
567 17
568 307
569 94
570 26
571 78
572 27
573 308
574 309
575 310
576 311
577 21
578 312
579 221
580 313
581 63
582 125
583 78
584 200
585 314
586 315
587 316
588 124
589 317
590 318
591 6
592 319
593 34
594 175
595 171
596 320
597 251
598 321
599 322
600 323
601 112
602 38
603 324
604 25
605 325
606 240
607 8
608 225
609 326
610 327
611 328
612 329
613 2
614 182
615 330
616 26
617 152
618 331
619 332
620 333
621 212
622 334
623 108
624 22
625 25
626 335
627 212
628 336
629 337
630 234
631 8
632 18
633 338
634 8
635 221
636 94
637 339
638 63
639 340
640 25
641 341
642 342
643 25
644 154
645 336
646 34
647 343
648 344
649 27
650 8
651 345
652 8
653 334
654 92
655 346
656 347
657 240
658 348
659 162
660 349
661 5
662 78
663 54
664 350
665 248
666 54
667 351
668 255
669 94
670 348
671 124
672 2
673 251
674 352
675 38
676 12
677 87
678 353
679 354
680 355
681 51
682 356
683 20
684 309
685 357
686 94
687 358
688 212
689 336
690 359
691 360
692 361
693 12
694 59
695 54
696 362
697 363
698 213
699 364
700 25
701 59
702 365
703 366
704 59
705 367
706 35
707 368
708 369
709 213
710 154
711 370
712 26
713 371
714 117
715 372
716 137
717 54
718 17
719 373
720 20
721 374
722 8
723 100
724 94
725 375
726 376
727 377
728 94
729 312
730 183
731 378
732 8
733 240
734 117
735 379
736 375
737 27
738 380
739 336
740 134
741 381
742 382
743 383
744 357
745 94
746 83
747 22
748 326
749 384
750 152
751 385
752 22
753 386
754 387
755 59
756 12
757 24
758 361
759 16
760 388
761 27
762 94
763 161
764 26
765 78
766 389
767 11
768 12
769 266
770 390
771 391
772 392
773 78
774 39
775 393
776 167
777 394
778 34
779 22
780 34
781 395
782 336
783 94
784 396
785 218
786 397
787 398
788 399
789 400
790 87
791 26
792 401
793 402
794 193
795 211
796 124
797 78
798 20
799 403
800 188
801 404
802 94
803 37
804 34
805 66
806 117
807 229
808 94
809 405
810 406
811 407
812 408
813 21
814 34
815 64
816 94
817 147
818 409
819 312
820 25
821 124
822 410
823 25
824 411
825 46
826 412
827 12
828 26
829 53
830 2
831 144
832 16
833 8
834 78
835 413
836 193
837 94
838 8
839 414
840 415
841 416
842 26
843 388
844 94
845 417
846 20
847 418
848 368
849 380
850 108
851 94
852 78
853 419
854 420
855 25
856 421
857 35
858 63
859 422
860 54
861 423
862 424
863 425
864 152
865 219
866 63
867 426
868 24
869 427
870 173
871 112
872 219
873 94
874 428
875 429
876 317
877 78
878 108
879 108
880 2
881 430
882 431
883 432
884 218
885 433
886 434
887 435
888 22
889 436
890 437
891 438
892 124
893 124
894 120
895 39
896 53
897 439
898 22
899 440
900 354
901 121
902 441
903 221
904 27
905 442
906 6
907 25
908 250
909 2
910 20
911 34
912 234
913 443
914 444
915 445
916 59
917 59
918 20
919 52
920 108
921 87
922 34
923 237
924 25
925 446
926 8
927 447
928 12
929 336
930 448
931 449
932 27
933 152
934 51
935 63
936 152
937 405
938 450
939 370
940 280
941 234
942 87
943 270
944 8
945 451
946 54
947 17
948 452
949 453
950 454
951 455
952 196
953 456
954 108
955 26
956 78
957 457
958 314
959 458
960 41
961 459
962 63
963 154
964 63
965 27
966 430
967 94
968 460
969 27
970 63
971 461
972 33
973 462
974 25
975 370
976 210
977 395
978 22
979 190
980 463
981 464
982 33
983 35
984 138
985 373
986 465
987 466
988 78
989 130
990 152
991 2
992 2
993 467
994 116
995 78
996 112
997 20
998 231
999 468
1000 469
1001 470
1002 471
1003 470
1004 471
1005 472
1006 473
1007 474
1008 475
1009 472
1010 476
1011 0
1012 475
1013 469
1014 0
1015 474
1016 477
1017 478
1018 469
1019 470
1020 477
1021 479
1022 471
1023 476
1024 475
1025 470
1026 471
1027 480
1028 477
1029 476
1030 478
1031 481
1032 477
1033 475
1034 472
1035 471
1036 473
1037 477
1038 470
1039 476
1040 474
1041 481
1042 478
1043 481
1044 470
1045 476
1046 477
1047 479
1048 477
1049 481
1050 476
1051 478
1052 480
1053 480
1054 479
1055 478
1056 470
1057 476
1058 479
1059 471
1060 472
1061 479
1062 477
1063 481
1064 481
1065 477
1066 471
1067 481
1068 474
1069 473
1070 472
1071 480
1072 478
1073 475
1074 479
1075 473
1076 471
1077 480
1078 469
1079 473
1080 475
1081 479
1082 469
1083 478
1084 473
1085 473
1086 476
1087 480
1088 475
1089 473
1090 473
1091 469
1092 479
1093 476
1094 469
1095 478
1096 473
1097 472
1098 472
1099 479
1100 479
1101 477
1102 475
1103 472
1104 474
1105 472
1106 474
1107 478
1108 477
1109 469
1110 472
1111 470
1112 479
1113 480
1114 475
1115 479
1116 469
1117 481
1118 475
1119 472
1120 471
1121 473
1122 481
1123 472
1124 478
1125 478
1126 469
1127 469
1128 477
1129 481
1130 471
1131 479
1132 474
1133 471
1134 477
1135 475
1136 473
1137 476
1138 479
1139 471
1140 476
1141 481
1142 479
1143 477
1144 471
1145 470
1146 477
1147 478
1148 481
1149 470
1150 475
1151 480
1152 481
1153 471
1154 478
1155 474
1156 478
1157 471
1158 476
1159 476
1160 471
1161 476
1162 471
1163 0
1164 473
1165 473
1166 469
1167 473
1168 472
1169 481
1170 470
1171 0
1172 469
1173 472
1174 474
1175 470
1176 471
1177 478
1178 475
1179 469
1180 471
1181 471
1182 476
1183 471
1184 473
1185 478
1186 479
1187 471
1188 476
1189 477
1190 478
1191 473
1192 472
1193 481
1194 470
1195 474
1196 476
1197 477
1198 479
1199 0
1200 472
1201 473
1202 474
1203 480
1204 469
1205 471
1206 0
1207 476
1208 480
1209 470
1210 472
1211 474
1212 471
1213 480
1214 470
1215 479
1216 472
1217 471
1218 470
1219 473
1220 477
1221 474
1222 471
1223 478
1224 0
1225 470
1226 473
1227 480
1228 480
1229 477
1230 0
1231 477
1232 481
1233 477
1234 472
1235 475
1236 480
1237 476
1238 470
1239 0
1240 0
1241 469
1242 475
1243 478
1244 479
1245 481
1246 478
1247 0
1248 473
1249 0
1250 469
1251 472
1252 479
1253 480
1254 478
1255 473
1256 479
1257 470
1258 470
1259 481
1260 479
1261 481
1262 0
1263 476
1264 480
1265 479
1266 476
1267 481
1268 479
1269 481
1270 0
1271 480
1272 470
1273 478
1274 473
1275 480
1276 481
1277 477
1278 0
1279 0
1280 473
1281 475
1282 481
1283 0
1284 481
1285 481
1286 476
1287 0
1288 478
1289 470
1290 0
1291 477
1292 477
1293 0
1294 470
1295 476
1296 0
1297 478
1298 479
1299 471
1300 471
1301 479
1302 474
1303 479
1304 0
1305 0
1306 473
1307 481
1308 469
1309 481
1310 478
1311 470
1312 0
1313 477
1314 476
1315 481
1316 481
1317 481
1318 481
1319 470
1320 0
1321 478
1322 481
1323 481
1324 480
1325 477
1326 0
1327 479
1328 474
1329 475
1330 473
1331 479
1332 474
1333 473
1334 476
1335 473
1336 474
1337 476
1338 478
1339 473
1340 474
1341 476
1342 470
1343 478
1344 475
1345 472
1346 472
1347 476
1348 477
1349 480
1350 480
1351 481
1352 0
1353 480
1354 474
1355 474
1356 474
1357 473
1358 473
1359 473
1360 472
1361 469
1362 478
1363 479
1364 474
1365 470
1366 470
1367 475
1368 474
1369 478
1370 0
1371 471
1372 479
1373 479
1374 479
1375 470
1376 472
1377 480
1378 473
1379 477
1380 472
1381 473
1382 475
1383 476
1384 476
1385 478
1386 476
1387 471
1388 476
1389 476
1390 479
1391 0
1392 476
1393 476
1394 478
1395 0
1396 478
1397 476
1398 481
1399 475
1400 0
1401 0
1402 477
1403 476
1404 478
1405 0
1406 478
1407 470
1408 477
1409 479
1410 481
1411 479
1412 474
1413 472
1414 472
1415 470
1416 472
1417 477
1418 478
1419 473
1420 472
1421 472
1422 476
1423 478
1424 478
1425 474
1426 474
1427 470
1428 479
1429 470
1430 470
1431 476
1432 469
1433 479
1434 477
1435 474
1436 472
1437 469
1438 473
1439 0
1440 471
1441 481
1442 478
1443 478
1444 0
1445 469
1446 475
1447 471
1448 477
1449 0
1450 479
1451 480
1452 470
1453 473
1454 474
1455 0
1456 481
1457 481
1458 479
1459 481
1460 479
1461 479
1462 470
1463 475
1464 477
1465 470
1466 478
1467 479
1468 475
1469 479
1470 475
1471 470
1472 476
1473 478
1474 471
1475 0
1476 472
1477 470
1478 471
1479 478
1480 0
1481 470
1482 481
1483 472
1484 478
1485 474
1486 471
1487 471
1488 472
1489 479
1490 480
1491 471
1492 474
1493 471
1494 474
1495 478
1496 476
1497 472
1498 480
1499 469
1500 477
1501 474
1502 478
1503 473
1504 474
1505 474
1506 469
1507 480
1508 470
1509 470
1510 474
1511 481
1512 474
1513 473
1514 477
1515 475
1516 0
1517 0
1518 469
1519 0
1520 479
1521 479
1522 0
1523 475
1524 477
1525 478
1526 479
1527 476
1528 474
1529 479
1530 479
1531 0
1532 479
1533 0
1534 477
1535 472
1536 471
1537 476
1538 477
1539 477
1540 477
1541 479
1542 476
1543 0
1544 479
1545 477
1546 481
1547 474
1548 478
1549 474
1550 471
1551 477
1552 473
1553 473
1554 477
1555 481
1556 474
1557 471
1558 477
1559 476
1560 479
1561 481
1562 473
1563 477
1564 473
1565 478
1566 478
1567 469
1568 477
1569 481
1570 481
1571 472
1572 469
1573 471
1574 481
1575 478
1576 477
1577 481
1578 479
1579 474
1580 480
1581 472
1582 475
1583 474
1584 478
1585 481
1586 472
1587 474
1588 475
1589 481
1590 473
1591 474
1592 481
1593 475
1594 480
1595 473
1596 481
1597 481
1598 481
1599 477
1600 469
1601 476
1602 473
1603 480
1604 469
1605 476
1606 0
1607 477
1608 480
1609 469
1610 475
1611 475
1612 479
1613 477
1614 481
1615 477
1616 478
1617 469
1618 479
1619 479
1620 469
1621 469
1622 478
1623 474
1624 469
1625 477
1626 472
1627 469
1628 477
1629 481
1630 472
1631 477
1632 476
1633 476
1634 476
1635 469
1636 474
1637 480
1638 479
1639 473
1640 481
1641 479
1642 479
1643 476
1644 478
1645 481
1646 473
1647 473
1648 475
1649 476
1650 481
1651 473
1652 477
1653 473
1654 476
1655 478
1656 481
1657 470
1658 470
1659 477
1660 475
1661 476
1662 470
1663 476
1664 481
1665 473
1666 479
1667 0
1668 477
1669 476
1670 478
1671 470
1672 473
1673 472
1674 478
1675 474
1676 473
1677 477
1678 478
1679 481
1680 481
1681 472
1682 472
1683 474
1684 469
1685 0
1686 0
1687 477
1688 479
1689 470
1690 469
1691 0
1692 481
1693 478
1694 0
1695 471
1696 476
1697 0
1698 481
1699 472
1700 481
1701 479
1702 0
1703 478
1704 474
1705 475
1706 472
1707 481
1708 473
1709 478
1710 476
1711 480
1712 478
1713 476
1714 481
1715 480
1716 480
1717 477
1718 0
1719 475
1720 477
1721 474
1722 474
1723 471
1724 475
1725 0
1726 471
1727 480
1728 470
1729 475
1730 478
1731 478
1732 472
1733 476
1734 0
1735 475
1736 474
1737 471
1738 478
1739 470
1740 477
1741 478
1742 470
1743 471
1744 479
1745 479
1746 469
1747 472
1748 477
1749 477
1750 480
1751 471
1752 476
1753 469
1754 481
1755 479
1756 470
1757 469
1758 479
1759 478
1760 473
1761 476
1762 473
1763 479
1764 471
1765 472
1766 469
1767 469
1768 481
1769 477
1770 470
1771 481
1772 477
1773 480
1774 479
1775 481
1776 479
1777 479
1778 480
1779 0
1780 481
1781 0
1782 481
1783 477
1784 476
1785 477
1786 476
1787 470
1788 481
1789 479
1790 476
1791 479
1792 479
1793 470
1794 478
1795 470
1796 479
1797 476
1798 0
1799 481
1800 481
1801 474
1802 481
1803 471
1804 476
1805 474
1806 481
1807 476
1808 473
1809 478
1810 0
1811 477
1812 470
1813 479
1814 0
1815 478
1816 473
1817 477
1818 474
1819 474
1820 476
1821 478
1822 470
1823 474
1824 474
1825 473
1826 481
1827 0
1828 472
1829 481
1830 478
1831 472
1832 469
1833 476
1834 477
1835 478
1836 481
1837 478
1838 476
1839 469
1840 475
1841 470
1842 0
1843 475
1844 481
1845 481
1846 475
1847 476
1848 476
1849 469
1850 469
1851 469
1852 476
1853 473
1854 478
1855 478
1856 470
1857 477
1858 472
1859 469
1860 472
1861 474
1862 469
1863 481
1864 481
1865 476
1866 481
1867 481
1868 0
1869 469
1870 470
1871 481
1872 480
1873 470
1874 473
1875 473
1876 470
1877 0
1878 478
1879 477
1880 472
1881 476
1882 480
1883 478
1884 477
1885 472
1886 478
1887 469
1888 475
1889 477
1890 470
1891 480
1892 470
1893 475
1894 477
1895 473
1896 478
1897 476
1898 481
1899 481
1900 476
1901 471
1902 479
1903 477
1904 470
1905 479
1906 470
1907 477
1908 478
1909 481
1910 477
1911 479
1912 481
1913 470
1914 478
1915 476
1916 471
1917 473
1918 473
1919 477
1920 478
1921 473
1922 476
1923 479
1924 0
1925 472
1926 473
1927 476
1928 474
1929 477
1930 470
1931 479
1932 469
1933 474
1934 479
1935 479
1936 474
1937 479
1938 477
1939 476
1940 469
1941 473
1942 478
1943 470
1944 470
1945 476
1946 473
1947 472
1948 0
1949 478
1950 475
1951 469
1952 471
1953 479
1954 479
1955 0
1956 469
1957 479
1958 477
1959 479
1960 479
1961 478
1962 476
1963 471
1964 471
1965 475
1966 477
1967 481
1968 477
1969 469
1970 476
1971 472
1972 476
1973 470
1974 477
1975 477
1976 476
1977 472
1978 478
1979 470
1980 474
1981 472
1982 478
1983 475
1984 479
1985 480
1986 472
1987 480
1988 478
1989 469
1990 470
1991 481
1992 471
1993 473
1994 469
1995 472
1996 0
1997 470
1998 471
1999 0
